FileType=PCF
NHL=14
Date=08/29/17	08:02:44
Facility=APL
Serial=16328-13
Customer=NASA
NP=6
Mach=0.200000
Calibration=1:1
CalPts=490
TstPts=95
PortNumbering=AP Standard
Units=Torr C m/s kg/m^3 deg mm 
Theta[deg]	Phi[deg]	P1[Torr]	P2[Torr]	P3[Torr]	P4[Torr]	P5[Torr]	P6[Torr]	Pt[Torr]	Ps[Abs,Torr]	Ts[C]	
  0.000	  0.000	 19.67353	 10.33325	  9.85673	  9.95627	 10.31653	  0.19815	 19.64256	706.01801	 24.30	
  1.691	128.401	 19.61032	  9.65298	 10.44405	 10.70916	  9.47091	  0.19824	 19.59114	706.09698	 23.90	
  1.692	 77.194	 19.62711	 10.52692	  9.58653	 10.92997	  9.27864	  0.19179	 19.60776	706.00598	 23.90	
  1.699	 26.182	 19.63726	 11.19870	  8.90990	 10.37506	  9.81630	  0.19416	 19.60962	706.06799	 23.80	
  1.699	-26.182	 19.64321	 11.17364	  8.91738	  9.47353	 10.71949	  0.18647	 19.62206	706.10999	 23.80	
  1.692	-77.194	 19.65637	 10.50432	  9.61053	  8.95161	 11.27977	  0.19042	 19.63806	706.09698	 23.80	
  1.691	-128.401	 19.64046	  9.63864	 10.47044	  9.12523	 11.08936	  0.18655	 19.61611	706.10199	 23.80	
  1.700	180.000	 19.62507	  9.25046	 10.86168	  9.89404	 10.27581	  0.19452	 19.59006	706.04199	 23.80	
  3.400	180.000	 19.61552	  8.21803	 11.86211	  9.82172	 10.20880	  0.16992	 19.60825	705.93799	 23.80	
  3.388	-152.325	 19.58611	  8.41872	 11.58713	  8.90458	 11.12971	  0.13643	 19.59261	705.97998	 23.80	
  3.397	-124.529	 19.59481	  9.00351	 10.92769	  8.21028	 11.89359	  0.14318	 19.61289	706.01099	 23.80	
  3.399	-96.763	 19.61391	  9.92743	  9.98117	  7.88759	 12.24319	  0.10365	 19.63324	705.99799	 23.80	
  3.394	-69.283	 19.54531	 10.83794	  9.00082	  7.98265	 12.08049	  0.10477	 19.56858	706.03198	 23.70	
  3.400	-41.398	 19.59753	 11.68155	  8.23722	  8.52849	 11.52039	  0.11586	 19.62547	705.99200	 23.70	
  3.401	-14.021	 19.59731	 12.16175	  7.80414	  9.32648	 10.67277	  0.15052	 19.61737	705.94202	 23.70	
  3.401	 14.021	 19.57741	 12.17616	  7.79498	 10.31385	  9.65421	  0.14820	 19.59190	706.02899	 23.70	
  3.400	 41.398	 19.56301	 11.72351	  8.20202	 11.18307	  8.82354	  0.14571	 19.57112	705.90002	 23.70	
  3.394	 69.283	 19.57838	 10.93684	  8.98800	 11.74507	  8.32571	  0.14407	 19.57394	706.09601	 23.70	
  3.399	 96.763	 19.59669	 10.00148	  9.95974	 11.89506	  8.22312	  0.15248	 19.58542	706.00000	 23.70	
  3.397	124.529	 19.58887	  9.07034	 10.90338	 11.51196	  8.55600	  0.14057	 19.58552	705.93799	 23.70	
  3.388	152.325	 19.59783	  8.44796	 11.59387	 10.76590	  9.27009	  0.16184	 19.59428	705.98602	 23.70	
  5.099	161.165	 19.51439	  7.26175	 12.61315	 10.66967	  9.06310	  0.07702	 19.58275	705.90399	 23.70	
  5.109	142.013	 19.54775	  7.72873	 12.11367	 11.62494	  8.21124	  0.06943	 19.61700	706.01398	 23.70	
  5.095	123.033	 19.53971	  8.43365	 11.31180	 12.32643	  7.59380	  0.04974	 19.60386	706.04901	 23.70	
  5.105	104.191	 19.51687	  9.31502	 10.32832	 12.74778	  7.18495	  0.04202	 19.58155	706.08801	 23.70	
  5.093	 85.207	 19.54222	 10.36160	  9.30591	 12.85239	  7.11660	  0.04147	 19.60983	706.01501	 23.70	
  5.104	 66.290	 19.52429	 11.31613	  8.33742	 12.57249	  7.33663	  0.03349	 19.59525	706.07397	 23.70	
  5.094	 47.331	 19.48749	 12.18123	  7.50828	 11.96371	  7.84293	  0.04945	 19.58497	705.98401	 23.70	
  5.089	 28.397	 19.48439	 12.80098	  6.93872	 11.15159	  8.56973	  0.04755	 19.58823	706.11102	 23.70	
  5.096	  9.576	 19.46303	 13.12717	  6.62977	 10.16073	  9.48051	  0.06788	 19.58187	706.01099	 23.70	
  5.096	 -9.576	 19.46686	 13.10305	  6.63966	  9.12457	 10.52464	  0.05422	 19.60088	706.05603	 23.70	
  5.089	-28.397	 19.45837	 12.73955	  6.95059	  8.21876	 11.48149	  0.05541	 19.60592	705.97601	 23.70	
  5.094	-47.331	 19.45496	 12.07497	  7.53016	  7.47511	 12.31012	  0.01894	 19.60209	705.98297	 23.70	
  5.104	-66.290	 19.44415	 11.18128	  8.33673	  6.94209	 12.90954	 -0.00391	 19.59040	705.92798	 23.60	
  5.093	-85.207	 19.43925	 10.20177	  9.30114	  6.71419	 13.17207	 -0.00686	 19.57791	705.96198	 23.60	
  5.105	-104.191	 19.45096	  9.18923	 10.33302	  6.79221	 13.09581	  0.00129	 19.58441	705.97498	 23.60	
  5.095	-123.033	 19.47861	  8.32312	 11.31118	  7.17932	 12.68254	  0.02762	 19.60408	706.00000	 23.60	
  5.109	-142.013	 19.48857	  7.64655	 12.10554	  7.82160	 11.96969	  0.03660	 19.59236	706.07898	 23.60	
  5.099	-161.165	 19.51289	  7.22805	 12.62869	  8.69199	 11.05317	  0.05204	 19.60372	705.98700	 23.60	
  5.100	180.000	 19.53484	  7.10353	 12.80695	  9.66145	 10.06853	  0.07457	 19.61284	705.97498	 23.60	
  6.800	180.000	 19.37717	  5.96713	 13.73647	  9.48757	  9.86760	 -0.03699	 19.61598	705.96399	 23.60	
  6.796	-166.229	 19.32524	  6.02045	 13.58763	  8.50068	 10.82992	 -0.04751	 19.57422	705.98602	 23.60	
  6.808	-152.311	 19.33306	  6.30335	 13.23914	  7.60021	 11.80056	 -0.05947	 19.60803	705.97498	 23.60	
  6.795	-138.383	 19.29479	  6.78993	 12.60218	  6.80521	 12.64949	 -0.08217	 19.58376	706.08801	 23.60	
  6.792	-124.591	 19.26868	  7.46586	 11.80348	  6.19430	 13.32734	 -0.09902	 19.57600	705.92999	 23.60	
  6.787	-110.754	 19.30526	  8.30612	 10.90790	  5.79762	 13.83897	 -0.12208	 19.62261	706.13300	 23.60	
  6.800	-96.985	 19.28109	  9.22691	  9.90685	  5.57596	 14.07790	 -0.14679	 19.60834	706.00598	 23.60	
  6.800	-83.015	 19.25040	 10.21949	  8.87614	  5.57075	 14.04620	 -0.15254	 19.58809	706.05200	 23.60	
  6.787	-69.246	 19.25100	 11.19068	  7.93293	  5.78252	 13.79774	 -0.14138	 19.59067	706.03400	 23.60	
  6.792	-55.409	 19.23096	 12.10001	  7.07442	  6.19240	 13.29083	 -0.12300	 19.57494	705.97998	 23.60	
  6.795	-41.617	 19.22847	 12.88670	  6.38019	  6.79651	 12.59725	 -0.09155	 19.56576	705.91901	 23.60	
  6.808	-27.689	 19.22853	 13.50306	  5.84658	  7.56897	 11.72613	 -0.06138	 19.56720	705.89899	 23.60	
  6.796	-13.771	 19.24159	 13.89393	  5.53311	  8.46348	 10.77475	 -0.05595	 19.56614	706.02301	 23.60	
  6.800	  0.000	 19.26581	 14.04839	  5.42565	  9.42971	  9.80378	 -0.06105	 19.58797	705.91302	 23.60	
  6.796	 13.771	 19.28157	 13.95112	  5.52784	 10.44535	  8.82059	 -0.07441	 19.57921	705.93903	 23.60	
  6.808	 27.689	 19.31709	 13.61570	  5.84129	 11.41915	  7.92788	 -0.06511	 19.60231	706.03198	 23.60	
  6.795	 41.617	 19.33273	 13.03526	  6.36356	 12.27211	  7.17704	 -0.07142	 19.59586	706.07300	 23.60	
  6.792	 55.409	 19.32832	 12.25435	  7.05153	 12.95987	  6.57113	 -0.08613	 19.56969	705.97803	 23.60	
  6.787	 69.246	 19.36099	 11.36819	  7.91244	 13.47218	  6.18049	 -0.07983	 19.58619	706.01703	 23.60	
  6.800	 83.015	 19.38245	 10.42118	  8.85563	 13.74287	  5.97454	 -0.08600	 19.59118	706.02301	 23.60	
  6.800	 96.985	 19.37251	  9.39946	  9.86770	 13.73306	  5.97640	 -0.09127	 19.57779	706.07397	 23.60	
  6.787	110.754	 19.35537	  8.45684	 10.84832	 13.46335	  6.18308	 -0.07514	 19.55505	706.04797	 23.60	
  6.792	124.591	 19.36967	  7.62591	 11.78648	 12.98305	  6.61264	 -0.06397	 19.57665	706.00897	 23.60	
  6.795	138.383	 19.35731	  6.93167	 12.57173	 12.28674	  7.21243	 -0.04834	 19.56575	706.07703	 23.60	
  6.808	152.311	 19.37675	  6.40729	 13.21235	 11.45074	  7.97374	 -0.03428	 19.58540	706.05603	 23.60	
  6.796	166.229	 19.34598	  6.07460	 13.57780	 10.47053	  8.86743	 -0.02896	 19.56492	706.02399	 23.60	
  8.491	168.704	 19.11704	  4.97649	 14.46345	 10.26425	  8.60036	 -0.15140	 19.56322	706.09003	 23.60	
  8.502	157.493	 19.13170	  5.20571	 14.15883	 11.25925	  7.67287	 -0.15194	 19.57919	705.97198	 23.60	
  8.494	146.194	 19.17982	  5.63151	 13.66051	 12.21844	  6.85733	 -0.17667	 19.60936	706.14899	 23.60	
  8.495	135.039	 19.13717	  6.16809	 12.94102	 13.01535	  6.11746	 -0.20605	 19.56827	706.06299	 23.60	
  8.487	123.723	 19.15849	  6.90444	 12.10751	 13.71362	  5.53455	 -0.21353	 19.57959	706.00098	 23.50	
  8.492	112.575	 19.17012	  7.74753	 11.17787	 14.22453	  5.12258	 -0.23578	 19.58963	706.15601	 23.50	
  8.510	101.220	 19.15532	  8.68540	 10.15681	 14.52747	  4.85863	 -0.24988	 19.58036	705.95203	 23.50	
  8.500	 90.000	 19.17218	  9.68611	  9.14128	 14.64097	  4.79033	 -0.25224	 19.59455	705.90503	 23.50	
  8.510	 78.780	 19.13441	 10.68754	  8.11544	 14.51890	  4.85142	 -0.24110	 19.57839	705.88000	 23.50	
  8.492	 67.425	 19.11871	 11.67174	  7.15978	 14.17831	  5.09708	 -0.22033	 19.57216	705.88800	 23.50	
  8.487	 56.277	 19.10611	 12.57920	  6.31703	 13.67445	  5.50589	 -0.21971	 19.58539	706.00897	 23.50	
  8.495	 44.961	 19.10434	 13.40669	  5.57684	 12.99739	  6.07663	 -0.22460	 19.60505	705.91400	 23.60	
  8.494	 33.806	 19.04952	 14.02884	  4.98537	 12.14225	  6.77752	 -0.19879	 19.56705	705.86499	 23.60	
  8.502	 22.507	 19.03913	 14.51875	  4.55368	 11.21662	  7.60246	 -0.21393	 19.58107	705.88000	 23.60	
  8.491	 11.296	 19.02775	 14.81062	  4.30482	 10.22932	  8.54037	 -0.21799	 19.58135	705.93903	 23.50	
  8.500	  0.000	 19.03322	 14.91753	  4.22057	  9.19847	  9.55836	 -0.21013	 19.61093	705.82098	 23.60	
  8.491	-11.296	 18.97626	 14.76163	  4.30998	  8.18476	 10.55116	 -0.19423	 19.56022	705.92798	 23.60	
  8.502	-22.507	 18.97061	 14.43916	  4.55749	  7.25591	 11.53546	 -0.18165	 19.56498	705.91400	 23.50	
  8.494	-33.806	 18.98694	 13.92219	  5.00941	  6.41388	 12.48247	 -0.20105	 19.59274	705.80402	 23.60	
  8.495	-44.961	 18.95698	 13.22046	  5.58234	  5.67667	 13.29906	 -0.24870	 19.57880	705.96899	 23.50	
  8.487	-56.277	 18.97386	 12.39131	  6.33568	  5.12475	 13.97634	 -0.28036	 19.58968	705.78302	 23.50	
  8.492	-67.425	 18.94508	 11.45644	  7.16810	  4.69046	 14.46337	 -0.30268	 19.55516	705.80103	 23.50	
  8.510	-78.780	 18.95879	 10.45906	  8.11912	  4.42288	 14.79786	 -0.31824	 19.56578	705.88202	 23.50	
  8.500	-90.000	 18.98908	  9.45185	  9.14642	  4.34529	 14.92211	 -0.30599	 19.58120	705.83099	 23.50	
  8.510	-101.220	 18.98936	  8.45338	 10.17246	  4.42285	 14.82840	 -0.30424	 19.57880	705.91302	 23.50	
  8.492	-112.575	 19.00208	  7.52005	 11.17946	  4.68980	 14.50868	 -0.25876	 19.57183	705.90802	 23.60	
  8.487	-123.723	 19.01224	  6.69937	 12.11335	  5.11522	 14.01739	 -0.22497	 19.57108	705.91101	 23.50	
  8.495	-135.039	 19.03309	  5.99114	 12.95671	  5.69215	 13.36823	 -0.20684	 19.58855	705.83398	 23.60	
  8.494	-146.194	 19.04881	  5.46072	 13.64177	  6.43164	 12.53674	 -0.19803	 19.57672	705.86603	 23.50	
  8.502	-157.493	 19.09094	  5.09455	 14.17655	  7.30778	 11.61427	 -0.17699	 19.60065	705.89600	 23.50	
  8.491	-168.704	 19.10952	  4.91541	 14.48972	  8.24366	 10.63149	 -0.17730	 19.59000	705.86902	 23.50	
  8.500	180.000	 19.09780	  4.86174	 14.57682	  9.23031	  9.59938	 -0.17788	 19.56674	705.85999	 23.50	
 10.200	180.000	 18.82107	  3.70030	 15.40999	  8.95297	  9.31987	 -0.33156	 19.59302	705.93597	 23.50	
 10.191	-170.497	 18.81231	  3.71446	 15.33845	  7.94170	 10.35509	 -0.34011	 19.61276	705.85400	 23.50	
 10.210	-161.034	 18.77311	  3.87108	 15.06013	  6.96864	 11.35121	 -0.32361	 19.58937	705.90399	 23.50	
 10.194	-151.526	 18.74995	  4.19401	 14.59989	  6.07226	 12.33340	 -0.33267	 19.58938	705.77502	 23.50	
 10.190	-142.105	 18.73030	  4.63105	 13.99607	  5.26706	 13.23037	 -0.32958	 19.59296	705.96997	 23.50	
 10.215	-132.646	 18.72513	  5.19763	 13.26863	  4.57996	 14.02479	 -0.33900	 19.61021	705.99298	 23.50	
 10.203	-123.092	 18.67526	  5.89551	 12.36892	  4.01097	 14.65216	 -0.36438	 19.56877	705.80298	 23.50	
 10.192	-113.678	 18.65182	  6.73470	 11.40997	  3.58076	 15.14843	 -0.40567	 19.56607	705.90503	 23.50	
 10.208	-104.249	 18.63242	  7.63133	 10.40774	  3.28251	 15.50157	 -0.44978	 19.56241	705.93903	 23.50	
 10.210	-94.801	 18.61765	  8.59917	  9.37465	  3.12978	 15.67107	 -0.48973	 19.55850	705.89600	 23.50	
 10.210	-85.199	 18.62175	  9.64083	  8.33047	  3.13146	 15.68369	 -0.49539	 19.57194	705.89899	 23.50	
 10.208	-75.751	 18.60864	 10.65544	  7.32424	  3.26997	 15.49922	 -0.49282	 19.57295	705.83801	 23.50	
 10.192	-66.322	 18.60028	 11.64238	  6.39364	  3.56589	 15.12911	 -0.47996	 19.55898	705.87402	 23.50	
 10.203	-56.908	 18.61790	 12.59761	  5.54722	  3.98722	 14.62605	 -0.45405	 19.58474	705.85699	 23.50	
 10.215	-47.354	 18.61666	 13.48060	  4.77782	  4.55536	 13.95375	 -0.42046	 19.58318	705.84100	 23.50	
 10.190	-37.895	 18.59977	 14.19376	  4.16266	  5.22764	 13.14944	 -0.37463	 19.56059	705.81201	 23.50	
 10.194	-28.474	 18.60679	 14.80418	  3.66525	  6.01848	 12.25733	 -0.33150	 19.55618	705.82001	 23.50	
 10.210	-18.966	 18.64107	 15.30255	  3.27449	  6.91683	 11.28834	 -0.32301	 19.58001	705.95502	 23.50	
 10.191	 -9.503	 18.65465	 15.57482	  3.07618	  7.87316	 10.27578	 -0.33445	 19.58164	705.93903	 23.50	
 10.200	  0.000	 18.66978	 15.68464	  2.99329	  8.88285	  9.24435	 -0.35830	 19.57929	705.82599	 23.50	
 10.191	  9.503	 18.68157	 15.61331	  3.05841	  9.92709	  8.22050	 -0.37520	 19.57387	705.89001	 23.50	
 10.210	 18.966	 18.70655	 15.38837	  3.25117	 10.94718	  7.27098	 -0.36778	 19.58088	705.85199	 23.50	
 10.194	 28.474	 18.73819	 14.96876	  3.62420	 11.93300	  6.39168	 -0.35885	 19.58668	705.82703	 23.50	
 10.190	 37.895	 18.74449	 14.38433	  4.12416	 12.83371	  5.60591	 -0.37534	 19.56871	705.87402	 23.50	
 10.215	 47.354	 18.79619	 13.70215	  4.74441	 13.66801	  4.92194	 -0.38183	 19.60393	705.85901	 23.50	
 10.203	 56.908	 18.78454	 12.83982	  5.50000	 14.32426	  4.37033	 -0.36639	 19.56401	705.90503	 23.50	
 10.192	 66.322	 18.82038	 11.91997	  6.36740	 14.85359	  3.97743	 -0.36941	 19.58132	705.97498	 23.50	
 10.208	 75.751	 18.81407	 10.93306	  7.28560	 15.21666	  3.69222	 -0.39499	 19.56203	706.05402	 23.50	
 10.210	 85.199	 18.85308	  9.93023	  8.29343	 15.42548	  3.57610	 -0.42678	 19.58268	705.83502	 23.50	
 10.210	 94.801	 18.83858	  8.88452	  9.34299	 15.40277	  3.57337	 -0.43778	 19.55910	705.87402	 23.50	
 10.208	104.249	 18.88146	  7.91821	 10.40061	 15.24829	  3.72302	 -0.42501	 19.58452	705.91101	 23.50	
 10.192	113.678	 18.84845	  6.98682	 11.39269	 14.86163	  4.01834	 -0.39649	 19.55663	705.86798	 23.50	
 10.203	123.092	 18.88372	  6.14961	 12.37210	 14.38520	  4.43698	 -0.36800	 19.58846	705.92102	 23.50	
 10.215	132.646	 18.84303	  5.40732	 13.22117	 13.69628	  4.97814	 -0.34702	 19.55819	705.72803	 23.50	
 10.190	142.105	 18.83232	  4.82562	 13.96646	 12.88267	  5.66526	 -0.31683	 19.55564	705.82703	 23.50	
 10.194	151.526	 18.84062	  4.38223	 14.57697	 11.98679	  6.46072	 -0.29425	 19.56382	705.77899	 23.50	
 10.210	161.034	 18.83111	  4.01719	 15.03452	 11.01402	  7.33940	 -0.27612	 19.57761	705.91602	 23.50	
 10.191	170.497	 18.83727	  3.79712	 15.31318	 10.00854	  8.29844	 -0.29867	 19.58757	705.96997	 23.50	
 11.899	171.783	 18.46687	  2.57396	 16.07674	  9.68086	  7.96725	 -0.45940	 19.59530	705.91400	 23.50	
 11.890	163.610	 18.45177	  2.76732	 15.82618	 10.68941	  6.99158	 -0.42737	 19.57039	705.91901	 23.50	
 11.889	155.445	 18.48524	  3.09107	 15.45171	 11.70411	  6.09394	 -0.42339	 19.58706	705.87201	 23.50	
 11.909	147.299	 18.48488	  3.49337	 14.92200	 12.65968	  5.23359	 -0.45281	 19.58032	706.01703	 23.50	
 11.902	139.148	 18.49898	  4.00375	 14.25185	 13.53144	  4.48690	 -0.47800	 19.58031	705.99799	 23.50	
 11.894	130.867	 18.49271	  4.64761	 13.44190	 14.30138	  3.86286	 -0.50047	 19.56822	705.92700	 23.50	
 11.897	122.732	 18.51615	  5.37299	 12.57501	 14.96859	  3.32516	 -0.54431	 19.58609	705.84900	 23.50	
 11.903	114.597	 18.52491	  6.19280	 11.61147	 15.51285	  2.88810	 -0.58325	 19.59544	705.98999	 23.50	
 11.893	106.346	 18.48330	  7.10530	 10.55469	 15.86256	  2.58734	 -0.61523	 19.55812	706.00598	 23.50	
 11.892	 98.155	 18.51692	  8.08882	  9.53350	 16.12292	  2.42470	 -0.61372	 19.59589	706.00299	 23.50	
 11.900	 90.000	 18.47688	  9.08170	  8.47918	 16.17774	  2.35673	 -0.61921	 19.56349	705.90503	 23.50	
 11.892	 81.845	 18.47097	 10.10499	  7.46011	 16.09410	  2.43837	 -0.58514	 19.57691	705.97998	 23.50	
 11.893	 73.654	 18.44084	 11.10735	  6.47133	 15.82879	  2.60005	 -0.54806	 19.55192	705.88000	 23.50	
 11.903	 65.403	 18.43885	 12.11295	  5.54030	 15.45395	  2.87192	 -0.52444	 19.57131	705.90002	 23.50	
 11.897	 57.268	 18.39447	 13.03508	  4.68526	 14.89136	  3.26408	 -0.52558	 19.55511	705.78900	 23.50	
 11.894	 49.133	 18.40612	 13.90026	  3.94162	 14.23855	  3.81044	 -0.53273	 19.58825	705.75598	 23.50	
 11.902	 40.852	 18.36846	 14.65222	  3.27194	 13.45426	  4.43574	 -0.53689	 19.57384	705.89697	 23.50	
 11.909	 32.701	 18.34380	 15.28609	  2.72790	 12.58290	  5.16784	 -0.52636	 19.57554	705.80103	 23.50	
 11.889	 24.555	 18.34300	 15.79082	  2.31623	 11.62866	  6.01704	 -0.52609	 19.59169	705.98297	 23.50	
 11.890	 16.390	 18.30878	 16.13785	  2.03156	 10.62119	  6.92255	 -0.53549	 19.57762	705.96997	 23.50	
 11.899	  8.217	 18.27116	 16.32929	  1.86682	  9.58963	  7.86842	 -0.52462	 19.56464	705.96997	 23.50	
 11.900	  0.000	 18.25949	 16.39603	  1.81039	  8.54449	  8.89636	 -0.50114	 19.57404	705.88800	 23.50	
 11.899	 -8.217	 18.28136	 16.32570	  1.88654	  7.53756	  9.94682	 -0.48961	 19.60904	705.81799	 23.50	
 11.890	-16.390	 18.23369	 16.04654	  2.06403	  6.56382	 10.94368	 -0.47158	 19.57070	705.83502	 23.50	
 11.889	-24.555	 18.22151	 15.65436	  2.35284	  5.64445	 11.96194	 -0.46893	 19.58311	705.86200	 23.50	
 11.909	-32.701	 18.17170	 15.08315	  2.76235	  4.79489	 12.86996	 -0.49113	 19.53971	706.00000	 23.50	
 11.902	-40.852	 18.19423	 14.42875	  3.32567	  4.07702	 13.74111	 -0.52409	 19.56276	705.85999	 23.50	
 11.894	-49.133	 18.19891	 13.64593	  3.99013	  3.42343	 14.52569	 -0.56883	 19.57849	705.88800	 23.50	
 11.897	-57.268	 18.19158	 12.76575	  4.73403	  2.88002	 15.18208	 -0.60578	 19.57421	705.93103	 23.50	
 11.903	-65.403	 18.18656	 11.81540	  5.56976	  2.45816	 15.70160	 -0.62788	 19.56351	706.04498	 23.50	
 11.893	-73.654	 18.22079	 10.82409	  6.52315	  2.19177	 16.09815	 -0.63747	 19.59384	705.88300	 23.50	
 11.892	-81.845	 18.23357	  9.80000	  7.51090	  2.01746	 16.32413	 -0.64516	 19.58207	705.76501	 23.50	
 11.900	-90.000	 18.22387	  8.76125	  8.52476	  1.94659	 16.39418	 -0.64994	 19.56991	705.79602	 23.50	
 11.892	-98.155	 18.22373	  7.75708	  9.56201	  2.00410	 16.32102	 -0.64615	 19.56693	705.94702	 23.50	
 11.893	-106.346	 18.28574	  6.81529	 10.62633	  2.18922	 16.14282	 -0.60846	 19.61002	705.81702	 23.50	
 11.903	-114.597	 18.28283	  5.89407	 11.63832	  2.47408	 15.77231	 -0.55515	 19.60481	705.78998	 23.50	
 11.897	-122.732	 18.27249	  5.09145	 12.56670	  2.89760	 15.22783	 -0.50935	 19.56750	705.91602	 23.50	
 11.894	-130.867	 18.26387	  4.38561	 13.42774	  3.44281	 14.56784	 -0.47252	 19.54402	705.68298	 23.50	
 11.902	-139.148	 18.28270	  3.76297	 14.21680	  4.10467	 13.78382	 -0.47577	 19.54678	705.77301	 23.50	
 11.909	-147.299	 18.34994	  3.27383	 14.91288	  4.85962	 12.96834	 -0.47796	 19.59241	705.86603	 23.50	
 11.889	-155.445	 18.36196	  2.89481	 15.43455	  5.71127	 12.01848	 -0.48573	 19.57610	705.70001	 23.50	
 11.890	-163.610	 18.40140	  2.62955	 15.83571	  6.64364	 11.02264	 -0.49958	 19.58783	705.80402	 23.50	
 11.899	-171.783	 18.42764	  2.48749	 16.07497	  7.61239	 10.01028	 -0.50574	 19.59642	705.86902	 23.50	
 11.900	180.000	 18.42567	  2.47130	 16.13533	  8.61650	  8.97541	 -0.49623	 19.56556	705.92401	 23.50	
 13.600	180.000	 17.98047	  1.26576	 16.80541	  8.24995	  8.60325	 -0.65373	 19.56955	705.94702	 23.50	
 13.608	-172.853	 17.96818	  1.24391	 16.76281	  7.25604	  9.60989	 -0.66768	 19.58641	705.88501	 23.50	
 13.611	-165.583	 17.92821	  1.35482	 16.53448	  6.25753	 10.62698	 -0.66306	 19.56569	705.88800	 23.50	
 13.601	-158.353	 17.91387	  1.59680	 16.19563	  5.31709	 11.65509	 -0.63976	 19.57601	705.90503	 23.50	
 13.609	-151.210	 17.88422	  1.92208	 15.72627	  4.45735	 12.61178	 -0.63186	 19.57520	705.68500	 23.50	
 13.611	-143.999	 17.85056	  2.36019	 15.11600	  3.66011	 13.50262	 -0.61365	 19.56409	705.78900	 23.50	
 13.601	-136.825	 17.82530	  2.89289	 14.40698	  2.94010	 14.34543	 -0.58967	 19.56807	705.71301	 23.50	
 13.596	-129.640	 17.80708	  3.54290	 13.60252	  2.31907	 15.08750	 -0.60228	 19.56375	705.83801	 23.50	
 13.611	-122.431	 17.77779	  4.23741	 12.70804	  1.79298	 15.72225	 -0.62695	 19.55155	705.70300	 23.50	
 13.604	-115.211	 17.79438	  5.03760	 11.76651	  1.38974	 16.25235	 -0.66936	 19.57125	705.82001	 23.50	
 13.595	-108.042	 17.79419	  5.91951	 10.76858	  1.08722	 16.65085	 -0.72305	 19.58663	705.79498	 23.50	
 13.607	-100.793	 17.76982	  6.85223	  9.71716	  0.86534	 16.91719	 -0.74681	 19.57991	705.81201	 23.50	
 13.601	-93.617	 17.73287	  7.82459	  8.66294	  0.76176	 17.01687	 -0.74384	 19.55050	705.86798	 23.50	
 13.601	-86.383	 17.76660	  8.86906	  7.64131	  0.75887	 17.05643	 -0.72182	 19.60240	705.84100	 23.50	
 13.607	-79.207	 17.74492	  9.89241	  6.62852	  0.86102	 16.92138	 -0.71056	 19.59366	705.75000	 23.50	
 13.595	-71.958	 17.71443	 10.90614	  5.65042	  1.06772	 16.61725	 -0.70497	 19.55802	705.82599	 23.50	
 13.604	-64.789	 17.70495	 11.90542	  4.74012	  1.36718	 16.21640	 -0.70115	 19.56064	705.75098	 23.50	
 13.611	-57.569	 17.71811	 12.88295	  3.90018	  1.74950	 15.71526	 -0.69136	 19.58908	705.85400	 23.50	
 13.596	-50.360	 17.67787	 13.74051	  3.14250	  2.26671	 15.04040	 -0.66909	 19.54666	705.85199	 23.50	
 13.601	-43.175	 17.73697	 14.59119	  2.48871	  2.88626	 14.33517	 -0.63953	 19.59413	705.73297	 23.50	
 13.611	-36.001	 17.72249	 15.29619	  1.90841	  3.58583	 13.48120	 -0.61324	 19.58260	705.80103	 23.50	
 13.609	-28.790	 17.72336	 15.88795	  1.43650	  4.36198	 12.56338	 -0.58026	 19.57033	705.90399	 23.50	
 13.601	-21.647	 17.75747	 16.38528	  1.07936	  5.22466	 11.60421	 -0.57259	 19.59346	705.83502	 23.50	
 13.611	-14.417	 17.75831	 16.74102	  0.83840	  6.15988	 10.56826	 -0.57522	 19.56890	705.80603	 23.50	
 13.608	 -7.147	 17.78586	 16.96295	  0.67343	  7.14995	  9.53806	 -0.59400	 19.58145	705.70203	 23.50	
 13.600	  0.000	 17.81678	 17.06276	  0.61286	  8.16619	  8.53182	 -0.61183	 19.59703	705.73602	 23.50	
 13.608	  7.147	 17.85195	 17.04235	  0.64757	  9.21100	  7.51658	 -0.63821	 19.61002	705.65698	 23.50	
 13.611	 14.417	 17.82593	 16.82420	  0.77919	 10.22156	  6.52385	 -0.64976	 19.57684	705.72400	 23.50	
 13.601	 21.647	 17.86586	 16.52486	  1.03289	 11.25296	  5.60177	 -0.65912	 19.58880	705.77301	 23.50	
 13.609	 28.790	 17.88802	 16.09253	  1.38727	 12.25376	  4.73606	 -0.67249	 19.59415	705.75897	 23.50	
 13.611	 36.001	 17.92696	 15.53474	  1.84763	 13.18342	  3.95841	 -0.67361	 19.60878	705.69098	 23.50	
 13.601	 43.175	 17.93022	 14.83614	  2.42092	 14.00501	  3.27441	 -0.66915	 19.57723	705.74799	 23.50	
 13.596	 50.360	 17.94508	 14.05535	  3.09073	 14.77827	  2.66286	 -0.65593	 19.57457	705.80402	 23.50	
 13.611	 57.569	 17.96750	 13.19652	  3.83549	 15.46000	  2.12596	 -0.64181	 19.58391	705.75098	 23.50	
 13.604	 64.789	 18.01443	 12.27361	  4.67992	 16.02175	  1.72988	 -0.65976	 19.61260	705.71002	 23.50	
 13.595	 71.958	 18.01525	 11.27966	  5.58450	 16.41092	  1.46219	 -0.68618	 19.59413	705.84100	 23.50	
 13.607	 79.207	 18.00940	 10.25192	  6.54193	 16.68114	  1.25459	 -0.73208	 19.55657	705.76398	 23.50	
 13.601	 86.383	 18.06656	  9.25556	  7.57476	 16.85155	  1.18994	 -0.77005	 19.60081	705.81799	 23.50	
 13.601	 93.617	 18.07364	  8.22408	  8.62195	 16.85107	  1.18476	 -0.79209	 19.59151	705.78101	 23.50	
 13.607	100.793	 18.09436	  7.23796	  9.67493	 16.73091	  1.27710	 -0.78880	 19.60256	705.79498	 23.50	
 13.595	108.042	 18.08487	  6.27699	 10.71358	 16.45213	  1.48393	 -0.76821	 19.59067	705.95203	 23.50	
 13.604	115.211	 18.07985	  5.37953	 11.72759	 16.05106	  1.78427	 -0.73583	 19.58227	705.86200	 23.50	
 13.611	122.431	 18.09937	  4.58381	 12.70916	 15.53482	  2.19039	 -0.68823	 19.61319	705.86603	 23.50	
 13.596	129.640	 18.10666	  3.83784	 13.62204	 14.87736	  2.73121	 -0.64819	 19.60244	705.73602	 23.50	
 13.601	136.825	 18.07464	  3.16819	 14.41798	 14.09698	  3.33812	 -0.61501	 19.58009	705.81201	 23.50	
 13.611	143.999	 18.06417	  2.59159	 15.13376	 13.26201	  4.03270	 -0.58532	 19.59328	705.83502	 23.40	
 13.609	151.210	 18.06387	  2.11883	 15.74749	 12.35538	  4.83097	 -0.57365	 19.59832	705.80103	 23.40	
 13.601	158.353	 18.07466	  1.76331	 16.23433	 11.37760	  5.70547	 -0.56811	 19.61393	705.84497	 23.40	
 13.611	165.583	 18.05741	  1.51021	 16.57907	 10.34795	  6.62777	 -0.57516	 19.61430	705.84302	 23.40	
 13.608	172.853	 18.02655	  1.32831	 16.76844	  9.30233	  7.60147	 -0.62004	 19.58936	705.95001	 23.40	
 15.298	173.587	 17.51932	  0.08203	 17.37053	  8.88130	  7.17532	 -0.75410	 19.58880	705.75897	 23.40	
 15.291	167.167	 17.51826	  0.22579	 17.18030	  9.90700	  6.20492	 -0.71749	 19.57842	705.78601	 23.40	
 15.307	160.676	 17.56163	  0.45419	 16.91010	 10.95710	  5.26720	 -0.70277	 19.60704	705.81201	 23.40	
 15.300	154.261	 17.56474	  0.78308	 16.46902	 11.95879	  4.38106	 -0.69911	 19.59595	705.77502	 23.40	
 15.288	147.854	 17.58484	  1.20152	 15.93962	 12.90981	  3.58310	 -0.70718	 19.60454	705.80902	 23.40	
 15.293	141.428	 17.57134	  1.71847	 15.27090	 13.78525	  2.84136	 -0.72249	 19.58856	705.77502	 23.40	
 15.299	134.985	 17.58056	  2.31174	 14.52564	 14.61306	  2.16391	 -0.74836	 19.58780	705.79797	 23.40	
 15.305	128.583	 17.55513	  2.98680	 13.66799	 15.33334	  1.57212	 -0.78072	 19.56141	705.88300	 23.40	
 15.309	122.142	 17.58181	  3.73934	 12.77000	 15.98805	  1.08046	 -0.82046	 19.57770	705.82098	 23.40	
 15.304	115.711	 17.58393	  4.54419	 11.80259	 16.51079	  0.69047	 -0.84901	 19.57425	705.83099	 23.40	
 15.297	109.291	 17.60702	  5.40799	 10.80760	 16.94075	  0.38102	 -0.86918	 19.60254	705.74799	 23.40	
 15.293	102.897	 17.58686	  6.33452	  9.76112	 17.22880	  0.15800	 -0.89058	 19.58405	705.77899	 23.40	
 15.293	 96.458	 17.56471	  7.30186	  8.70233	 17.39293	  0.01675	 -0.90238	 19.56948	705.73102	 23.40	
 15.300	 90.000	 17.56847	  8.32051	  7.66988	 17.46680	 -0.03405	 -0.90339	 19.59421	705.70300	 23.40	
 15.293	 83.542	 17.55982	  9.35504	  6.63487	 17.40296	  0.00576	 -0.89610	 19.60400	705.75800	 23.40	
 15.293	 77.103	 17.54714	 10.37934	  5.64614	 17.20916	  0.14146	 -0.84919	 19.59733	705.73297	 23.40	
 15.297	 70.709	 17.53498	 11.38114	  4.70753	 16.89745	  0.34536	 -0.80819	 19.60238	705.78900	 23.40	
 15.304	 64.289	 17.49042	 12.35177	  3.81011	 16.45029	  0.64641	 -0.77550	 19.57926	705.77197	 23.40	
 15.309	 57.858	 17.45124	 13.27911	  2.97473	 15.90549	  1.01692	 -0.77052	 19.57393	705.82001	 23.40	
 15.305	 51.417	 17.44933	 14.16036	  2.23428	 15.26833	  1.51168	 -0.77293	 19.60342	705.85699	 23.40	
 15.299	 45.015	 17.43848	 14.96186	  1.57181	 14.52519	  2.09377	 -0.78490	 19.60294	705.89600	 23.40	
 15.293	 38.572	 17.41281	 15.67807	  0.99534	 13.67895	  2.77015	 -0.77822	 19.60205	705.73901	 23.40	
 15.288	 32.146	 17.39069	 16.28584	  0.50538	 12.77862	  3.50924	 -0.76047	 19.60402	705.82098	 23.40	
 15.300	 25.739	 17.35763	 16.77786	  0.09382	 11.82714	  4.29871	 -0.74340	 19.59924	705.88300	 23.40	
 15.307	 19.324	 17.33065	 17.17464	 -0.22535	 10.81748	  5.17037	 -0.71945	 19.58559	705.81702	 23.40	
 15.291	 12.833	 17.31835	 17.45474	 -0.42644	  9.79358	  6.11628	 -0.70971	 19.59879	705.67999	 23.40	
 15.298	  6.413	 17.28707	 17.59420	 -0.54629	  8.75904	  7.07737	 -0.68069	 19.58862	705.72803	 23.40	
 15.300	  0.000	 17.26441	 17.62581	 -0.58642	  7.72406	  8.08938	 -0.66151	 19.57671	705.67499	 23.40	
 15.298	 -6.413	 17.24789	 17.55791	 -0.53544	  6.71459	  9.10939	 -0.64497	 19.58074	705.82001	 23.40	
 15.291	-12.833	 17.22770	 17.34941	 -0.39714	  5.74140	 10.13075	 -0.63041	 19.57758	705.94702	 23.40	
 15.307	-19.324	 17.23024	 17.05084	 -0.16879	  4.79292	 11.18254	 -0.62540	 19.60834	705.90503	 23.40	
 15.300	-25.739	 17.21446	 16.61463	  0.15218	  3.92902	 12.16373	 -0.63875	 19.60198	705.91602	 23.40	
 15.288	-32.146	 17.20978	 16.07172	  0.56278	  3.13034	 13.10119	 -0.65609	 19.60421	705.86798	 23.40	
 15.293	-38.572	 17.19515	 15.41466	  1.05447	  2.38093	 13.99575	 -0.66420	 19.59556	705.76398	 23.40	
 15.299	-45.015	 17.18287	 14.67544	  1.63434	  1.70779	 14.81933	 -0.68357	 19.60810	705.78601	 23.40	
 15.305	-51.417	 17.16160	 13.83561	  2.30629	  1.14732	 15.52193	 -0.70058	 19.58652	705.79303	 23.40	
 15.309	-57.858	 17.16491	 12.94023	  3.05509	  0.66239	 16.14811	 -0.70693	 19.58545	705.83502	 23.40	
 15.304	-64.289	 17.17504	 11.98488	  3.87424	  0.27099	 16.67817	 -0.68500	 19.58629	705.74103	 23.40	
 15.297	-70.709	 17.17714	 10.98027	  4.76750	 -0.02581	 17.08747	 -0.67327	 19.58274	705.96399	 23.40	
 15.293	-77.103	 17.17576	  9.96284	  5.69860	 -0.24272	 17.37462	 -0.67270	 19.56699	705.83801	 23.40	
 15.293	-83.542	 17.19208	  8.92839	  6.69414	 -0.37863	 17.56374	 -0.69666	 19.57879	705.82898	 23.40	
 15.300	-90.000	 17.21139	  7.89295	  7.72394	 -0.43296	 17.64756	 -0.71709	 19.59380	705.92200	 23.40	
 15.293	-96.458	 17.22774	  6.88827	  8.76760	 -0.38306	 17.58629	 -0.75247	 19.58652	705.88800	 23.40	
 15.293	-102.897	 17.24595	  5.93398	  9.80973	 -0.24869	 17.41970	 -0.77008	 19.59992	705.66302	 23.40	
 15.297	-109.291	 17.23297	  5.02184	 10.81675	 -0.01289	 17.10674	 -0.77006	 19.56423	705.83698	 23.40	
 15.304	-115.711	 17.26657	  4.17949	 11.83965	  0.29608	 16.71723	 -0.75250	 19.58934	705.78900	 23.40	
 15.309	-122.142	 17.26761	  3.38659	 12.78922	  0.70726	 16.17850	 -0.71757	 19.56785	705.74799	 23.40	
 15.305	-128.583	 17.30221	  2.67948	 13.70025	  1.20599	 15.57087	 -0.70020	 19.59443	705.80298	 23.40	
 15.299	-134.985	 17.30133	  2.03251	 14.50786	  1.77456	 14.84127	 -0.69889	 19.56770	705.70001	 23.40	
 15.293	-141.428	 17.33111	  1.46527	 15.24843	  2.45698	 14.02164	 -0.71506	 19.57926	705.71997	 23.40	
 15.288	-147.854	 17.36306	  0.99912	 15.90476	  3.21666	 13.13845	 -0.73503	 19.58467	705.72498	 23.40	
 15.300	-154.261	 17.38083	  0.62209	 16.43880	  4.02163	 12.21198	 -0.75420	 19.57885	705.77197	 23.40	
 15.307	-160.676	 17.40989	  0.33986	 16.87343	  4.89464	 11.24099	 -0.77050	 19.57618	705.87701	 23.40	
 15.291	-167.167	 17.45985	  0.15644	 17.18837	  5.86893	 10.22841	 -0.78663	 19.60271	706.03998	 23.40	
 15.298	-173.587	 17.47603	  0.04344	 17.36847	  6.83946	  9.20794	 -0.79428	 19.59750	705.80902	 23.40	
 15.300	180.000	 17.47253	  0.01895	 17.40890	  7.83012	  8.18381	 -0.78119	 19.56097	705.82898	 23.40	
 17.000	180.000	 16.91292	 -1.13161	 17.96209	  7.37546	  7.70973	 -0.86766	 19.58241	705.90698	 23.40	
 16.990	-174.179	 16.89568	 -1.11694	 17.91184	  6.37686	  8.71634	 -0.87328	 19.59149	705.93903	 23.40	
 17.009	-168.383	 16.84804	 -1.03686	 17.73898	  5.39405	  9.71150	 -0.86275	 19.56948	705.93597	 23.40	
 17.000	-162.596	 16.82578	 -0.86335	 17.45743	  4.45901	 10.73320	 -0.84365	 19.57528	705.75000	 23.40	
 16.990	-156.759	 16.81488	 -0.61114	 17.08817	  3.58350	 11.73419	 -0.83787	 19.59042	705.85999	 23.40	
 16.995	-150.919	 16.78605	 -0.27809	 16.58616	  2.74894	 12.69073	 -0.82144	 19.58747	705.80902	 23.40	
 16.988	-145.161	 16.76047	  0.12843	 15.98706	  1.97913	 13.59731	 -0.80285	 19.57238	705.67102	 23.40	
 17.014	-139.343	 16.72784	  0.59628	 15.31731	  1.26288	 14.45647	 -0.79232	 19.58330	705.71002	 23.40	
 17.007	-133.546	 16.70673	  1.15474	 14.54846	  0.65300	 15.23440	 -0.78330	 19.57884	705.79303	 23.40	
 17.001	-127.699	 16.69703	  1.78896	 13.71572	  0.10442	 15.95052	 -0.77535	 19.58320	705.82898	 23.40	
 17.006	-121.937	 16.67812	  2.48763	 12.81703	 -0.37679	 16.56451	 -0.78221	 19.58358	705.74200	 23.40	
 17.002	-116.134	 16.64118	  3.26149	 11.84262	 -0.76995	 17.07292	 -0.78828	 19.55628	705.65198	 23.40	
 17.001	-110.310	 16.62681	  4.08199	 10.84743	 -1.09988	 17.49813	 -0.78324	 19.55936	705.82098	 23.40	
 16.988	-104.517	 16.63573	  4.98290	  9.83707	 -1.31922	 17.81823	 -0.75425	 19.58528	705.87598	 23.40	
 17.008	-98.662	 16.59186	  5.91506	  8.78449	 -1.48180	 17.99695	 -0.72640	 19.55360	705.70599	 23.40	
 16.996	-92.909	 16.61636	  6.89637	  7.78011	 -1.54918	 18.12843	 -0.68705	 19.58653	705.73102	 23.40	
 16.996	-87.091	 16.59367	  7.90576	  6.74951	 -1.55281	 18.12730	 -0.65169	 19.57845	705.70599	 23.40	
 17.012	-81.253	 16.57636	  8.93203	  5.73834	 -1.49303	 18.02122	 -0.61866	 19.58167	705.71698	 23.40	
 16.988	-75.483	 16.57236	  9.95301	  4.79195	 -1.33724	 17.81086	 -0.63291	 19.58887	705.70001	 23.40	
 17.001	-69.690	 16.54849	 10.96039	  3.86501	 -1.12464	 17.49191	 -0.62325	 19.58549	705.70599	 23.40	
 17.002	-63.866	 16.54851	 11.95440	  3.00292	 -0.82912	 17.06912	 -0.63503	 19.57919	705.68799	 23.40	
 17.006	-58.063	 16.53577	 12.90574	  2.19939	 -0.44146	 16.53416	 -0.63923	 19.57451	705.72498	 23.40	
 17.001	-52.301	 16.54662	 13.81768	  1.46865	  0.01711	 15.92740	 -0.66204	 19.59116	705.64001	 23.40	
 17.007	-46.454	 16.53917	 14.66694	  0.79335	  0.56569	 15.20584	 -0.67757	 19.57248	705.58698	 23.40	
 17.014	-40.657	 16.54955	 15.43145	  0.20044	  1.16210	 14.44674	 -0.68672	 19.58434	705.90503	 23.40	
 16.988	-34.839	 16.57742	 16.12320	 -0.30436	  1.86373	 13.58055	 -0.68273	 19.58450	705.85699	 23.40	
 16.995	-29.081	 16.56993	 16.69864	 -0.73879	  2.62656	 12.64592	 -0.67022	 19.56872	705.75897	 23.40	
 16.990	-23.241	 16.59564	 17.19933	 -1.09266	  3.44796	 11.68883	 -0.67050	 19.59015	705.81000	 23.40	
 17.000	-17.404	 16.59739	 17.58735	 -1.37899	  4.32147	 10.67360	 -0.65732	 19.56887	705.90002	 23.40	
 17.009	-11.617	 16.62786	 17.88742	 -1.57816	  5.25984	  9.66170	 -0.65764	 19.58976	705.87201	 23.40	
 16.990	 -5.821	 16.66391	 18.07009	 -1.68079	  6.24130	  8.65725	 -0.65534	 19.59060	705.92200	 23.40	
 17.000	  0.000	 16.67496	 18.14468	 -1.73140	  7.23765	  7.63374	 -0.67045	 19.60324	705.81000	 23.40	
 16.990	  5.821	 16.68013	 18.09481	 -1.70074	  8.27249	  6.61980	 -0.68751	 19.58042	705.71301	 23.40	
 17.009	 11.617	 16.69869	 17.97470	 -1.61013	  9.28512	  5.65251	 -0.70494	 19.59202	705.66901	 23.40	
 17.000	 17.404	 16.71480	 17.72344	 -1.42767	 10.29856	  4.73121	 -0.71813	 19.57565	705.81000	 23.40	
 16.990	 23.241	 16.71749	 17.35040	 -1.15207	 11.31009	  3.84271	 -0.75252	 19.55207	705.77197	 23.40	
 16.995	 29.081	 16.75722	 16.90269	 -0.80212	 12.29088	  3.02622	 -0.80099	 19.56877	705.64600	 23.40	
 16.988	 34.839	 16.78114	 16.35233	 -0.37593	 13.21395	  2.27602	 -0.83163	 19.57033	705.64398	 23.40	
 17.014	 40.657	 16.79308	 15.71591	  0.10808	 14.10658	  1.54412	 -0.86702	 19.57341	705.91101	 23.40	
 17.007	 46.454	 16.83933	 15.00252	  0.69998	 14.93273	  0.92843	 -0.88040	 19.59877	705.78601	 23.40	
 17.001	 52.301	 16.83508	 14.16075	  1.37192	 15.63321	  0.39402	 -0.87814	 19.55719	705.77197	 23.40	
 17.006	 58.063	 16.87893	 13.30125	  2.10111	 16.29403	 -0.06987	 -0.88842	 19.57968	705.78900	 23.40	
 17.002	 63.866	 16.88965	 12.36958	  2.89181	 16.83171	 -0.46389	 -0.89460	 19.56648	705.68298	 23.40	
 17.001	 69.690	 16.88285	 11.36506	  3.74630	 17.25962	 -0.77005	 -0.91987	 19.53129	705.79602	 23.40	
 16.988	 75.483	 16.94572	 10.39752	  4.68940	 17.64103	 -0.99584	 -0.94461	 19.58956	705.73901	 23.40	
 17.012	 81.253	 16.94001	  9.37959	  5.62988	 17.85777	 -1.15557	 -0.96680	 19.57396	705.75800	 23.40	
 16.996	 87.091	 16.94619	  8.35295	  6.64316	 17.95091	 -1.19967	 -0.96794	 19.55656	705.75500	 23.40	
 16.996	 92.909	 16.97057	  7.33890	  7.68547	 17.95975	 -1.19122	 -0.95841	 19.55976	705.73102	 23.40	
 17.008	 98.662	 16.99857	  6.36830	  8.72267	 17.88844	 -1.11613	 -0.93618	 19.57878	705.73401	 23.40	
 16.988	104.517	 16.98323	  5.40565	  9.75845	 17.63659	 -0.94927	 -0.91100	 19.54501	705.69397	 23.40	
 17.001	110.310	 16.99961	  4.51778	 10.80178	 17.33496	 -0.72160	 -0.91394	 19.56251	705.67700	 23.40	
 17.002	116.134	 16.99095	  3.66651	 11.80363	 16.88747	 -0.39978	 -0.90649	 19.54701	705.66302	 23.40	
 17.006	121.937	 17.00513	  2.87285	 12.76414	 16.37083	  0.00185	 -0.89954	 19.55779	705.69299	 23.40	
 17.001	127.699	 17.01786	  2.13351	 13.68437	 15.77013	  0.46581	 -0.89691	 19.58323	705.64899	 23.40	
 17.007	133.546	 16.99235	  1.43469	 14.52477	 15.04050	  1.00691	 -0.87251	 19.56087	705.83698	 23.40	
 17.014	139.343	 16.98392	  0.83040	 15.29980	 14.24177	  1.62045	 -0.85952	 19.56042	705.55902	 23.40	
 16.988	145.161	 16.99597	  0.33958	 15.99244	 13.36923	  2.34432	 -0.84751	 19.56920	705.60303	 23.40	
 16.995	150.919	 16.97859	 -0.10313	 16.57100	 12.44408	  3.09914	 -0.84356	 19.55516	705.58600	 23.40	
 16.990	156.759	 16.99163	 -0.46068	 17.09271	 11.49010	  3.92960	 -0.82731	 19.58603	705.61298	 23.40	
 17.000	162.596	 16.97785	 -0.74842	 17.48916	 10.46868	  4.81987	 -0.83354	 19.59539	705.62097	 23.40	
 17.009	168.383	 16.93486	 -0.95772	 17.74316	  9.42800	  5.73845	 -0.85725	 19.57073	705.65698	 23.40	
 16.990	174.179	 16.91307	 -1.08157	 17.88610	  8.40242	  6.69643	 -0.87595	 19.55215	705.64801	 23.40	
 18.709	174.675	 16.27158	 -2.18509	 18.35691	  7.89060	  6.17763	 -0.91926	 19.56014	705.64801	 23.40	
 18.703	169.441	 16.30342	 -2.07136	 18.22941	  8.89875	  5.24595	 -0.91353	 19.57717	705.78699	 23.40	
 18.691	164.085	 16.31996	 -1.88570	 17.97548	  9.93406	  4.32135	 -0.91586	 19.56149	705.71698	 23.40	
 18.706	158.818	 16.30501	 -1.65897	 17.60459	 10.93096	  3.42855	 -0.91382	 19.53605	705.70801	 23.40	
 18.695	153.537	 16.34043	 -1.35346	 17.18437	 11.91571	  2.61261	 -0.92589	 19.55988	705.69598	 23.40	
 18.704	148.255	 16.35604	 -0.97646	 16.65264	 12.86623	  1.83924	 -0.92260	 19.56567	705.78302	 23.40	
 18.698	142.952	 16.37805	 -0.52219	 16.01951	 13.79171	  1.11345	 -0.91923	 19.58202	705.80603	 23.40	
 18.699	137.625	 16.39105	  0.01105	 15.30014	 14.64561	  0.45807	 -0.93407	 19.58044	705.63800	 23.40	
 18.705	132.343	 16.39406	  0.59310	 14.50772	 15.40475	 -0.10744	 -0.93017	 19.57256	705.68298	 23.40	
 18.713	127.067	 16.38049	  1.23678	 13.64158	 16.10297	 -0.64051	 -0.92819	 19.56087	705.72699	 23.30	
 18.700	121.794	 16.39142	  1.96922	 12.73126	 16.73504	 -1.08551	 -0.91160	 19.58493	705.80902	 23.40	
 18.698	116.504	 16.38176	  2.76686	 11.75885	 17.25573	 -1.47691	 -0.88401	 19.56721	705.69598	 23.40	
 18.707	111.165	 16.37639	  3.61056	 10.74926	 17.68614	 -1.79497	 -0.86053	 19.56553	705.74103	 23.40	
 18.690	105.863	 16.39374	  4.49135	  9.74243	 18.03478	 -2.02444	 -0.85934	 19.58390	705.66199	 23.40	
 18.696	100.583	 16.38539	  5.40196	  8.70764	 18.27201	 -2.19565	 -0.87162	 19.58000	705.58600	 23.40	
 18.700	 95.309	 16.37588	  6.36305	  7.67832	 18.41366	 -2.29768	 -0.88171	 19.58558	705.66199	 23.40	
 18.700	 90.000	 16.33812	  7.34345	  6.64422	 18.42181	 -2.32336	 -0.91377	 19.55498	705.67999	 23.40	
 18.700	 84.691	 16.34896	  8.37014	  5.64279	 18.39590	 -2.30406	 -0.96111	 19.59142	705.54700	 23.40	
 18.696	 79.417	 16.29987	  9.35876	  4.67555	 18.20807	 -2.21504	 -0.97249	 19.54683	705.63397	 23.40	
 18.690	 74.137	 16.31386	 10.37585	  3.75341	 17.98207	 -2.05165	 -0.99142	 19.58320	705.62903	 23.40	
 18.707	 68.835	 16.26524	 11.35192	  2.83835	 17.62070	 -1.85223	 -0.98053	 19.56198	705.67102	 23.40	
 18.698	 63.496	 16.25991	 12.33621	  1.99836	 17.16794	 -1.54117	 -0.96512	 19.57490	705.59003	 23.40	
 18.700	 58.206	 16.21742	 13.24749	  1.22380	 16.60276	 -1.15945	 -0.95612	 19.55344	705.59900	 23.40	
 18.713	 52.933	 16.19177	 14.13641	  0.50088	 15.97136	 -0.71439	 -0.94502	 19.56145	705.59302	 23.40	
 18.705	 47.657	 16.19423	 14.96500	 -0.13226	 15.27608	 -0.18739	 -0.94003	 19.56727	705.50800	 23.30	
 18.699	 42.375	 16.15198	 15.69245	 -0.71874	 14.48127	  0.38036	 -0.90308	 19.56010	705.56702	 23.40	
 18.698	 37.048	 16.13914	 16.38171	 -1.23984	 13.62201	  1.04549	 -0.85915	 19.56629	705.48499	 23.40	
 18.704	 31.745	 16.12614	 16.99614	 -1.69117	 12.71068	  1.77065	 -0.80234	 19.58510	705.63000	 23.30	
 18.695	 26.463	 16.08870	 17.47584	 -2.04715	 11.74235	  2.54655	 -0.72967	 19.56307	705.52698	 23.40	
 18.706	 21.182	 16.05495	 17.86752	 -2.35701	 10.76647	  3.35014	 -0.68669	 19.54710	705.56097	 23.30	
 18.691	 15.915	 16.04410	 18.18198	 -2.57010	  9.76136	  4.23875	 -0.65909	 19.55900	705.49103	 23.30	
 18.703	 10.559	 16.02842	 18.41825	 -2.73530	  8.73850	  5.16951	 -0.64430	 19.56890	705.60303	 23.30	
 18.709	  5.325	 16.01717	 18.54397	 -2.82293	  7.74525	  6.10293	 -0.63737	 19.58321	705.50299	 23.30	
 18.700	  0.000	 15.98242	 18.54543	 -2.84683	  6.71647	  7.10080	 -0.62124	 19.56243	705.58398	 23.30	
 18.709	 -5.325	 15.97469	 18.49491	 -2.81026	  5.73031	  8.10667	 -0.61356	 19.57524	705.67499	 23.30	
 18.703	-10.559	 15.93451	 18.31708	 -2.70746	  4.77218	  9.09731	 -0.62096	 19.54822	705.62097	 23.30	
 18.691	-15.915	 15.94557	 18.07483	 -2.52267	  3.83558	 10.14368	 -0.62410	 19.57887	705.64099	 23.30	
 18.706	-21.182	 15.89780	 17.69956	 -2.28187	  2.96454	 11.12090	 -0.64758	 19.54986	705.73297	 23.30	
 18.695	-26.463	 15.91138	 17.28096	 -1.97482	  2.15655	 12.10766	 -0.64055	 19.57550	705.61499	 23.30	
 18.704	-31.745	 15.88112	 16.73312	 -1.60523	  1.36862	 13.04984	 -0.63634	 19.57636	705.63397	 23.30	
 18.698	-37.048	 15.86481	 16.08233	 -1.14466	  0.66826	 13.92966	 -0.63669	 19.55077	705.44299	 23.30	
 18.699	-42.375	 15.86074	 15.37292	 -0.61958	  0.03266	 14.76403	 -0.65097	 19.55864	705.55103	 23.30	
 18.705	-47.657	 15.86029	 14.59323	 -0.03471	 -0.55163	 15.54016	 -0.64857	 19.56763	705.61499	 23.30	
 18.713	-52.933	 15.85337	 13.74010	  0.61286	 -1.07329	 16.23545	 -0.64306	 19.56754	705.46503	 23.30	
 18.700	-58.206	 15.85686	 12.83114	  1.34216	 -1.50373	 16.84805	 -0.60354	 19.56689	705.54700	 23.30	
 18.698	-63.496	 15.85946	 11.88220	  2.12275	 -1.84344	 17.34851	 -0.58256	 19.55497	705.57599	 23.30	
 18.707	-68.835	 15.88916	 10.90838	  2.96568	 -2.14008	 17.80865	 -0.57543	 19.58512	705.62903	 23.30	
 18.690	-74.137	 15.89726	  9.89455	  3.86471	 -2.35129	 18.11601	 -0.56406	 19.55943	705.52002	 23.30	
 18.696	-79.417	 15.89727	  8.88023	  4.78718	 -2.52419	 18.34128	 -0.59609	 19.55092	705.50000	 23.30	
 18.700	-84.691	 15.91463	  7.87083	  5.75468	 -2.62641	 18.51188	 -0.59564	 19.57693	705.56799	 23.30	
 18.700	-90.000	 15.93521	  6.85853	  6.76271	 -2.65322	 18.55966	 -0.59672	 19.57753	705.49103	 23.30	
 18.700	-95.309	 15.93585	  5.87768	  7.77027	 -2.61882	 18.50697	 -0.62735	 19.56538	705.51398	 23.30	
 18.696	-100.583	 15.96967	  4.94735	  8.79770	 -2.51684	 18.38266	 -0.66750	 19.57473	705.42700	 23.30	
 18.690	-105.863	 15.95627	  4.03704	  9.80650	 -2.33632	 18.12622	 -0.71815	 19.54903	705.68500	 23.30	
 18.707	-111.165	 15.95695	  3.16401	 10.81555	 -2.11504	 17.79628	 -0.77778	 19.54431	705.64600	 23.30	
 18.698	-116.504	 16.00190	  2.36034	 11.82268	 -1.79395	 17.39393	 -0.82281	 19.57717	705.49597	 23.30	
 18.700	-121.794	 16.00518	  1.61343	 12.75794	 -1.42548	 16.87650	 -0.83347	 19.56690	705.59302	 23.30	
 18.713	-127.067	 16.00059	  0.92035	 13.64727	 -0.98241	 16.24962	 -0.83865	 19.54590	705.45801	 23.30	
 18.705	-132.343	 16.05140	  0.30409	 14.52243	 -0.46383	 15.58342	 -0.85036	 19.57894	705.53699	 23.30	
 18.699	-137.625	 16.08367	 -0.25141	 15.31528	  0.13974	 14.81453	 -0.86559	 19.58948	705.59497	 23.30	
 18.698	-142.952	 16.07175	 -0.73126	 15.97480	  0.78527	 13.95342	 -0.87665	 19.54092	705.55402	 23.30	
 18.704	-148.255	 16.10651	 -1.16326	 16.62821	  1.49176	 13.08817	 -0.87382	 19.57036	705.64398	 23.30	
 18.695	-153.537	 16.13017	 -1.50686	 17.16343	  2.29182	 12.14656	 -0.86041	 19.56433	705.58099	 23.30	
 18.706	-158.818	 16.16344	 -1.79945	 17.62837	  3.11610	 11.18655	 -0.85459	 19.58108	705.62598	 23.30	
 18.691	-164.085	 16.19311	 -2.00111	 17.96769	  3.99198	 10.20954	 -0.86242	 19.57855	705.59900	 23.30	
 18.703	-169.441	 16.20966	 -2.14640	 18.21477	  4.92916	  9.17482	 -0.87950	 19.56804	705.58398	 23.30	
 18.709	-174.675	 16.24396	 -2.22009	 18.37615	  5.87675	  8.18294	 -0.88603	 19.58642	705.56500	 23.30	
 18.700	180.000	 16.25020	 -2.22829	 18.39998	  6.86736	  7.18009	 -0.89983	 19.55856	705.50299	 23.30	
 20.400	180.000	 15.57837	 -3.24276	 18.79963	  6.34845	  6.64045	 -0.85301	 19.56630	705.54999	 23.30	
 20.401	-175.153	 15.54826	 -3.22976	 18.74546	  5.38495	  7.59993	 -0.82883	 19.55969	705.52802	 23.30	
 20.407	-170.264	 15.51536	 -3.17989	 18.62605	  4.42086	  8.59203	 -0.81662	 19.57336	705.55402	 23.30	
 20.410	-165.423	 15.52063	 -3.07657	 18.43034	  3.51342	  9.61446	 -0.80152	 19.60715	705.68597	 23.30	
 20.392	-160.496	 15.47106	 -2.89361	 18.07952	  2.63860	 10.59874	 -0.79536	 19.56821	705.57599	 23.30	
 20.401	-155.705	 15.44256	 -2.66624	 17.68209	  1.81645	 11.55311	 -0.81188	 19.57664	705.60303	 23.30	
 20.405	-150.835	 15.40825	 -2.38717	 17.18136	  1.01981	 12.52469	 -0.83510	 19.56168	705.56799	 23.30	
 20.397	-145.903	 15.38511	 -2.01610	 16.59192	  0.30035	 13.43939	 -0.84769	 19.55759	705.65198	 23.30	
 20.392	-141.062	 15.38209	 -1.58016	 15.95930	 -0.36347	 14.30669	 -0.85828	 19.57339	705.66803	 23.30	
 20.396	-136.227	 15.34031	 -1.08865	 15.21249	 -0.97929	 15.09227	 -0.86457	 19.54391	705.65698	 23.30	
 20.408	-131.372	 15.32094	 -0.56033	 14.43221	 -1.54390	 15.85380	 -0.84886	 19.56424	705.65698	 23.30	
 20.410	-126.511	 15.31802	  0.05939	 13.59381	 -2.02117	 16.51775	 -0.83605	 19.56986	705.73602	 23.30	
 20.400	-121.604	 15.28278	  0.73337	 12.65938	 -2.44469	 17.08869	 -0.80238	 19.54055	705.65399	 23.30	
 20.403	-116.741	 15.28239	  1.46116	 11.73379	 -2.81043	 17.63397	 -0.78007	 19.56760	705.56702	 23.30	
 20.413	-111.900	 15.24361	  2.22273	 10.74033	 -3.12274	 18.05356	 -0.72826	 19.55099	705.58099	 23.30	
 20.398	-107.004	 15.27168	  3.06587	  9.76791	 -3.36924	 18.43539	 -0.66214	 19.60696	705.58197	 23.30	
 20.394	-102.132	 15.23504	  3.94459	  8.73063	 -3.55336	 18.66581	 -0.61303	 19.57724	705.58398	 23.30	
 20.403	-97.332	 15.21503	  4.84373	  7.72135	 -3.66951	 18.81748	 -0.57685	 19.56605	705.68298	 23.30	
 20.392	-92.440	 15.18885	  5.79302	  6.71753	 -3.71809	 18.88058	 -0.55977	 19.54526	705.61499	 23.30	
 20.392	-87.560	 15.20288	  6.79115	  5.72669	 -3.73748	 18.92135	 -0.56293	 19.58473	705.57599	 23.30	
 20.403	-82.668	 15.17284	  7.77335	  4.75007	 -3.68936	 18.83340	 -0.55276	 19.57737	705.64001	 23.30	
 20.394	-77.868	 15.16976	  8.77193	  3.82836	 -3.56960	 18.66899	 -0.53100	 19.58578	705.62299	 23.30	
 20.398	-72.996	 15.13299	  9.76580	  2.91789	 -3.39364	 18.37724	 -0.52356	 19.54353	705.72699	 23.30	
 20.413	-68.100	 15.15007	 10.78444	  2.05070	 -3.17630	 18.06565	 -0.54124	 19.59542	705.73401	 23.30	
 20.403	-63.259	 15.13713	 11.74574	  1.25698	 -2.87719	 17.61497	 -0.55249	 19.55864	705.58600	 23.30	
 20.400	-58.396	 15.11668	 12.67498	  0.49326	 -2.52692	 17.07858	 -0.55776	 19.53503	705.56799	 23.30	
 20.410	-53.489	 15.11685	 13.60141	 -0.22214	 -2.13077	 16.50033	 -0.59843	 19.55839	705.58698	 23.30	
 20.408	-48.628	 15.13532	 14.47467	 -0.87903	 -1.66091	 15.84671	 -0.59085	 19.58532	705.67902	 23.30	
 20.396	-43.773	 15.12505	 15.24554	 -1.44440	 -1.10952	 15.06972	 -0.58981	 19.55300	705.53400	 23.30	
 20.392	-38.938	 15.15532	 15.99559	 -1.95751	 -0.49332	 14.26711	 -0.59902	 19.56954	705.77002	 23.30	
 20.397	-34.097	 15.14837	 16.64769	 -2.42777	  0.15604	 13.39957	 -0.60118	 19.55042	705.62097	 23.30	
 20.405	-29.165	 15.15110	 17.23798	 -2.81966	  0.87139	 12.47705	 -0.58528	 19.55817	705.55298	 23.30	
 20.401	-24.295	 15.16743	 17.74014	 -3.14750	  1.65504	 11.51727	 -0.60073	 19.54973	705.50500	 23.30	
 20.392	-19.504	 15.18983	 18.14401	 -3.40784	  2.46862	 10.55170	 -0.59046	 19.55345	705.60602	 23.30	
 20.410	-14.577	 15.20188	 18.46797	 -3.62739	  3.32650	  9.54752	 -0.59434	 19.54522	705.60999	 23.30	
 20.407	 -9.736	 15.21681	 18.69627	 -3.77189	  4.24487	  8.53483	 -0.56930	 19.53375	705.62903	 23.30	
 20.401	 -4.847	 15.23602	 18.84467	 -3.87093	  5.19719	  7.54251	 -0.57032	 19.54905	705.66901	 23.30	
 20.400	  0.000	 15.24731	 18.89176	 -3.90857	  6.15777	  6.55245	 -0.55800	 19.54033	705.65997	 23.30	
 20.401	  4.847	 15.27524	 18.87205	 -3.88238	  7.15037	  5.57581	 -0.57013	 19.54360	705.68799	 23.30	
 20.407	  9.736	 15.31389	 18.80681	 -3.81885	  8.16139	  4.64257	 -0.56663	 19.58236	705.65503	 23.30	
 20.410	 14.577	 15.31861	 18.60493	 -3.69528	  9.15297	  3.73397	 -0.59187	 19.56253	705.66302	 23.30	
 20.392	 19.504	 15.34975	 18.31675	 -3.48574	 10.17665	  2.85238	 -0.61120	 19.56483	705.70801	 23.30	
 20.401	 24.295	 15.37220	 17.96028	 -3.23480	 11.14455	  2.05140	 -0.64165	 19.55972	705.63800	 23.30	
 20.405	 29.165	 15.38648	 17.50305	 -2.91669	 12.11362	  1.26881	 -0.67690	 19.56337	705.69299	 23.30	
 20.397	 34.097	 15.41583	 16.95102	 -2.52409	 13.06695	  0.52034	 -0.76780	 19.56719	705.62903	 23.30	
 20.392	 38.938	 15.43844	 16.32417	 -2.06632	 13.94956	 -0.13067	 -0.82410	 19.55562	705.71002	 23.30	
 20.396	 43.773	 15.46327	 15.63163	 -1.55228	 14.77305	 -0.73720	 -0.88977	 19.56070	705.61700	 23.30	
 20.408	 48.628	 15.49873	 14.88468	 -0.99032	 15.56519	 -1.30045	 -0.92973	 19.57808	705.65198	 23.30	
 20.410	 53.489	 15.49342	 14.04516	 -0.36539	 16.25552	 -1.80587	 -0.96447	 19.55681	705.58099	 23.30	
 20.400	 58.396	 15.53332	 13.16450	  0.34480	 16.89796	 -2.23908	 -0.99245	 19.57021	705.63202	 23.30	
 20.403	 63.259	 15.56452	 12.24246	  1.11045	 17.43717	 -2.59216	 -1.01035	 19.57284	705.68597	 23.30	
 20.413	 68.100	 15.59593	 11.30638	  1.90913	 17.89796	 -2.87002	 -1.00754	 19.58706	705.87201	 23.30	
 20.398	 72.996	 15.59120	 10.29863	  2.76878	 18.24122	 -3.10470	 -0.98436	 19.55659	705.64801	 23.30	
 20.394	 77.868	 15.60296	  9.30558	  3.67563	 18.52317	 -3.27894	 -0.94456	 19.55630	705.80603	 23.30	
 20.403	 82.668	 15.63455	  8.32419	  4.60666	 18.72764	 -3.38725	 -0.89439	 19.57294	705.85101	 23.30	
 20.392	 87.560	 15.64937	  7.32477	  5.59331	 18.80416	 -3.42201	 -0.83527	 19.56235	705.71600	 23.30	
 20.392	 92.440	 15.65856	  6.32227	  6.60795	 18.80740	 -3.42133	 -0.80494	 19.55770	705.71698	 23.30	
 20.403	 97.332	 15.68281	  5.35897	  7.62410	 18.74299	 -3.37084	 -0.77597	 19.56581	705.64099	 23.30	
 20.394	102.132	 15.69897	  4.44895	  8.64800	 18.57309	 -3.24253	 -0.76775	 19.57714	705.63397	 23.30	
 20.398	107.004	 15.69585	  3.55080	  9.65598	 18.30278	 -3.06490	 -0.76766	 19.55259	705.70001	 23.30	
 20.413	111.900	 15.71776	  2.67731	 10.67784	 17.98876	 -2.83512	 -0.80677	 19.59108	705.78998	 23.30	
 20.403	116.741	 15.70124	  1.86066	 11.64388	 17.53073	 -2.52626	 -0.83505	 19.55851	705.63800	 23.30	
 20.400	121.604	 15.68645	  1.10087	 12.59557	 17.00041	 -2.16553	 -0.86339	 19.55227	705.70300	 23.30	
 20.410	126.511	 15.69500	  0.39084	 13.52871	 16.39842	 -1.73703	 -0.88738	 19.56148	705.66901	 23.30	
 20.408	131.372	 15.70175	 -0.24483	 14.39966	 15.71103	 -1.23933	 -0.92377	 19.57016	705.63397	 23.30	
 20.396	136.227	 15.72235	 -0.81198	 15.21941	 14.96329	 -0.67771	 -0.92539	 19.58206	705.71002	 23.30	
 20.392	141.062	 15.69739	 -1.32884	 15.93776	 14.13898	 -0.06674	 -0.93256	 19.56050	705.58698	 23.30	
 20.397	145.903	 15.69274	 -1.80043	 16.61478	 13.27427	  0.58416	 -0.93855	 19.57675	705.73401	 23.30	
 20.405	150.835	 15.65384	 -2.18711	 17.18199	 12.29972	  1.33082	 -0.94464	 19.54461	705.64398	 23.30	
 20.401	155.705	 15.66097	 -2.50612	 17.69267	 11.34159	  2.11252	 -0.94006	 19.56185	705.60699	 23.30	
 20.392	160.496	 15.65471	 -2.75833	 18.09736	 10.39343	  2.91857	 -0.93553	 19.56509	705.67499	 23.30	
 20.410	165.423	 15.62986	 -2.95813	 18.41549	  9.35699	  3.80428	 -0.93042	 19.56911	705.62402	 23.30	
 20.407	170.264	 15.61809	 -3.09074	 18.62503	  8.35934	  4.71369	 -0.90366	 19.56540	705.67102	 23.30	
 20.401	175.153	 15.59102	 -3.18733	 18.74521	  7.34515	  5.65461	 -0.86748	 19.55605	705.67102	 23.30	
  0.141	 45.000	 19.62149	 10.35086	  9.80107	  9.98797	 10.23963	  0.19999	 19.58889	705.69397	 23.30	
  4.001	128.691	 19.55422	  8.67413	 11.22314	 11.65837	  8.32764	  0.11028	 19.56549	705.68799	 23.30	
  4.002	 76.995	 19.56193	 10.71120	  9.12568	 12.14255	  7.89403	  0.09957	 19.56646	705.57599	 23.30	
  4.002	 25.892	 19.50673	 12.27925	  7.56771	 10.80614	  9.06378	  0.09442	 19.54496	705.62097	 23.30	
  4.002	-25.892	 19.48693	 12.25050	  7.56851	  8.71649	 11.14138	  0.12199	 19.54148	705.58698	 23.30	
  4.002	-76.995	 19.49853	 10.59883	  9.12522	  7.50775	 12.49607	  0.07114	 19.55680	705.70599	 23.30	
  4.001	-128.691	 19.55380	  8.61297	 11.23793	  7.96733	 12.04344	  0.08088	 19.59214	705.80603	 23.30	
  4.000	180.000	 19.50622	  7.78907	 12.15069	  9.72494	 10.12758	  0.11478	 19.52330	705.70801	 23.20	
  8.000	180.000	 19.18993	  5.17708	 14.34245	  9.31638	  9.69250	 -0.13504	 19.57956	705.73401	 23.30	
  7.991	-152.370	 19.14256	  5.54791	 13.74447	  7.11183	 11.97549	 -0.15195	 19.57959	705.62903	 23.30	
  7.997	-124.550	 19.08763	  6.88204	 12.07228	  5.46002	 13.79041	 -0.20225	 19.56772	705.69397	 23.30	
  8.006	-96.837	 19.04857	  8.94214	  9.80252	  4.71490	 14.63597	 -0.27078	 19.55521	705.41302	 23.30	
  7.988	-69.228	 19.05080	 11.26459	  7.51052	  4.96792	 14.34673	 -0.26804	 19.58322	705.53900	 23.30	
  7.997	-41.563	 19.03222	 13.27119	  5.68901	  6.14432	 12.94083	 -0.20225	 19.55567	705.54199	 23.30	
  8.008	-13.821	 19.05652	 14.45912	  4.70761	  8.11488	 10.78385	 -0.15530	 19.55709	705.50299	 23.30	
  8.008	 13.821	 19.09760	 14.51660	  4.69508	 10.44981	  8.46847	 -0.17764	 19.56520	705.49597	 23.30	
  7.997	 41.563	 19.13582	 13.42050	  5.66747	 12.59232	  6.53888	 -0.18582	 19.55809	705.53400	 23.30	
  7.988	 69.228	 19.19054	 11.47059	  7.48185	 14.02965	  5.37347	 -0.19396	 19.56838	705.52002	 23.30	
  8.006	 96.837	 19.21387	  9.16958	  9.78192	 14.34184	  5.14377	 -0.22121	 19.57208	705.60303	 23.30	
  7.997	124.550	 19.21142	  7.08175	 12.04895	 13.46828	  5.87864	 -0.17837	 19.56141	705.54498	 23.30	
  7.991	152.370	 19.19244	  5.67578	 13.71152	 11.60479	  7.49906	 -0.12845	 19.55357	705.57800	 23.30	
 12.009	161.059	 18.43801	  2.78011	 15.75852	 10.99998	  6.67584	 -0.44857	 19.56534	705.53601	 23.30	
 12.013	142.081	 18.46521	  3.73058	 14.53578	 13.24507	  4.69698	 -0.49272	 19.58554	705.47198	 23.30	
 12.006	123.113	 18.49766	  5.28381	 12.62937	 14.97781	  3.29370	 -0.56509	 19.59317	705.60699	 23.30	
 12.007	104.200	 18.44405	  7.30707	 10.27746	 15.96277	  2.46247	 -0.63140	 19.54888	705.63800	 23.30	
 11.989	 85.301	 18.44228	  9.64964	  7.85722	 16.16887	  2.34002	 -0.62779	 19.57099	705.55402	 23.30	
 12.013	 66.294	 18.41981	 12.01536	  5.59368	 15.53360	  2.78356	 -0.53463	 19.57799	705.57300	 23.30	
 12.012	 47.388	 18.33358	 14.06070	  3.72875	 14.06795	  3.88783	 -0.54571	 19.53896	705.67200	 23.30	
 11.990	 28.440	 18.32493	 15.59873	  2.44240	 12.09686	  5.57742	 -0.54160	 19.59734	705.60699	 23.30	
 11.991	  9.464	 18.22883	 16.32016	  1.82748	  9.72417	  7.69484	 -0.54210	 19.53382	705.54498	 23.30	
 11.991	 -9.464	 18.22992	 16.30260	  1.84990	  7.34897	 10.08483	 -0.49356	 19.58343	705.49597	 23.30	
 11.990	-28.440	 18.19391	 15.42979	  2.47950	  5.18631	 12.43982	 -0.49331	 19.58079	705.59900	 23.30	
 12.012	-47.388	 18.15000	 13.82582	  3.76986	  3.47351	 14.40136	 -0.57822	 19.55609	705.50299	 23.30	
 12.013	-66.294	 18.16617	 11.70987	  5.62530	  2.34722	 15.80344	 -0.65537	 19.57601	705.57501	 23.30	
 11.989	-85.301	 18.18884	  9.33808	  7.90178	  1.91094	 16.40401	 -0.66187	 19.56332	705.59497	 23.30	
 12.007	-104.200	 18.21160	  7.00835	 10.32082	  2.05072	 16.21890	 -0.64279	 19.56794	705.50800	 23.30	
 12.006	-123.113	 18.21769	  5.00004	 12.60967	  2.85390	 15.21882	 -0.52863	 19.54545	705.46802	 23.30	
 12.013	-142.081	 18.28524	  3.49904	 14.51856	  4.30679	 13.53056	 -0.49430	 19.56736	705.58698	 23.30	
 12.009	-161.059	 18.30922	  2.60708	 15.73191	  6.28174	 11.31974	 -0.50940	 19.53407	705.57001	 23.30	
 16.000	180.000	 17.23630	 -0.46624	 17.62915	  7.63603	  7.99190	 -0.84340	 19.56034	705.60699	 23.30	
 15.990	-165.604	 17.17817	 -0.29158	 17.30867	  5.33586	 10.35349	 -0.83322	 19.55771	705.41998	 23.30	
 16.002	-151.165	 17.10095	  0.33890	 16.34279	  3.26386	 12.64700	 -0.80542	 19.54141	705.51599	 23.30	
 16.002	-136.836	 17.04868	  1.41374	 14.83226	  1.54969	 14.68921	 -0.75331	 19.54980	705.59198	 23.30	
 15.995	-122.439	 17.01377	  2.97404	 12.85129	  0.30124	 16.29147	 -0.76211	 19.54977	705.60699	 23.30	
 15.993	-107.966	 16.97118	  4.87585	 10.54078	 -0.54331	 17.35934	 -0.78794	 19.55036	705.54999	 23.30	
 16.005	-93.629	 16.93173	  7.07654	  8.12085	 -0.89862	 17.81688	 -0.71250	 19.55165	705.51898	 23.30	
 15.992	-79.234	 16.91610	  9.46674	  5.76915	 -0.79657	 17.67322	 -0.65479	 19.56404	705.53699	 23.30	
 16.009	-64.774	 16.91057	 11.85058	  3.60304	 -0.25165	 16.92234	 -0.66136	 19.58357	705.58099	 23.30	
 15.997	-50.364	 16.88503	 13.99950	  1.80807	  0.79453	 15.52913	 -0.70385	 19.55438	705.40100	 23.30	
 15.997	-36.045	 16.90656	 15.78558	  0.40806	  2.26046	 13.69373	 -0.68531	 19.55868	705.37097	 23.30	
 16.000	-21.597	 16.94418	 17.05256	 -0.52419	  4.14005	 11.48386	 -0.65216	 19.56228	705.44397	 23.30	
 16.003	 -7.169	 16.98584	 17.72799	 -1.00447	  6.34545	  9.07875	 -0.66376	 19.55563	705.53699	 23.30	
 16.003	  7.169	 17.00551	 17.75998	 -1.02359	  8.70980	  6.71572	 -0.69860	 19.53951	705.55103	 23.30	
 16.000	 21.597	 17.06165	 17.20647	 -0.58820	 11.10500	  4.53381	 -0.74979	 19.54932	705.42700	 23.30	
 15.997	 36.045	 17.11784	 16.02194	  0.34199	 13.33482	  2.66914	 -0.81643	 19.54165	705.37799	 23.30	
 15.997	 50.364	 17.17585	 14.34566	  1.71148	 15.23558	  1.17672	 -0.83858	 19.55264	705.52301	 23.30	
 16.009	 64.774	 17.24146	 12.25829	  3.51138	 16.66135	  0.13865	 -0.84708	 19.57054	705.56702	 23.30	
 15.992	 79.234	 17.30121	  9.91795	  5.67961	 17.50309	 -0.42395	 -0.92863	 19.58672	705.59003	 23.30	
 16.005	 93.629	 17.30472	  7.51971	  8.05150	 17.66492	 -0.52806	 -0.94789	 19.55990	705.64801	 23.30	
 15.993	107.966	 17.33721	  5.29566	 10.48101	 17.19271	 -0.15118	 -0.90471	 19.56057	705.53900	 23.30	
 15.995	122.439	 17.32265	  3.34496	 12.80702	 16.08402	  0.67972	 -0.87397	 19.53728	705.63000	 23.20	
 16.002	136.836	 17.34114	  1.69421	 14.84171	 14.47767	  1.94075	 -0.79744	 19.57495	705.50598	 23.20	
 16.002	151.165	 17.31863	  0.51588	 16.37365	 12.41380	  3.62914	 -0.77758	 19.57338	705.59198	 23.20	
 15.990	165.604	 17.28399	 -0.19008	 17.31521	 10.05528	  5.69668	 -0.78142	 19.55353	705.47498	 23.20	
 20.003	168.362	 15.77697	 -2.81033	 18.45728	  8.82636	  4.52221	 -0.91287	 19.55208	705.53699	 23.20	
 20.008	156.764	 15.81577	 -2.34956	 17.72766	 11.18928	  2.46345	 -0.94371	 19.55780	705.65698	 23.20	
 20.000	145.147	 15.84691	 -1.49917	 16.46528	 13.40623	  0.68798	 -0.94277	 19.56619	705.53003	 23.30	
 19.995	133.545	 15.86201	 -0.27827	 14.74403	 15.33497	 -0.74176	 -0.92823	 19.54707	705.43701	 23.30	
 20.009	121.926	 15.85572	  1.26137	 12.68450	 16.90926	 -1.89142	 -0.87509	 19.55329	705.63202	 23.30	
 20.005	110.327	 15.88487	  3.15287	 10.42176	 18.02744	 -2.65196	 -0.80070	 19.58482	705.55902	 23.30	
 19.989	 98.733	 15.86616	  5.24974	  8.03084	 18.62188	 -3.06950	 -0.79340	 19.57339	705.47699	 23.20	
 19.999	 87.075	 15.82012	  7.53902	  5.64016	 18.70408	 -3.15390	 -0.85330	 19.55650	705.44299	 23.20	
 19.992	 75.457	 15.80491	  9.89650	  3.43279	 18.32485	 -2.91405	 -0.97439	 19.57078	705.52698	 23.30	
 20.009	 63.844	 15.76710	 12.19112	  1.42297	 17.45039	 -2.35262	 -1.00370	 19.59861	705.75800	 23.30	
 19.989	 52.269	 15.69010	 14.27565	 -0.27935	 16.04844	 -1.40783	 -0.95995	 19.56892	705.63202	 23.30	
 19.999	 40.602	 15.62468	 16.07056	 -1.66269	 14.23388	 -0.12075	 -0.86026	 19.56058	705.57001	 23.30	
 20.004	 29.051	 15.59077	 17.48541	 -2.67451	 12.14649	  1.50183	 -0.70340	 19.59673	705.62299	 23.30	
 20.005	 17.433	 15.52197	 18.38928	 -3.32766	  9.83341	  3.40808	 -0.59496	 19.57703	705.48499	 23.20	
 20.006	  5.780	 15.46410	 18.81005	 -3.63715	  7.46873	  5.54522	 -0.57270	 19.56796	705.60101	 23.20	
 20.006	 -5.780	 15.41528	 18.75935	 -3.61171	  5.16207	  7.84421	 -0.56636	 19.55816	705.47498	 23.20	
 20.005	-17.433	 15.36413	 18.21774	 -3.26273	  2.99843	 10.20792	 -0.58473	 19.54267	705.51898	 23.20	
 20.004	-29.051	 15.31602	 17.18676	 -2.58402	  1.09555	 12.47404	 -0.59527	 19.54028	705.59802	 23.20	
 19.999	-40.602	 15.33287	 15.73685	 -1.55330	 -0.47757	 14.55370	 -0.59699	 19.57817	705.37299	 23.20	
 19.989	-52.269	 15.31347	 13.84204	 -0.16911	 -1.77604	 16.30764	 -0.57205	 19.57934	705.54401	 23.20	
 20.009	-63.844	 15.33764	 11.70829	  1.54961	 -2.66302	 17.62630	 -0.54864	 19.58714	705.47699	 23.20	
 19.992	-75.457	 15.35252	  9.37527	  3.54590	 -3.22121	 18.46141	 -0.53931	 19.57637	705.63397	 23.20	
 19.999	-87.075	 15.39707	  7.03665	  5.76988	 -3.46148	 18.83575	 -0.56031	 19.59397	705.63000	 23.20	
 19.989	-98.733	 15.43431	  4.77030	  8.13495	 -3.37393	 18.72389	 -0.59446	 19.59494	705.59003	 23.20	
 20.005	-110.327	 15.43846	  2.69904	 10.48517	 -2.95509	 18.11632	 -0.71743	 19.56760	705.44000	 23.20	
 20.009	-121.926	 15.47653	  0.91225	 12.74423	 -2.18146	 17.03949	 -0.81611	 19.57066	705.70203	 23.20	
 19.995	-133.545	 15.53155	 -0.56437	 14.79175	 -1.06239	 15.50983	 -0.85626	 19.58381	705.66803	 23.20	
 20.000	-145.147	 15.56823	 -1.69447	 16.45539	  0.39618	 13.60368	 -0.86505	 19.57123	705.51599	 23.20	
 20.008	-156.764	 15.61284	 -2.48884	 17.70549	  2.18230	 11.39431	 -0.82812	 19.56410	705.42401	 23.20	
 20.003	-168.362	 15.69827	 -2.90196	 18.47731	  4.23179	  9.09526	 -0.82560	 19.58677	705.53400	 23.20	
 20.000	180.000	 15.74599	 -3.00198	 18.71466	  6.47289	  6.77485	 -0.86289	 19.57851	705.53601	 23.30	
