FileType=PCF
NHL=14
Date=08/28/17	19:10:19
Facility=APL
Serial=16328-13
Customer=NASA
NP=6
Mach=0.250000
Calibration=1:1
CalPts=490
TstPts=95
PortNumbering=AP Standard
Units=Torr C m/s kg/m^3 deg mm 
Theta[deg]	Phi[deg]	P1[Torr]	P2[Torr]	P3[Torr]	P4[Torr]	P5[Torr]	P6[Torr]	Pt[Torr]	Ps[Abs,Torr]	Ts[C]	
  0.000	  0.000	 30.61622	 16.24350	 15.45523	 15.53265	 16.12359	  0.35185	 30.56672	709.07001	 24.60	
  1.691	128.401	 30.62387	 15.25500	 16.39499	 16.74148	 14.86411	  0.34029	 30.57955	709.09399	 24.60	
  1.692	 77.194	 30.61366	 16.57662	 15.05083	 17.07130	 14.53739	  0.33143	 30.57102	707.11700	 24.60	
  1.699	 26.182	 30.62432	 17.64601	 13.99278	 16.24227	 15.38092	  0.32523	 30.58120	707.12299	 24.60	
  1.699	-26.182	 30.57302	 17.56629	 13.96569	 14.79487	 16.75596	  0.32644	 30.53754	707.77301	 24.60	
  1.692	-77.194	 30.60572	 16.51261	 15.05552	 13.97777	 17.60970	  0.33021	 30.57042	707.45898	 24.60	
  1.691	-128.401	 30.60554	 15.19857	 16.38948	 14.23422	 17.32558	  0.33169	 30.56424	708.60303	 24.60	
  1.700	180.000	 30.57845	 14.59400	 16.99869	 15.45066	 16.06858	  0.33506	 30.53853	709.21198	 24.60	
  3.400	180.000	 30.56580	 12.89294	 18.54608	 15.33687	 15.97248	  0.29754	 30.55874	707.87201	 24.50	
  3.388	-152.325	 30.57436	 13.24870	 18.14930	 13.89667	 17.43855	  0.28316	 30.58440	709.02002	 24.50	
  3.397	-124.529	 30.54196	 14.21855	 17.06919	 12.77133	 18.58171	  0.25978	 30.55683	709.31598	 24.50	
  3.399	-96.763	 30.49796	 15.61936	 15.60891	 12.23021	 19.11469	  0.23936	 30.53887	709.19202	 24.50	
  3.394	-69.283	 30.47489	 17.03704	 14.12638	 12.43630	 18.90983	  0.25406	 30.51562	709.27600	 24.50	
  3.400	-41.398	 30.50247	 18.37761	 12.89669	 13.30562	 18.00231	  0.26994	 30.54952	707.69501	 24.50	
  3.401	-14.021	 30.53811	 19.10698	 12.22336	 14.59007	 16.71702	  0.26549	 30.57359	709.23901	 24.50	
  3.401	 14.021	 30.54043	 19.13498	 12.21387	 16.13352	 15.18502	  0.27950	 30.56488	707.61798	 24.50	
  3.400	 41.398	 30.54032	 18.48238	 12.87650	 17.48452	 13.86169	  0.26872	 30.54973	707.17200	 24.50	
  3.394	 69.283	 30.56848	 17.22850	 14.12197	 18.40365	 12.99939	  0.25218	 30.55876	709.19098	 24.50	
  3.399	 96.763	 30.57001	 15.77356	 15.60217	 18.59359	 12.81995	  0.27200	 30.55734	709.11102	 24.50	
  3.397	124.529	 30.55280	 14.33129	 17.05546	 18.00882	 13.36227	  0.28685	 30.55283	708.12201	 24.50	
  3.388	152.325	 30.56052	 13.29447	 18.12775	 16.82240	 14.49232	  0.29513	 30.55520	708.88800	 24.50	
  5.099	161.165	 30.42439	 11.31177	 19.72021	 16.67173	 14.21042	  0.13378	 30.53535	707.10999	 24.50	
  5.109	142.013	 30.42730	 12.05903	 18.89052	 18.10286	 12.86136	  0.13503	 30.53359	709.17200	 24.50	
  5.095	123.033	 30.45308	 13.34623	 17.66137	 19.21314	 11.85333	  0.08757	 30.56030	707.12097	 24.50	
  5.105	104.191	 30.43156	 14.78530	 16.17766	 19.91110	 11.21978	  0.12040	 30.53290	709.22198	 24.50	
  5.093	 85.207	 30.42500	 16.32749	 14.60243	 20.04173	 11.08119	  0.09266	 30.52819	709.06299	 24.40	
  5.104	 66.290	 30.45762	 17.85013	 13.11415	 19.66143	 11.47104	  0.11189	 30.58698	706.97400	 24.40	
  5.094	 47.331	 30.40343	 19.13538	 11.79088	 18.68770	 12.31968	  0.13450	 30.54504	707.14398	 24.40	
  5.089	 28.397	 30.37700	 20.02024	 10.86522	 17.40281	 13.48823	  0.09194	 30.54426	707.67200	 24.40	
  5.096	  9.576	 30.33908	 20.51708	 10.36932	 15.91034	 14.88606	  0.17732	 30.53594	709.13800	 24.40	
  5.096	 -9.576	 30.34158	 20.48080	 10.38351	 14.31894	 16.47562	  0.12276	 30.54770	709.09698	 24.40	
  5.089	-28.397	 30.28571	 19.92233	 10.86264	 12.88237	 17.89528	  0.15638	 30.51239	708.21301	 24.40	
  5.094	-47.331	 30.34826	 18.99071	 11.83763	 11.70492	 19.23667	  0.05048	 30.57426	707.06702	 24.40	
  5.104	-66.290	 30.29498	 17.63199	 13.10656	 10.85048	 20.16844	  0.02427	 30.52000	708.30798	 24.40	
  5.093	-85.207	 30.30196	 16.13018	 14.60894	 10.45986	 20.57754	  0.09636	 30.52789	709.11902	 24.40	
  5.105	-104.191	 30.32001	 14.56752	 16.17584	 10.55979	 20.44963	  0.01134	 30.53461	709.06201	 24.40	
  5.095	-123.033	 30.32052	 13.12088	 17.63417	 11.16468	 19.80010	  0.07809	 30.50956	707.07202	 24.40	
  5.109	-142.013	 30.35597	 11.86063	 18.87860	 12.20683	 18.68343	  0.07389	 30.52823	707.08698	 24.40	
  5.099	-161.165	 30.40603	 11.25147	 19.73811	 13.61584	 17.26186	  0.13273	 30.55281	709.23102	 24.40	
  5.100	180.000	 30.40028	 11.05791	 20.00805	 15.09110	 15.75051	  0.12626	 30.51848	709.12402	 24.40	
  6.800	180.000	 30.17825	  9.38656	 21.44050	 14.80167	 15.44380	 -0.03830	 30.54567	708.59003	 24.40	
  6.796	-166.229	 30.13870	  9.50403	 21.22758	 13.28860	 16.93258	 -0.05150	 30.53911	709.05402	 24.40	
  6.808	-152.311	 30.09522	  9.89973	 20.62051	 11.84898	 18.40994	 -0.07016	 30.52740	707.45502	 24.40	
  6.795	-138.383	 30.08159	 10.63663	 19.65274	 10.58422	 19.75185	 -0.12285	 30.54027	709.08502	 24.40	
  6.792	-124.591	 30.04997	 11.58902	 18.42213	  9.61042	 20.83027	 -0.12768	 30.53911	709.14600	 24.40	
  6.787	-110.754	 30.03409	 13.04297	 16.98098	  8.98609	 21.56338	 -0.16219	 30.53235	709.14899	 24.30	
  6.800	-96.985	 30.01197	 14.58107	 15.48099	  8.66797	 21.93224	 -0.19082	 30.52601	709.03497	 24.30	
  6.800	-83.015	 30.02489	 16.15066	 13.93263	  8.69886	 21.93764	 -0.20109	 30.54430	709.02002	 24.40	
  6.787	-69.246	 29.98664	 17.60717	 12.43346	  9.03021	 21.52860	 -0.20307	 30.52911	707.09198	 24.30	
  6.792	-55.409	 29.97998	 19.00093	 11.06612	  9.66836	 20.75674	 -0.17428	 30.51760	708.17401	 24.30	
  6.795	-41.617	 30.00709	 20.17060	  9.94391	 10.57775	 19.67374	 -0.11757	 30.54605	709.14203	 24.30	
  6.808	-27.689	 30.01643	 21.13472	  9.12887	 11.83902	 18.31183	 -0.05188	 30.53294	707.01599	 24.30	
  6.796	-13.771	 30.02593	 21.72888	  8.67555	 13.26883	 16.83644	 -0.03750	 30.53934	709.21399	 24.30	
  6.800	  0.000	 30.06506	 21.97675	  8.52435	 14.78568	 15.35717	 -0.04463	 30.55342	709.14398	 24.30	
  6.796	 13.771	 30.05319	 21.79176	  8.65087	 16.30403	 13.83085	 -0.06349	 30.52085	709.21503	 24.30	
  6.808	 27.689	 30.05335	 21.24679	  9.08718	 17.76382	 12.41369	 -0.04984	 30.49300	709.19202	 24.30	
  6.795	 41.617	 30.10847	 20.33866	  9.89932	 19.12174	 11.19532	  0.00373	 30.51454	706.95099	 24.30	
  6.792	 55.409	 30.15016	 19.25230	 11.03325	 20.23084	 10.27987	 -0.09197	 30.53864	709.18402	 24.30	
  6.787	 69.246	 30.18670	 17.91392	 12.41049	 21.02972	  9.66594	 -0.09886	 30.54597	709.07397	 24.30	
  6.800	 83.015	 30.16865	 16.42133	 13.87904	 21.42624	  9.29527	 -0.11006	 30.50704	709.08002	 24.30	
  6.800	 96.985	 30.19031	 14.90069	 15.42416	 21.43608	  9.27987	 -0.11196	 30.51705	709.12701	 24.30	
  6.787	110.754	 30.21620	 13.39821	 16.95273	 21.03480	  9.64195	 -0.09150	 30.53247	709.27899	 24.30	
  6.792	124.591	 30.18655	 11.84223	 18.39018	 20.23855	 10.29791	 -0.08090	 30.51235	709.13202	 24.30	
  6.795	138.383	 30.19895	 10.85839	 19.63784	 19.15902	 11.28942	 -0.03925	 30.52935	709.10999	 24.30	
  6.808	152.311	 30.21134	 10.08764	 20.63371	 17.83702	 12.51812	 -0.01351	 30.54219	709.06299	 24.30	
  6.796	166.229	 30.20119	  9.58846	 21.23030	 16.34341	 13.93227	 -0.00038	 30.54202	707.96997	 24.30	
  8.491	168.704	 29.82683	  7.71244	 22.59447	 16.00861	 13.48963	 -0.21691	 30.53370	709.25598	 24.30	
  8.502	157.493	 29.83143	  8.10618	 22.10107	 17.54709	 12.02597	 -0.21098	 30.52142	709.10498	 24.30	
  8.494	146.194	 29.90608	  8.87208	 21.32459	 19.04079	 10.71756	 -0.22609	 30.57970	707.13202	 24.30	
  8.495	135.039	 29.86762	  9.75963	 20.20801	 20.30379	  9.55422	 -0.25968	 30.53526	709.11102	 24.30	
  8.487	123.723	 29.91242	 10.83116	 18.91709	 21.39957	  8.69998	 -0.29868	 30.57218	708.85400	 24.30	
  8.492	112.575	 29.89133	 12.05484	 17.44266	 22.16555	  8.06598	 -0.33953	 30.54495	709.04901	 24.30	
  8.510	101.220	 29.88018	 13.73053	 15.86587	 22.65139	  7.66545	 -0.36870	 30.53547	709.01501	 24.30	
  8.500	 90.000	 29.86115	 15.31939	 14.32320	 22.79846	  7.54664	 -0.36415	 30.53154	709.17499	 24.30	
  8.510	 78.780	 29.85121	 16.84738	 12.73923	 22.64107	  7.66678	 -0.34966	 30.54065	709.14099	 24.30	
  8.492	 67.425	 29.83405	 18.39750	 11.20720	 22.13315	  8.07410	 -0.32887	 30.54251	709.08698	 24.30	
  8.487	 56.277	 29.79574	 19.70672	  9.84140	 21.33016	  8.64635	 -0.31371	 30.54075	709.13800	 24.30	
  8.495	 44.961	 29.76742	 20.92385	  8.69709	 20.25052	  9.47046	 -0.29246	 30.53968	709.04797	 24.30	
  8.494	 33.806	 29.73595	 21.93836	  7.84617	 18.94977	 10.57878	 -0.26487	 30.54411	709.06299	 24.30	
  8.502	 22.507	 29.71127	 22.67953	  7.20505	 17.49850	 11.91581	 -0.28279	 30.54639	709.11603	 24.30	
  8.491	 11.296	 29.67983	 23.09574	  6.85568	 15.97746	 13.38281	 -0.28047	 30.54642	708.87402	 24.30	
  8.500	  0.000	 29.65126	 23.22745	  6.72301	 14.38728	 14.94814	 -0.27337	 30.54339	709.03400	 24.30	
  8.491	-11.296	 29.61893	 23.01674	  6.85777	 12.81493	 16.48315	 -0.26052	 30.52412	708.97498	 24.30	
  8.502	-22.507	 29.66187	 22.58334	  7.23549	 11.35437	 18.03940	 -0.24713	 30.58782	708.98999	 24.30	
  8.494	-33.806	 29.58819	 21.73965	  7.86407	  9.96493	 19.47895	 -0.29071	 30.53669	709.05103	 24.30	
  8.495	-44.961	 29.57241	 20.61597	  8.72337	  8.85738	 20.76349	 -0.36548	 30.53435	709.04199	 24.30	
  8.487	-56.277	 29.60593	 19.43032	  9.86801	  8.02306	 21.83029	 -0.42934	 30.56550	709.03101	 24.30	
  8.492	-67.425	 29.53961	 17.99223	 11.20077	  7.38884	 22.56837	 -0.46782	 30.49106	708.94098	 24.30	
  8.510	-78.780	 29.61412	 16.50524	 12.75135	  7.00937	 23.13272	 -0.47351	 30.56325	708.98602	 24.20	
  8.500	-90.000	 29.61408	 14.94691	 14.32946	  6.86715	 23.28393	 -0.45992	 30.54428	709.18103	 24.20	
  8.510	-101.220	 29.59759	 13.27144	 15.87618	  6.94904	 23.11562	 -0.45299	 30.51636	709.03900	 24.20	
  8.492	-112.575	 29.61977	 11.68334	 17.43760	  7.36417	 22.63229	 -0.41280	 30.51571	709.01703	 24.20	
  8.487	-123.723	 29.62596	 10.48916	 18.88543	  7.98451	 21.86815	 -0.33561	 30.50242	709.14600	 24.20	
  8.495	-135.039	 29.68227	  9.42622	 20.21894	  8.85477	 20.86569	 -0.28539	 30.54007	709.09003	 24.20	
  8.494	-146.194	 29.70156	  8.60211	 21.28743	  9.97841	 19.58731	 -0.27053	 30.53561	709.10797	 24.20	
  8.502	-157.493	 29.74827	  8.00234	 22.11333	 11.37540	 18.12857	 -0.25305	 30.54813	709.01501	 24.20	
  8.491	-168.704	 29.80075	  7.68315	 22.61241	 12.88104	 16.60894	 -0.24590	 30.55704	709.03998	 24.20	
  8.500	180.000	 29.82862	  7.60662	 22.78801	 14.44281	 15.06794	 -0.23122	 30.55624	709.07001	 24.20	
 10.200	180.000	 29.36052	  5.76267	 24.04187	 13.99204	 14.60744	 -0.49643	 30.55470	709.11298	 24.20	
 10.191	-170.497	 29.31261	  5.81687	 23.88652	 12.39553	 16.15989	 -0.49969	 30.54489	709.07098	 24.20	
 10.210	-161.034	 29.24930	  6.05405	 23.45658	 10.85207	 17.71333	 -0.49002	 30.52359	709.11102	 24.20	
 10.194	-151.526	 29.23323	  6.56482	 22.76486	  9.43469	 19.26071	 -0.48889	 30.54335	709.00598	 24.20	
 10.190	-142.105	 29.22247	  7.27281	 21.84246	  8.22271	 20.66060	 -0.48616	 30.56480	708.96399	 24.20	
 10.215	-132.646	 29.18465	  8.15644	 20.69342	  7.16231	 21.88844	 -0.49783	 30.57104	709.03101	 24.20	
 10.203	-123.092	 29.13433	  9.28056	 19.30938	  6.29994	 22.89419	 -0.54941	 30.53200	709.08801	 24.20	
 10.192	-113.678	 29.12897	 10.51754	 17.83330	  5.66254	 23.68394	 -0.63903	 30.54776	709.17999	 24.20	
 10.208	-104.249	 29.10189	 11.87068	 16.25015	  5.21944	 24.22859	 -0.70495	 30.54864	709.08502	 24.20	
 10.210	-94.801	 29.08016	 13.49219	 14.69555	  4.97870	 24.50599	 -0.73752	 30.55611	709.12500	 24.20	
 10.210	-85.199	 29.04852	 15.19901	 13.04589	  5.00374	 24.48977	 -0.74415	 30.53473	708.94098	 24.20	
 10.208	-75.751	 29.04709	 16.75422	 11.44748	  5.23590	 24.21371	 -0.74510	 30.54869	708.95898	 24.20	
 10.192	-66.322	 29.01609	 18.28255	  9.96564	  5.67485	 23.61499	 -0.73231	 30.51255	709.07001	 24.20	
 10.203	-56.908	 29.02370	 19.65799	  8.66399	  6.29218	 22.81320	 -0.70249	 30.52526	709.12402	 24.20	
 10.215	-47.354	 29.02022	 20.99544	  7.51639	  7.14039	 21.76433	 -0.63869	 30.52798	709.07703	 24.20	
 10.190	-37.895	 29.06081	 22.18789	  6.59663	  8.18960	 20.54581	 -0.55181	 30.55108	709.08502	 24.20	
 10.194	-28.474	 29.10134	 23.13039	  5.84257	  9.38812	 19.17293	 -0.48867	 30.58435	709.02502	 24.20	
 10.210	-18.966	 29.10023	 23.84320	  5.27822	 10.78149	 17.61272	 -0.44988	 30.55604	708.32703	 24.20	
 10.191	 -9.503	 29.07446	 24.23339	  4.97878	 12.29971	 16.02212	 -0.47682	 30.50093	709.17499	 24.20	
 10.200	  0.000	 29.14703	 24.46503	  4.85134	 13.90767	 14.49313	 -0.49605	 30.56685	709.13202	 24.20	
 10.191	  9.503	 29.17724	 24.36047	  4.96276	 15.52069	 12.89334	 -0.51385	 30.56647	709.04797	 24.20	
 10.210	 18.966	 29.18441	 23.98018	  5.24169	 17.07244	 11.35106	 -0.52058	 30.53796	708.94897	 24.20	
 10.194	 28.474	 29.22664	 23.33045	  5.78730	 18.60640	  9.97707	 -0.51360	 30.54601	709.04602	 24.20	
 10.190	 37.895	 29.24440	 22.45335	  6.53326	 20.01628	  8.78975	 -0.52315	 30.52583	708.95502	 24.20	
 10.215	 47.354	 29.29877	 21.39800	  7.46894	 21.30678	  7.76210	 -0.54334	 30.56668	709.01501	 24.20	
 10.203	 56.908	 29.30744	 20.10129	  8.59961	 22.33431	  6.94312	 -0.54454	 30.53233	708.97601	 24.20	
 10.192	 66.322	 29.35279	 18.70582	  9.91732	 23.15051	  6.37858	 -0.56051	 30.52971	708.96399	 24.20	
 10.208	 75.751	 29.38201	 17.20535	 11.39333	 23.74486	  5.93196	 -0.58334	 30.54793	709.04303	 24.20	
 10.210	 85.199	 29.36275	 15.68085	 12.99348	 24.01911	  5.68230	 -0.62814	 30.50620	709.02802	 24.20	
 10.210	 94.801	 29.41707	 14.04885	 14.65880	 24.03728	  5.71530	 -0.65077	 30.53072	709.04602	 24.20	
 10.208	104.249	 29.43820	 12.34324	 16.23171	 23.75488	  5.94388	 -0.63665	 30.53422	709.08502	 24.10	
 10.192	113.678	 29.42840	 10.94620	 17.79551	 23.18257	  6.40366	 -0.59594	 30.51896	709.03900	 24.10	
 10.203	123.092	 29.45149	  9.73609	 19.30170	 22.42297	  7.00904	 -0.56025	 30.55456	709.00897	 24.10	
 10.215	132.646	 29.44824	  8.57241	 20.67784	 21.39578	  7.83187	 -0.50174	 30.56460	709.05103	 24.10	
 10.190	142.105	 29.41978	  7.60918	 21.82360	 20.11757	  8.87546	 -0.45186	 30.54083	709.03198	 24.10	
 10.194	151.526	 29.41833	  6.83561	 22.77211	 18.70607	 10.09504	 -0.42988	 30.55232	708.97198	 24.10	
 10.210	161.034	 29.37136	  6.22797	 23.46582	 17.17134	 11.47738	 -0.42021	 30.52041	709.09399	 24.10	
 10.191	170.497	 29.38274	  5.88261	 23.88215	 15.60829	 13.02598	 -0.43607	 30.54165	708.93799	 24.10	
 11.899	171.783	 28.78839	  4.04035	 25.06880	 15.09160	 12.44451	 -0.68744	 30.53653	708.88000	 24.10	
 11.890	163.610	 28.80992	  4.36737	 24.68794	 16.68063	 10.95052	 -0.62860	 30.53186	709.00598	 24.10	
 11.889	155.445	 28.82306	  4.83615	 24.09303	 18.24571	  9.51242	 -0.65444	 30.53397	708.91803	 24.10	
 11.909	147.299	 28.83263	  5.46523	 23.27754	 19.73387	  8.21817	 -0.65733	 30.54209	709.02600	 24.10	
 11.902	139.148	 28.82427	  6.28983	 22.21823	 21.07884	  7.09590	 -0.70353	 30.50786	709.10498	 24.10	
 11.894	130.867	 28.87108	  7.32847	 20.99169	 22.30073	  6.13949	 -0.72241	 30.53998	709.05701	 24.10	
 11.897	122.732	 28.85853	  8.48862	 19.60468	 23.32156	  5.30404	 -0.79677	 30.51411	709.02002	 24.10	
 11.903	114.597	 28.91162	  9.78821	 18.14730	 24.18616	  4.65858	 -0.87187	 30.57710	708.90503	 24.10	
 11.893	106.346	 28.85204	 11.08901	 16.49652	 24.72849	  4.17530	 -0.92648	 30.51597	709.02301	 24.10	
 11.892	 98.155	 28.86216	 12.61221	 14.89762	 25.10150	  3.91765	 -0.93686	 30.53876	708.95898	 24.10	
 11.900	 90.000	 28.88694	 14.35030	 13.31535	 25.26289	  3.80786	 -0.92059	 30.58122	708.97803	 24.10	
 11.892	 81.845	 28.81893	 15.94940	 11.63785	 25.08047	  3.92608	 -0.88388	 30.53148	708.86200	 24.10	
 11.893	 73.654	 28.82866	 17.46553	 10.11178	 24.72141	  4.24094	 -0.83611	 30.56900	709.00299	 24.10	
 11.903	 65.403	 28.77487	 19.04081	  8.65035	 24.08932	  4.63226	 -0.77318	 30.53880	709.03101	 24.10	
 11.897	 57.268	 28.75956	 20.36734	  7.39315	 23.26479	  5.24562	 -0.75706	 30.56720	708.94501	 24.10	
 11.894	 49.133	 28.73294	 21.73336	  6.24283	 22.22799	  6.06138	 -0.76523	 30.56296	709.03400	 24.10	
 11.902	 40.852	 28.65190	 22.84579	  5.20692	 20.97470	  7.02067	 -0.76543	 30.52352	709.05103	 24.10	
 11.909	 32.701	 28.63863	 23.85271	  4.37387	 19.62776	  8.14486	 -0.75651	 30.56256	709.10199	 24.00	
 11.889	 24.555	 28.62258	 24.61632	  3.76926	 18.13243	  9.41178	 -0.74301	 30.56518	709.02600	 24.10	
 11.890	 16.390	 28.58165	 25.15650	  3.35554	 16.56236	 10.80036	 -0.74979	 30.55000	709.03998	 24.00	
 11.899	  8.217	 28.53576	 25.47329	  3.07490	 14.98672	 12.30196	 -0.75626	 30.53956	709.14203	 24.00	
 11.900	  0.000	 28.51309	 25.56117	  2.97829	 13.34345	 13.92701	 -0.73111	 30.54570	708.88000	 24.00	
 11.899	 -8.217	 28.48742	 25.41880	  3.09312	 11.73208	 15.52378	 -0.69002	 30.54084	708.95898	 24.00	
 11.890	-16.390	 28.46118	 25.02079	  3.37227	 10.22655	 17.09068	 -0.65495	 30.53529	708.95203	 24.10	
 11.889	-24.555	 28.45273	 24.40584	  3.81109	  8.81441	 18.67127	 -0.66727	 30.56553	709.03900	 24.00	
 11.909	-32.701	 28.41924	 23.56211	  4.43947	  7.53531	 20.14055	 -0.72261	 30.55030	708.89301	 24.10	
 11.902	-40.852	 28.42772	 22.53783	  5.28299	  6.42292	 21.48821	 -0.79335	 30.57016	708.91803	 24.10	
 11.894	-49.133	 28.38762	 21.26918	  6.30317	  5.40103	 22.68751	 -0.86496	 30.53877	708.97601	 24.10	
 11.897	-57.268	 28.38861	 19.90290	  7.44367	  4.56218	 23.71494	 -0.92501	 30.55018	708.96301	 24.00	
 11.903	-65.403	 28.38390	 18.48843	  8.70907	  3.93109	 24.53819	 -0.94280	 30.54558	708.91602	 24.00	
 11.893	-73.654	 28.40420	 16.91976	 10.15956	  3.53677	 25.11431	 -0.93389	 30.54052	708.89301	 24.00	
 11.892	-81.845	 28.42079	 15.43995	 11.70634	  3.26459	 25.46783	 -0.95596	 30.53713	708.86499	 24.00	
 11.900	-90.000	 28.40682	 13.70303	 13.32143	  3.12795	 25.58467	 -0.97541	 30.51010	708.86603	 24.00	
 11.892	-98.155	 28.49186	 12.09839	 14.97322	  3.24839	 25.51856	 -0.93736	 30.57328	708.95300	 24.00	
 11.893	-106.346	 28.46914	 10.62663	 16.55450	  3.48279	 25.15969	 -0.91435	 30.53327	708.94897	 24.00	
 11.903	-114.597	 28.50920	  9.27349	 18.16046	  3.92777	 24.61333	 -0.83576	 30.56583	708.86902	 24.00	
 11.897	-122.732	 28.54659	  8.02738	 19.65817	  4.59614	 23.81145	 -0.74865	 30.58197	709.00299	 24.00	
 11.894	-130.867	 28.55747	  6.89973	 21.01582	  5.43510	 22.78792	 -0.68275	 30.55960	709.00000	 24.00	
 11.902	-139.148	 28.58194	  5.92163	 22.22930	  6.45930	 21.57428	 -0.66156	 30.54160	708.84900	 24.00	
 11.909	-147.299	 28.61405	  5.13540	 23.26400	  7.59467	 20.25939	 -0.68588	 30.55456	708.86603	 24.00	
 11.889	-155.445	 28.64821	  4.56770	 24.07321	  8.88335	 18.78899	 -0.71214	 30.53746	708.84900	 24.00	
 11.890	-163.610	 28.67373	  4.15807	 24.67692	 10.33277	 17.20807	 -0.73935	 30.51979	708.89301	 24.00	
 11.899	-171.783	 28.74021	  3.94645	 25.08048	 11.86392	 15.64143	 -0.73876	 30.55329	708.97601	 24.00	
 11.900	180.000	 28.78428	  3.89364	 25.21861	 13.46750	 14.05649	 -0.72665	 30.56695	708.98401	 24.00	
 13.600	180.000	 28.08096	  1.96188	 26.26311	 12.85704	 13.43789	 -0.96810	 30.55783	708.95502	 24.00	
 13.608	-172.853	 28.04342	  1.97974	 26.17467	 11.27564	 15.01787	 -1.00228	 30.56509	708.92499	 24.00	
 13.611	-165.583	 28.01733	  2.12205	 25.85919	  9.73840	 16.62743	 -0.99849	 30.57785	708.96399	 24.00	
 13.601	-158.353	 27.94968	  2.45171	 25.28061	  8.27251	 18.19460	 -0.95769	 30.54197	708.90503	 24.00	
 13.609	-151.210	 27.88838	  3.00235	 24.52938	  6.96292	 19.68246	 -0.91395	 30.52607	708.75500	 24.00	
 13.611	-143.999	 27.89213	  3.71253	 23.62585	  5.75636	 21.11870	 -0.87897	 30.55990	708.91803	 24.00	
 13.601	-136.825	 27.85170	  4.56166	 22.51372	  4.63364	 22.42544	 -0.85010	 30.56722	708.98297	 24.00	
 13.596	-129.640	 27.81352	  5.55654	 21.25851	  3.66993	 23.59121	 -0.88364	 30.54789	708.96399	 24.00	
 13.611	-122.431	 27.81192	  6.68332	 19.88715	  2.84510	 24.61167	 -0.94332	 30.57742	708.87701	 24.00	
 13.604	-115.211	 27.77020	  7.96825	 18.37776	  2.21008	 25.38751	 -1.01049	 30.55194	708.77197	 24.00	
 13.595	-108.042	 27.76830	  9.33013	 16.81748	  1.71885	 25.99201	 -1.07922	 30.56008	708.84497	 24.00	
 13.607	-100.793	 27.74352	 10.70679	 15.18251	  1.38820	 26.41056	 -1.12863	 30.56646	708.86200	 24.00	
 13.601	-93.617	 27.71718	 12.20511	 13.54747	  1.25765	 26.60150	 -1.09468	 30.54773	708.85101	 24.00	
 13.601	-86.383	 27.70635	 13.82779	 11.91733	  1.26450	 26.61426	 -1.05989	 30.56874	708.90198	 24.00	
 13.607	-79.207	 27.67447	 15.52131	 10.34435	  1.42446	 26.39640	 -1.04300	 30.55785	708.89697	 24.00	
 13.595	-71.958	 27.65893	 17.05647	  8.83131	  1.74725	 25.95387	 -1.03380	 30.55197	708.91602	 24.00	
 13.604	-64.789	 27.64101	 18.66157	  7.46013	  2.16220	 25.33426	 -1.04749	 30.54890	708.79999	 24.00	
 13.611	-57.569	 27.62479	 20.05859	  6.16087	  2.77317	 24.51867	 -1.06512	 30.54303	708.78699	 24.00	
 13.596	-50.360	 27.60803	 21.43047	  5.00423	  3.58202	 23.49713	 -1.01810	 30.52729	708.79999	 24.00	
 13.601	-43.175	 27.66522	 22.74218	  3.97203	  4.56067	 22.37100	 -0.97367	 30.57054	708.82001	 24.00	
 13.611	-36.001	 27.64794	 23.84654	  3.06712	  5.64978	 21.02791	 -0.91398	 30.53979	708.84900	 24.00	
 13.609	-28.790	 27.68524	 24.79692	  2.35367	  6.86645	 19.61498	 -0.87567	 30.56191	708.93903	 24.00	
 13.601	-21.647	 27.70778	 25.53547	  1.80709	  8.16730	 18.10328	 -0.83952	 30.54641	708.81000	 24.00	
 13.611	-14.417	 27.72652	 26.08728	  1.43486	  9.60806	 16.47850	 -0.85387	 30.54024	708.88202	 24.00	
 13.608	 -7.147	 27.74847	 26.42604	  1.21267	 11.14747	 14.88089	 -0.86511	 30.52710	709.02301	 24.00	
 13.600	  0.000	 27.79016	 26.58121	  1.11169	 12.71644	 13.30686	 -0.88797	 30.54998	709.03998	 24.00	
 13.608	  7.147	 27.81254	 26.51882	  1.17173	 14.33486	 11.69977	 -0.92125	 30.54526	709.00000	 24.00	
 13.611	 14.417	 27.82133	 26.22906	  1.37648	 15.93957	 10.16778	 -0.94847	 30.51998	708.86499	 24.00	
 13.601	 21.647	 27.92669	 25.78827	  1.76088	 17.58341	  8.78818	 -0.97317	 30.59184	708.88300	 24.00	
 13.609	 28.790	 27.90289	 25.07418	  2.27665	 19.08066	  7.47389	 -0.96683	 30.54010	708.79700	 24.00	
 13.611	 36.001	 27.91535	 24.19401	  2.97449	 20.50611	  6.27421	 -0.97948	 30.52947	708.81403	 24.00	
 13.601	 43.175	 27.98505	 23.15427	  3.87787	 21.85265	  5.20914	 -0.98018	 30.56326	708.86200	 24.00	
 13.596	 50.360	 28.02099	 21.94914	  4.91343	 23.06051	  4.25228	 -0.95488	 30.55490	708.76703	 24.00	
 13.611	 57.569	 28.04650	 20.58499	  6.07629	 24.11026	  3.42812	 -0.94504	 30.55020	708.85400	 24.00	
 13.604	 64.789	 28.09989	 19.25455	  7.36787	 24.97518	  2.79569	 -0.96284	 30.56706	708.72699	 24.00	
 13.595	 71.958	 28.09732	 17.64444	  8.71088	 25.57215	  2.38026	 -1.04194	 30.52769	708.78302	 24.00	
 13.607	 79.207	 28.16666	 16.18595	 10.23921	 26.05735	  2.06380	 -1.08717	 30.57344	708.88501	 24.00	
 13.601	 86.383	 28.18661	 14.56518	 11.83235	 26.26067	  1.89769	 -1.16378	 30.55659	708.80298	 24.00	
 13.601	 93.617	 28.23953	 12.82653	 13.50212	 26.29140	  1.91005	 -1.18293	 30.58729	708.81201	 24.00	
 13.607	100.793	 28.21690	 11.28504	 15.12065	 26.06523	  2.07488	 -1.16843	 30.55253	708.84900	 24.00	
 13.595	108.042	 28.22903	  9.89531	 16.76209	 25.64556	  2.39616	 -1.13511	 30.56274	708.74701	 24.00	
 13.604	115.211	 28.19558	  8.52989	 18.31400	 25.01258	  2.85507	 -1.08508	 30.53049	708.67401	 24.00	
 13.611	122.431	 28.19573	  7.21167	 19.83620	 24.19043	  3.50318	 -1.00738	 30.53454	708.77899	 24.00	
 13.596	129.640	 28.24597	  6.04673	 21.27642	 23.19976	  4.34247	 -0.94447	 30.58450	708.66302	 24.00	
 13.601	136.825	 28.20852	  5.00353	 22.51032	 21.98856	  5.30836	 -0.88430	 30.54260	708.64801	 24.00	
 13.611	143.999	 28.20651	  4.11334	 23.64131	 20.71132	  6.37011	 -0.85744	 30.57876	708.64301	 24.00	
 13.609	151.210	 28.18250	  3.35055	 24.58013	 19.26083	  7.55764	 -0.81792	 30.56179	708.67902	 24.00	
 13.601	158.353	 28.16693	  2.76790	 25.30326	 17.71309	  8.89301	 -0.81438	 30.55567	708.73297	 24.00	
 13.611	165.583	 28.13027	  2.30989	 25.83904	 16.11077	 10.32451	 -0.85291	 30.54760	708.69702	 24.00	
 13.608	172.853	 28.08937	  2.03495	 26.13746	 14.48255	 11.83567	 -0.91177	 30.52579	708.62097	 24.00	
 15.298	173.587	 27.32383	  0.43666	 27.11924	 13.82628	 11.17635	 -1.12014	 30.55911	708.73401	 24.00	
 15.291	167.167	 27.38512	  0.65653	 26.87362	 15.44710	  9.68804	 -1.06388	 30.59626	708.74799	 24.00	
 15.307	160.676	 27.36780	  0.96922	 26.37190	 17.04922	  8.19680	 -1.00018	 30.55321	708.72400	 24.00	
 15.300	154.261	 27.42126	  1.40607	 25.74292	 18.65732	  6.85445	 -0.99164	 30.59948	708.64301	 24.00	
 15.288	147.854	 27.43505	  1.98936	 24.89827	 20.12607	  5.62363	 -1.00766	 30.59203	708.73401	 24.00	
 15.293	141.428	 27.41035	  2.65406	 23.82819	 21.49135	  4.50017	 -1.04375	 30.53105	708.63397	 23.90	
 15.299	134.985	 27.41895	  3.61279	 22.65952	 22.78916	  3.43952	 -1.08860	 30.53786	708.64600	 24.00	
 15.305	128.583	 27.40389	  4.69375	 21.35751	 23.92770	  2.49620	 -1.14037	 30.52260	708.65698	 23.90	
 15.309	122.142	 27.42767	  5.89711	 19.96137	 24.92418	  1.71853	 -1.19964	 30.53736	708.68597	 23.90	
 15.304	115.711	 27.43988	  7.20147	 18.45181	 25.73934	  1.10334	 -1.24951	 30.53709	708.73602	 24.00	
 15.297	109.291	 27.45796	  8.56835	 16.89028	 26.39578	  0.61016	 -1.27648	 30.54965	708.72101	 24.00	
 15.293	102.897	 27.47272	  9.98719	 15.28860	 26.88531	  0.24618	 -1.31828	 30.58328	708.76202	 24.00	
 15.293	 96.458	 27.43282	 11.39572	 13.62697	 27.12709	  0.07486	 -1.33215	 30.54317	708.69702	 23.90	
 15.300	 90.000	 27.45541	 12.98407	 12.00952	 27.25768	  0.00904	 -1.34581	 30.59866	708.73901	 23.90	
 15.293	 83.542	 27.37569	 14.66034	 10.37601	 27.09525	  0.06948	 -1.30313	 30.53458	708.72699	 23.90	
 15.293	 77.103	 27.36770	 16.32022	  8.82496	 26.79402	  0.28226	 -1.24109	 30.54400	708.65802	 23.90	
 15.297	 70.709	 27.35931	 17.86082	  7.41403	 26.34623	  0.57174	 -1.18432	 30.57059	708.86499	 23.90	
 15.304	 64.289	 27.31363	 19.37163	  6.04981	 25.66876	  1.01899	 -1.14242	 30.56685	708.85699	 23.90	
 15.309	 57.858	 27.24805	 20.72488	  4.75411	 24.81254	  1.62668	 -1.11685	 30.54533	708.78400	 23.90	
 15.305	 51.417	 27.24279	 22.08838	  3.58201	 23.81279	  2.41248	 -1.11862	 30.58173	708.63397	 23.90	
 15.299	 45.015	 27.21820	 23.34002	  2.51985	 22.64786	  3.33190	 -1.15420	 30.59643	708.60699	 23.90	
 15.293	 38.572	 27.13861	 24.40302	  1.61886	 21.29679	  4.42176	 -1.14565	 30.53144	708.64801	 23.90	
 15.288	 32.146	 27.10168	 25.35659	  0.82607	 19.90277	  5.55548	 -1.12032	 30.53172	708.59003	 23.90	
 15.300	 25.739	 27.09917	 26.17351	  0.16919	 18.44878	  6.78738	 -1.08854	 30.57670	708.63397	 23.90	
 15.307	 19.324	 27.04559	 26.77459	 -0.33894	 16.87649	  8.10209	 -1.06426	 30.55593	708.62903	 23.90	
 15.291	 12.833	 27.01949	 27.19152	 -0.63488	 15.26742	  9.52462	 -1.02853	 30.54939	708.73297	 23.90	
 15.298	  6.413	 26.98918	 27.43510	 -0.80774	 13.66484	 11.02650	 -1.01447	 30.54946	708.69299	 23.90	
 15.300	  0.000	 26.94851	 27.48209	 -0.81209	 12.04051	 12.61178	 -0.99399	 30.53588	708.67700	 23.90	
 15.298	 -6.413	 26.92579	 27.36663	 -0.76640	 10.46713	 14.20855	 -0.96766	 30.54480	708.64099	 23.90	
 15.291	-12.833	 26.89452	 27.04992	 -0.55696	  8.94525	 15.79569	 -0.95272	 30.53040	708.53302	 23.90	
 15.307	-19.324	 26.86994	 26.55276	 -0.23432	  7.49728	 17.42184	 -0.92743	 30.54462	708.53601	 23.90	
 15.300	-25.739	 26.83358	 25.86095	  0.26484	  6.16532	 18.95656	 -0.94277	 30.53612	708.64099	 23.90	
 15.288	-32.146	 26.82835	 25.02263	  0.92078	  4.93446	 20.43041	 -0.97804	 30.55696	708.57898	 23.90	
 15.293	-38.572	 26.79464	 23.99497	  1.70898	  3.75411	 21.81416	 -1.01038	 30.54023	708.60101	 23.90	
 15.299	-45.015	 26.77310	 22.83322	  2.62252	  2.67396	 23.10275	 -1.03303	 30.54264	708.55499	 23.90	
 15.305	-51.417	 26.78515	 21.57564	  3.68164	  1.77412	 24.23409	 -1.06401	 30.55810	708.62299	 23.90	
 15.309	-57.858	 26.79916	 20.17945	  4.85860	  0.99520	 25.22346	 -1.03736	 30.57183	708.67200	 23.90	
 15.304	-64.289	 26.79694	 18.67715	  6.13187	  0.37730	 26.03150	 -1.00640	 30.56100	708.57898	 23.90	
 15.297	-70.709	 26.80052	 17.12238	  7.49509	 -0.05034	 26.66096	 -0.97865	 30.55121	708.57501	 23.90	
 15.293	-77.103	 26.84049	 15.59844	  8.91647	 -0.38237	 27.14377	 -0.98798	 30.56699	708.56201	 23.90	
 15.293	-83.542	 26.85684	 13.92120	 10.45811	 -0.57002	 27.43019	 -0.99564	 30.57177	708.61298	 23.90	
 15.300	-90.000	 26.85484	 12.27601	 12.06294	 -0.66825	 27.51734	 -1.06667	 30.54800	708.59003	 23.90	
 15.293	-96.458	 26.85695	 10.73891	 13.68363	 -0.63316	 27.40793	 -1.12405	 30.52393	708.59497	 23.90	
 15.293	-102.897	 26.88376	  9.33112	 15.32257	 -0.45076	 27.14963	 -1.15167	 30.54609	708.60303	 23.90	
 15.297	-109.291	 26.88793	  7.94988	 16.90492	 -0.09080	 26.68914	 -1.15482	 30.52537	708.57800	 23.90	
 15.304	-115.711	 26.96571	  6.60682	 18.50934	  0.42436	 26.10540	 -1.11982	 30.58755	708.54498	 23.90	
 15.309	-122.142	 26.92484	  5.31285	 19.96970	  1.07759	 25.23729	 -1.05509	 30.51660	708.45801	 23.90	
 15.305	-128.583	 27.00206	  4.19002	 21.40244	  1.88119	 24.29907	 -1.01911	 30.56797	708.56097	 23.90	
 15.299	-134.985	 26.99633	  3.15563	 22.65165	  2.78481	 23.15893	 -1.02014	 30.53659	708.52502	 23.90	
 15.293	-141.428	 27.00633	  2.33975	 23.81342	  3.82763	 21.85169	 -1.04146	 30.51604	708.60303	 23.90	
 15.288	-147.854	 27.07695	  1.67324	 24.82542	  5.03916	 20.50224	 -1.06801	 30.54111	708.51099	 23.90	
 15.300	-154.261	 27.10433	  1.17430	 25.66676	  6.28994	 19.04245	 -1.08409	 30.55326	708.59003	 23.80	
 15.307	-160.676	 27.14640	  0.77311	 26.33906	  7.62032	 17.51128	 -1.12297	 30.54378	708.57898	 23.80	
 15.291	-167.167	 27.18954	  0.50771	 26.80957	  9.09468	 15.89312	 -1.17637	 30.53645	708.51599	 23.80	
 15.298	-173.587	 27.21715	  0.35338	 27.08531	 10.61510	 14.31877	 -1.16790	 30.52542	708.58398	 23.80	
 15.300	180.000	 27.29202	  0.32539	 27.21909	 12.19765	 12.75070	 -1.16179	 30.56287	708.41199	 23.80	
 17.000	180.000	 26.41781	 -1.45401	 28.09297	 11.47636	 12.00764	 -1.26984	 30.59478	708.47498	 23.80	
 16.990	-174.179	 26.32333	 -1.43821	 27.94038	  9.89579	 13.53278	 -1.28484	 30.53651	708.41302	 23.80	
 17.009	-168.383	 26.27494	 -1.32179	 27.70528	  8.37763	 15.10564	 -1.25422	 30.53660	708.37799	 23.80	
 17.000	-162.596	 26.24776	 -1.07089	 27.29025	  6.95628	 16.70671	 -1.20387	 30.55703	708.44098	 23.80	
 16.990	-156.759	 26.20907	 -0.70459	 26.68332	  5.60244	 18.26140	 -1.19703	 30.55359	708.44098	 23.80	
 16.995	-150.919	 26.13935	 -0.21443	 25.88053	  4.29431	 19.74117	 -1.18213	 30.52002	708.32703	 23.80	
 16.988	-145.161	 26.11363	  0.36916	 24.96656	  3.07279	 21.17344	 -1.17718	 30.53033	708.45099	 23.80	
 17.014	-139.343	 26.10161	  1.03169	 23.94624	  1.93751	 22.55154	 -1.12894	 30.56031	708.45099	 23.80	
 17.007	-133.546	 26.04469	  1.93445	 22.75031	  0.90744	 23.74117	 -1.11870	 30.53653	708.45203	 23.80	
 17.001	-127.699	 26.02579	  2.81644	 21.41666	  0.05473	 24.85499	 -1.14455	 30.53214	708.47699	 23.80	
 17.006	-121.937	 26.00755	  3.88819	 20.01560	 -0.64550	 25.82157	 -1.15671	 30.52960	708.50800	 23.80	
 17.002	-116.134	 25.98909	  5.14598	 18.52728	 -1.27533	 26.66025	 -1.15954	 30.54689	708.47198	 23.80	
 17.001	-110.310	 25.91350	  6.49723	 16.93347	 -1.75388	 27.25794	 -1.15195	 30.49056	708.43402	 23.80	
 16.988	-104.517	 25.90393	  7.88513	 15.35010	 -2.07103	 27.72752	 -1.08824	 30.48259	708.42603	 23.80	
 17.008	-98.662	 25.91406	  9.32775	 13.73746	 -2.31413	 28.09711	 -1.03286	 30.52353	708.46802	 23.80	
 16.996	-92.909	 25.90060	 10.74192	 12.13894	 -2.39457	 28.24144	 -0.98066	 30.51418	708.46899	 23.80	
 16.996	-87.091	 25.89104	 12.31224	 10.53722	 -2.35368	 28.25389	 -0.92117	 30.53023	708.66199	 23.80	
 17.012	-81.253	 25.86190	 13.89408	  8.96995	 -2.25037	 28.09016	 -0.88984	 30.52835	708.51300	 23.80	
 16.988	-75.483	 25.85263	 15.49808	  7.52613	 -2.05154	 27.76627	 -0.87146	 30.54125	708.42603	 23.80	
 17.001	-69.690	 25.81100	 17.06664	  6.11222	 -1.77680	 27.28022	 -0.88227	 30.52400	708.34998	 23.80	
 17.002	-63.866	 25.83377	 18.64558	  4.77491	 -1.35513	 26.63980	 -0.90932	 30.55748	708.38702	 23.80	
 17.006	-58.063	 25.82980	 20.13690	  3.51817	 -0.77699	 25.82407	 -0.97233	 30.56314	708.42297	 23.80	
 17.001	-52.301	 25.83058	 21.54705	  2.35450	 -0.04101	 24.85712	 -0.98853	 30.54911	708.33099	 23.80	
 17.007	-46.454	 25.80034	 22.85195	  1.26739	  0.84717	 23.70487	 -0.98780	 30.51229	708.40302	 23.80	
 17.014	-40.657	 25.84227	 24.07940	  0.29353	  1.81161	 22.52713	 -0.98933	 30.56207	708.53302	 23.80	
 16.988	-34.839	 25.83343	 25.10685	 -0.50906	  2.93225	 21.14431	 -0.98644	 30.51441	708.45697	 23.80	
 16.995	-29.081	 25.88170	 26.05507	 -1.16381	  4.14353	 19.72539	 -0.95324	 30.54197	708.35797	 23.80	
 16.990	-23.241	 25.91326	 26.82371	 -1.68382	  5.44587	 18.22236	 -0.94031	 30.55162	708.40698	 23.80	
 17.000	-17.404	 25.92522	 27.42362	 -2.06365	  6.79832	 16.65548	 -0.92104	 30.53295	708.39801	 23.80	
 17.009	-11.617	 25.96842	 27.88417	 -2.33311	  8.21979	 15.04860	 -0.94562	 30.53390	708.38898	 23.80	
 16.990	 -5.821	 26.01715	 28.16061	 -2.46598	  9.74552	 13.47225	 -0.96380	 30.54345	708.42902	 23.80	
 17.000	  0.000	 26.01040	 28.25640	 -2.56593	 11.27988	 11.86993	 -0.97230	 30.51069	708.43500	 23.80	
 16.990	  5.821	 26.05973	 28.22569	 -2.53910	 12.91547	 10.29718	 -0.97488	 30.54463	708.51398	 23.80	
 17.009	 11.617	 26.06187	 28.00124	 -2.41539	 14.47962	  8.79892	 -0.99545	 30.51118	708.40399	 23.80	
 17.000	 17.404	 26.13373	 27.66563	 -2.17841	 16.09318	  7.43196	 -1.01541	 30.56297	708.44098	 23.80	
 16.990	 23.241	 26.11662	 27.06681	 -1.81836	 17.65359	  6.05395	 -1.07121	 30.50623	708.34998	 23.80	
 16.995	 29.081	 26.16633	 26.39013	 -1.31841	 19.19164	  4.77974	 -1.13545	 30.54259	708.39001	 23.80	
 16.988	 34.839	 26.22815	 25.53329	 -0.63097	 20.64272	  3.60619	 -1.19198	 30.54098	708.37000	 23.80	
 17.014	 40.657	 26.24498	 24.55278	  0.14680	 22.02580	  2.46207	 -1.22591	 30.55012	708.31897	 23.80	
 17.007	 46.454	 26.25883	 23.38869	  1.10945	 23.27797	  1.44292	 -1.23901	 30.53123	708.43500	 23.80	
 17.001	 52.301	 26.31573	 22.12376	  2.20705	 24.40841	  0.56801	 -1.23346	 30.54001	708.31598	 23.70	
 17.006	 58.063	 26.32057	 20.73993	  3.37165	 25.38062	 -0.16986	 -1.26251	 30.50417	708.45697	 23.80	
 17.002	 63.866	 26.36526	 19.38665	  4.63786	 26.24124	 -0.74410	 -1.26871	 30.51003	708.43500	 23.80	
 17.001	 69.690	 26.43474	 17.88191	  5.98239	 26.99314	 -1.18554	 -1.29878	 30.55062	708.38098	 23.70	
 16.988	 75.483	 26.43402	 16.33643	  7.39744	 27.48928	 -1.50202	 -1.32571	 30.52749	708.57001	 23.80	
 17.012	 81.253	 26.43880	 14.72818	  8.79906	 27.83682	 -1.72496	 -1.35492	 30.51420	708.48901	 23.70	
 16.996	 87.091	 26.49072	 13.04138	 10.39445	 28.01061	 -1.76469	 -1.35599	 30.51690	708.44598	 23.80	
 16.996	 92.909	 26.55567	 11.48812	 12.04214	 28.06572	 -1.78907	 -1.34818	 30.56660	708.49701	 23.70	
 17.008	 98.662	 26.55100	 10.03922	 13.65024	 27.91691	 -1.73578	 -1.29638	 30.56483	708.55103	 23.70	
 16.988	104.517	 26.58402	  8.58141	 15.30427	 27.59308	 -1.48859	 -1.30246	 30.56807	708.53601	 23.80	
 17.001	110.310	 26.54086	  7.14581	 16.88470	 27.03409	 -1.14466	 -1.29475	 30.50541	708.51300	 23.80	
 17.002	116.134	 26.55521	  5.81433	 18.45949	 26.37503	 -0.68506	 -1.27103	 30.52016	708.48798	 23.80	
 17.006	121.937	 26.56417	  4.53758	 19.97480	 25.56142	 -0.04660	 -1.26979	 30.54016	708.40399	 23.70	
 17.001	127.699	 26.59500	  3.34360	 21.41448	 24.62805	  0.71402	 -1.26281	 30.56778	708.37500	 23.70	
 17.007	133.546	 26.52433	  2.42588	 22.72414	 23.46889	  1.50744	 -1.22073	 30.52374	708.46100	 23.70	
 17.014	139.343	 26.53553	  1.44830	 23.95492	 22.24176	  2.52156	 -1.19247	 30.55203	708.35101	 23.70	
 16.988	145.161	 26.55357	  0.76050	 25.04705	 20.87354	  3.66770	 -1.15988	 30.57528	708.42999	 23.70	
 16.995	150.919	 26.50960	  0.11453	 25.92537	 19.41155	  4.83347	 -1.13734	 30.53530	708.39301	 23.70	
 16.990	156.759	 26.46227	 -0.43165	 26.66548	 17.87311	  6.10423	 -1.12072	 30.52086	708.60101	 23.70	
 17.000	162.596	 26.43765	 -0.86331	 27.27049	 16.25989	  7.45877	 -1.14816	 30.51085	708.46600	 23.70	
 17.009	168.383	 26.41710	 -1.17622	 27.69995	 14.66326	  8.91494	 -1.17777	 30.52532	708.40302	 23.70	
 16.990	174.179	 26.43764	 -1.34914	 27.98625	 13.09451	 10.42695	 -1.22829	 30.57556	708.46600	 23.70	
 18.709	174.675	 25.42593	 -3.15473	 28.70850	 12.28213	  9.61481	 -1.26935	 30.56785	708.33600	 23.70	
 18.703	169.441	 25.47570	 -2.97371	 28.51708	 13.85246	  8.16018	 -1.26840	 30.58541	708.25702	 23.70	
 18.691	164.085	 25.48863	 -2.69956	 28.11350	 15.45810	  6.70937	 -1.24511	 30.56322	708.29700	 23.70	
 18.706	158.818	 25.47325	 -2.35326	 27.56506	 17.02904	  5.34589	 -1.22348	 30.53433	708.36200	 23.70	
 18.695	153.537	 25.50415	 -1.86753	 26.86857	 18.55056	  4.06888	 -1.22743	 30.52837	708.15302	 23.70	
 18.704	148.255	 25.51529	 -1.28666	 26.02994	 20.04466	  2.82829	 -1.22335	 30.52675	708.32800	 23.70	
 18.698	142.952	 25.52966	 -0.58605	 25.02991	 21.47625	  1.67533	 -1.24826	 30.52715	708.43701	 23.70	
 18.699	137.625	 25.57928	  0.20135	 23.92832	 22.83644	  0.62882	 -1.27359	 30.56217	708.28601	 23.70	
 18.705	132.343	 25.57390	  1.05982	 22.67674	 24.02458	 -0.26187	 -1.28352	 30.53179	708.20099	 23.70	
 18.713	127.067	 25.57238	  2.19875	 21.35885	 25.13441	 -1.12975	 -1.26832	 30.53762	708.29199	 23.70	
 18.700	121.794	 25.60530	  3.19334	 19.92903	 26.12145	 -1.72208	 -1.25863	 30.55314	708.36200	 23.70	
 18.698	116.504	 25.61172	  4.37197	 18.41145	 26.93529	 -2.26014	 -1.20116	 30.55342	708.31598	 23.70	
 18.707	111.165	 25.59572	  5.71175	 16.83420	 27.61057	 -2.73723	 -1.18386	 30.54830	708.35602	 23.70	
 18.690	105.863	 25.57279	  7.09856	 15.23899	 28.10403	 -3.08011	 -1.13449	 30.51531	708.37500	 23.70	
 18.696	100.583	 25.57603	  8.54815	 13.63721	 28.48359	 -3.33436	 -1.17292	 30.53150	708.36499	 23.70	
 18.700	 95.309	 25.56372	 10.04066	 12.03436	 28.70992	 -3.48061	 -1.18965	 30.54970	708.33099	 23.70	
 18.700	 90.000	 25.58046	 11.50294	 10.43738	 28.79921	 -3.47469	 -1.24886	 30.57251	708.20599	 23.70	
 18.700	 84.691	 25.54100	 13.07648	  8.85407	 28.69258	 -3.39690	 -1.30786	 30.55826	708.34003	 23.70	
 18.696	 79.417	 25.48507	 14.67744	  7.39364	 28.43791	 -3.31418	 -1.31757	 30.53671	708.25702	 23.70	
 18.690	 74.137	 25.44776	 16.25714	  5.97177	 28.02399	 -3.08727	 -1.36468	 30.51412	708.27100	 23.70	
 18.707	 68.835	 25.42377	 17.77035	  4.56351	 27.48671	 -2.75632	 -1.38488	 30.52093	708.26898	 23.70	
 18.698	 63.496	 25.40463	 19.33610	  3.23237	 26.77460	 -2.30189	 -1.36201	 30.53374	708.41998	 23.70	
 18.700	 58.206	 25.37520	 20.71950	  1.97742	 25.93232	 -1.74713	 -1.36175	 30.54133	708.33398	 23.70	
 18.713	 52.933	 25.34101	 22.08504	  0.78003	 24.96840	 -1.06760	 -1.43213	 30.57427	708.16998	 23.70	
 18.705	 47.657	 25.31027	 23.36379	 -0.22986	 23.83666	 -0.27556	 -1.40844	 30.56528	708.20599	 23.70	
 18.699	 42.375	 25.29053	 24.54865	 -1.14355	 22.64184	  0.62695	 -1.35854	 30.59040	708.14203	 23.70	
 18.698	 37.048	 25.23076	 25.58291	 -1.93913	 21.27349	  1.67593	 -1.28115	 30.56895	708.20203	 23.70	
 18.704	 31.745	 25.18199	 26.50942	 -2.57902	 19.82656	  2.83251	 -1.18717	 30.55763	708.11200	 23.70	
 18.695	 26.463	 25.14169	 27.25336	 -3.09453	 18.32884	  4.06046	 -1.09992	 30.53798	708.19299	 23.70	
 18.706	 21.182	 25.11743	 27.89547	 -3.51716	 16.82701	  5.32879	 -1.04332	 30.56305	708.12799	 23.70	
 18.691	 15.915	 25.10726	 28.38946	 -3.82157	 15.26352	  6.69912	 -0.99811	 30.56905	708.21802	 23.70	
 18.703	 10.559	 25.06099	 28.73771	 -4.06282	 13.65693	  8.09392	 -0.97487	 30.57000	708.16199	 23.70	
 18.709	  5.325	 25.03494	 28.92710	 -4.18808	 12.10110	  9.54079	 -0.96334	 30.57785	708.17902	 23.70	
 18.700	  0.000	 24.98493	 28.93780	 -4.19788	 10.48520	 11.11610	 -0.97203	 30.54658	708.25403	 23.70	
 18.709	 -5.325	 24.96992	 28.84931	 -4.13025	  8.94379	 12.69069	 -0.95990	 30.56790	708.21002	 23.70	
 18.703	-10.559	 24.95752	 28.61350	 -3.97605	  7.48071	 14.27204	 -0.97153	 30.57180	708.31702	 23.70	
 18.691	-15.915	 24.92414	 28.18683	 -3.72486	  6.04518	 15.87736	 -0.97114	 30.55914	708.33301	 23.70	
 18.706	-21.182	 24.88739	 27.65674	 -3.40618	  4.67943	 17.42879	 -0.97091	 30.56679	708.32001	 23.70	
 18.695	-26.463	 24.85541	 26.95408	 -2.96224	  3.37054	 18.94097	 -0.97160	 30.56162	708.31598	 23.70	
 18.704	-31.745	 24.80230	 26.09346	 -2.43932	  2.12317	 20.39748	 -0.96881	 30.53660	708.19897	 23.70	
 18.698	-37.048	 24.82928	 25.13623	 -1.78282	  1.01329	 21.81134	 -0.99176	 30.57471	708.24902	 23.70	
 18.699	-42.375	 24.79706	 24.00247	 -0.98456	  0.00171	 23.10136	 -1.01648	 30.54981	708.19501	 23.70	
 18.705	-47.657	 24.76853	 22.76504	 -0.06531	 -0.92550	 24.29735	 -0.98550	 30.53917	708.20203	 23.70	
 18.713	-52.933	 24.76201	 21.43218	  0.96208	 -1.70725	 25.38274	 -0.93479	 30.55274	708.33398	 23.70	
 18.700	-58.206	 24.77595	 20.01605	  2.12890	 -2.33655	 26.33234	 -0.93396	 30.56319	708.29999	 23.70	
 18.698	-63.496	 24.75809	 18.52113	  3.37845	 -2.85530	 27.09115	 -0.89268	 30.51996	708.24103	 23.70	
 18.707	-68.835	 24.81691	 17.01898	  4.70931	 -3.26691	 27.80427	 -0.89970	 30.57141	708.15399	 23.70	
 18.690	-74.137	 24.82547	 15.42979	  6.09848	 -3.57133	 28.30966	 -0.88781	 30.54750	708.24402	 23.70	
 18.696	-79.417	 24.83797	 13.85296	  7.52047	 -3.76308	 28.66131	 -0.89453	 30.54027	708.22900	 23.70	
 18.700	-84.691	 24.89742	 12.28799	  9.00451	 -3.91942	 28.94685	 -0.90466	 30.59702	708.15002	 23.70	
 18.700	-90.000	 24.89562	 10.71001	 10.57381	 -3.99155	 28.98727	 -0.93072	 30.56654	708.16101	 23.70	
 18.700	-95.309	 24.88247	  9.25137	 12.16583	 -3.98706	 28.88696	 -0.93297	 30.53566	708.19000	 23.70	
 18.696	-100.583	 24.92176	  7.83044	 13.76412	 -3.85450	 28.70293	 -1.02263	 30.56623	708.16199	 23.70	
 18.690	-105.863	 24.93686	  6.38603	 15.35793	 -3.58363	 28.32670	 -1.07759	 30.54675	708.11401	 23.70	
 18.707	-111.165	 24.95956	  4.97605	 16.93669	 -3.25114	 27.83995	 -1.15819	 30.56873	708.20099	 23.70	
 18.698	-116.504	 24.96983	  3.73352	 18.48275	 -2.86409	 27.17535	 -1.21097	 30.57810	708.13000	 23.70	
 18.700	-121.794	 24.97453	  2.55594	 19.95003	 -2.34395	 26.35827	 -1.23088	 30.56835	708.22302	 23.70	
 18.713	-127.067	 25.01396	  1.41951	 21.37612	 -1.61337	 25.40962	 -1.27120	 30.56967	708.25201	 23.70	
 18.705	-132.343	 25.04385	  0.54916	 22.70707	 -0.81552	 24.31196	 -1.27000	 30.56703	708.22900	 23.70	
 18.699	-137.625	 25.07270	 -0.25291	 23.92746	  0.11018	 23.10184	 -1.26547	 30.56346	708.09198	 23.70	
 18.698	-142.952	 25.12172	 -0.98555	 25.04418	  1.14194	 21.81833	 -1.27008	 30.58607	708.02899	 23.70	
 18.704	-148.255	 25.12598	 -1.63818	 26.00839	  2.28511	 20.41302	 -1.26565	 30.56965	708.11902	 23.70	
 18.695	-153.537	 25.16630	 -2.16014	 26.83540	  3.55872	 18.93592	 -1.25746	 30.56138	708.04102	 23.70	
 18.706	-158.818	 25.19536	 -2.57921	 27.52447	  4.87416	 17.41394	 -1.25544	 30.55288	708.08801	 23.70	
 18.691	-164.085	 25.25737	 -2.86438	 28.06965	  6.23668	 15.89439	 -1.26698	 30.56912	708.17798	 23.70	
 18.703	-169.441	 25.28489	 -3.11544	 28.45296	  7.66338	 14.28068	 -1.27278	 30.55772	708.19501	 23.70	
 18.709	-174.675	 25.32467	 -3.22035	 28.68005	  9.12782	 12.73428	 -1.32540	 30.56016	708.21002	 23.70	
 18.700	180.000	 25.38333	 -3.22977	 28.77066	 10.67665	 11.21035	 -1.33239	 30.58246	708.04303	 23.70	
 20.400	180.000	 24.29369	 -4.98343	 29.35985	  9.84211	 10.32943	 -1.23128	 30.56454	708.08899	 23.70	
 20.401	-175.153	 24.27103	 -4.97348	 29.31297	  8.34907	 11.83447	 -1.19302	 30.58978	707.91101	 23.70	
 20.407	-170.264	 24.22042	 -4.88650	 29.12721	  6.90459	 13.38145	 -1.15949	 30.59338	708.03497	 23.70	
 20.410	-165.423	 24.15274	 -4.67002	 28.73946	  5.46943	 14.92849	 -1.14645	 30.56068	708.04901	 23.70	
 20.392	-160.496	 24.14055	 -4.35509	 28.26042	  4.12255	 16.50366	 -1.15767	 30.57307	707.88599	 23.70	
 20.401	-155.705	 24.08482	 -4.01860	 27.63996	  2.80514	 17.98458	 -1.18467	 30.56503	708.00098	 23.70	
 20.405	-150.835	 24.02403	 -3.57804	 26.85428	  1.52438	 19.46819	 -1.20846	 30.55656	707.96997	 23.60	
 20.397	-145.903	 23.99937	 -3.00211	 25.96015	  0.39294	 20.90163	 -1.23537	 30.54710	708.05298	 23.70	
 20.392	-141.062	 24.00226	 -2.37054	 24.98560	 -0.66587	 22.27596	 -1.24739	 30.58563	708.08502	 23.70	
 20.396	-136.227	 23.94289	 -1.62893	 23.82494	 -1.63679	 23.53690	 -1.23494	 30.55539	707.91998	 23.70	
 20.408	-131.372	 23.91273	 -0.81262	 22.58977	 -2.47050	 24.71675	 -1.21815	 30.57401	707.84601	 23.60	
 20.410	-126.511	 23.90335	  0.08921	 21.27361	 -3.17730	 25.79094	 -1.21278	 30.59176	707.96698	 23.60	
 20.400	-121.604	 23.89224	  1.12843	 19.82553	 -3.73665	 26.71429	 -1.21554	 30.55773	708.03802	 23.60	
 20.403	-116.741	 23.84674	  2.20805	 18.36713	 -4.39452	 27.53557	 -1.13570	 30.56761	708.04901	 23.60	
 20.413	-111.900	 23.81363	  3.36663	 16.83312	 -4.85021	 28.20337	 -1.06567	 30.56004	708.07501	 23.60	
 20.398	-107.004	 23.81926	  4.72125	 15.27325	 -5.16928	 28.74658	 -0.99251	 30.56600	708.08502	 23.60	
 20.394	-102.132	 23.78679	  6.23521	 13.67962	 -5.39713	 29.12356	 -0.91140	 30.53542	707.95398	 23.60	
 20.403	-97.332	 23.78134	  7.64168	 12.11960	 -5.58689	 29.39931	 -0.86907	 30.56491	707.96503	 23.60	
 20.392	-92.440	 23.76217	  9.12261	 10.53452	 -5.63927	 29.52017	 -0.84525	 30.55806	708.04303	 23.60	
 20.392	-87.560	 23.74095	 10.60832	  8.96207	 -5.59966	 29.51073	 -0.85098	 30.54984	708.08099	 23.60	
 20.403	-82.668	 23.72875	 12.16862	  7.46421	 -5.53133	 29.42108	 -0.85871	 30.58612	707.93402	 23.60	
 20.394	-77.868	 23.69767	 13.70365	  6.03246	 -5.33864	 29.12368	 -0.85097	 30.55534	707.96198	 23.60	
 20.398	-72.996	 23.70721	 15.30047	  4.61359	 -5.10558	 28.76793	 -0.82219	 30.59154	707.91998	 23.60	
 20.413	-68.100	 23.67712	 16.85943	  3.23285	 -4.75827	 28.20337	 -0.81669	 30.57406	707.92798	 23.70	
 20.403	-63.259	 23.67886	 18.34197	  1.98294	 -4.33833	 27.53046	 -0.83952	 30.56206	707.94299	 23.70	
 20.400	-58.396	 23.67232	 19.80349	  0.78839	 -3.86034	 26.74406	 -0.90211	 30.56695	707.94299	 23.70	
 20.410	-53.489	 23.63911	 21.21894	 -0.32867	 -3.27776	 25.80258	 -0.87000	 30.55276	708.05298	 23.70	
 20.408	-48.628	 23.62146	 22.54456	 -1.32727	 -2.57276	 24.73922	 -0.88647	 30.54439	707.96503	 23.70	
 20.396	-43.773	 23.68035	 23.84421	 -2.18667	 -1.73377	 23.58341	 -0.90201	 30.57011	708.02399	 23.70	
 20.392	-38.938	 23.71254	 25.01648	 -2.96847	 -0.77814	 22.32109	 -0.89686	 30.59178	707.98999	 23.70	
 20.397	-34.097	 23.68765	 25.99987	 -3.63991	  0.23705	 20.94568	 -0.90095	 30.53734	708.10602	 23.60	
 20.405	-29.165	 23.70673	 26.91585	 -4.19330	  1.34371	 19.52413	 -0.90309	 30.54534	708.02100	 23.60	
 20.401	-24.295	 23.76338	 27.72546	 -4.64659	  2.57050	 18.07304	 -0.92482	 30.58335	707.98798	 23.70	
 20.392	-19.504	 23.78598	 28.33405	 -5.03209	  3.85697	 16.56264	 -0.91893	 30.56424	707.95898	 23.60	
 20.410	-14.577	 23.83739	 28.87981	 -5.38197	  5.23337	 15.00280	 -0.90389	 30.60732	707.98499	 23.60	
 20.407	 -9.736	 23.84769	 29.21774	 -5.61744	  6.66678	 13.40323	 -0.89233	 30.56440	708.11902	 23.60	
 20.401	 -4.847	 23.87379	 29.45139	 -5.77289	  8.12462	 11.82721	 -0.88316	 30.57430	708.05701	 23.60	
 20.400	  0.000	 23.88483	 29.53092	 -5.84943	  9.63067	 10.27347	 -0.87435	 30.56878	708.00897	 23.60	
 20.401	  4.847	 23.91206	 29.49653	 -5.82595	 11.19934	  8.73348	 -0.87234	 30.56766	707.97400	 23.60	
 20.407	  9.736	 23.92528	 29.32756	 -5.71924	 12.76645	  7.27690	 -0.87461	 30.54668	708.06897	 23.60	
 20.410	 14.577	 23.99097	 29.05902	 -5.51493	 14.34111	  5.89335	 -0.88493	 30.58537	707.95697	 23.60	
 20.392	 19.504	 24.01349	 28.57961	 -5.17850	 15.93328	  4.49879	 -0.92963	 30.56064	708.01001	 23.60	
 20.401	 24.295	 24.04869	 28.03705	 -4.80327	 17.43969	  3.22842	 -0.98693	 30.56329	707.91199	 23.60	
 20.405	 29.165	 24.09421	 27.35531	 -4.35197	 18.94179	  2.01091	 -1.06481	 30.58592	707.89099	 23.60	
 20.397	 34.097	 24.12446	 26.49035	 -3.81727	 20.41062	  0.84776	 -1.17830	 30.57349	707.97400	 23.60	
 20.392	 38.938	 24.17656	 25.53405	 -3.16790	 21.79109	 -0.17347	 -1.25945	 30.57627	707.92297	 23.60	
 20.396	 43.773	 24.20566	 24.44671	 -2.40622	 23.08522	 -1.07099	 -1.32317	 30.57144	708.04401	 23.60	
 20.408	 48.628	 24.20359	 23.21693	 -1.53885	 24.28300	 -1.91463	 -1.39903	 30.54169	708.02399	 23.60	
 20.410	 53.489	 24.26304	 21.94198	 -0.55724	 25.42633	 -2.69384	 -1.44777	 30.59833	707.81799	 23.60	
 20.400	 58.396	 24.28761	 20.54262	  0.56650	 26.38282	 -3.31387	 -1.48101	 30.55667	707.95898	 23.60	
 20.403	 63.259	 24.34656	 19.14220	  1.76189	 27.21748	 -3.82177	 -1.50802	 30.57921	707.88599	 23.60	
 20.413	 68.100	 24.37958	 17.68024	  3.04746	 27.91875	 -4.25821	 -1.48220	 30.57311	707.89801	 23.60	
 20.398	 72.996	 24.42488	 16.18990	  4.45428	 28.52899	 -4.62845	 -1.41486	 30.61128	707.87701	 23.60	
 20.394	 77.868	 24.41270	 14.54849	  5.86914	 28.91264	 -4.82721	 -1.35384	 30.55675	707.83899	 23.60	
 20.403	 82.668	 24.43715	 13.01209	  7.28115	 29.20811	 -4.99772	 -1.30384	 30.55681	707.78699	 23.60	
 20.392	 87.560	 24.49712	 11.47977	  8.79045	 29.37607	 -5.08672	 -1.19048	 30.58857	707.85498	 23.60	
 20.392	 92.440	 24.51071	 10.00797	 10.36011	 29.38743	 -5.14799	 -1.12607	 30.58572	707.83899	 23.60	
 20.403	 97.332	 24.50847	  8.49936	 11.94820	 29.23941	 -5.07833	 -1.10696	 30.56432	707.81000	 23.60	
 20.394	102.132	 24.53917	  7.03629	 13.53677	 28.99669	 -4.89889	 -1.08238	 30.57261	707.86102	 23.60	
 20.398	107.004	 24.53551	  5.59348	 15.13149	 28.56386	 -4.61460	 -1.08141	 30.54779	707.95697	 23.60	
 20.413	111.900	 24.55963	  4.24060	 16.72558	 28.05057	 -4.26113	 -1.09922	 30.58012	707.90802	 23.60	
 20.403	116.741	 24.55165	  3.13716	 18.26310	 27.39841	 -3.91517	 -1.16090	 30.59099	707.88397	 23.60	
 20.400	121.604	 24.55196	  1.85709	 19.75026	 26.58160	 -3.32601	 -1.21981	 30.58993	707.87799	 23.60	
 20.410	126.511	 24.50608	  0.72505	 21.17535	 25.58575	 -2.69313	 -1.26290	 30.55618	707.85498	 23.60	
 20.408	131.372	 24.50311	 -0.23919	 22.53831	 24.49964	 -1.97174	 -1.27106	 30.55527	707.92603	 23.60	
 20.396	136.227	 24.52099	 -1.13690	 23.81742	 23.30693	 -1.11369	 -1.29116	 30.57234	707.91498	 23.60	
 20.392	141.062	 24.51320	 -1.94256	 24.96475	 22.03773	 -0.16778	 -1.31976	 30.59381	707.88800	 23.60	
 20.397	145.903	 24.48460	 -2.67136	 26.00185	 20.65413	  0.87074	 -1.31656	 30.58351	707.97400	 23.60	
 20.405	150.835	 24.44797	 -3.29858	 26.91485	 19.15083	  2.03476	 -1.31729	 30.56458	707.89502	 23.60	
 20.401	155.705	 24.45715	 -3.76739	 27.69782	 17.65492	  3.31452	 -1.30319	 30.58794	707.94598	 23.60	
 20.392	160.496	 24.43312	 -4.14655	 28.30300	 16.14819	  4.58388	 -1.31717	 30.57617	707.95697	 23.60	
 20.410	165.423	 24.40512	 -4.48075	 28.79175	 14.53500	  5.94887	 -1.31800	 30.57361	708.03003	 23.60	
 20.407	170.264	 24.38837	 -4.73867	 29.14219	 12.96651	  7.35511	 -1.28974	 30.59628	707.93103	 23.60	
 20.401	175.153	 24.33519	 -4.88807	 29.30818	 11.40284	  8.80834	 -1.26276	 30.56576	707.91101	 23.60	
  0.141	 45.000	 30.64840	 16.34571	 15.38838	 15.63083	 16.04287	  0.35648	 30.59084	707.92798	 23.60	
  4.001	128.691	 30.58600	 13.74889	 17.59733	 18.26470	 13.03726	  0.24164	 30.60369	707.94000	 23.60	
  4.002	 76.995	 30.56256	 16.90550	 14.35984	 19.01805	 12.32432	  0.20529	 30.57769	707.84900	 23.60	
  4.002	 25.892	 30.54231	 19.37967	 11.88915	 16.94900	 14.29674	  0.24872	 30.59076	707.88800	 23.60	
  4.002	-25.892	 30.50121	 19.31623	 11.88812	 13.69732	 17.48977	  0.25881	 30.58549	707.98700	 23.60	
  4.002	-76.995	 30.45947	 16.73934	 14.35239	 11.70298	 19.58068	  0.22598	 30.55501	707.96698	 23.60	
  4.001	-128.691	 30.50443	 13.61413	 17.57013	 12.41799	 18.82990	  0.24294	 30.56783	707.85498	 23.60	
  4.000	180.000	 30.56286	 12.23117	 19.12053	 15.28091	 15.91602	  0.28631	 30.58504	707.89398	 23.60	
  8.000	180.000	 29.98362	  8.14333	 22.43963	 14.57211	 15.21064	 -0.15515	 30.59517	707.92499	 23.60	
  7.991	-152.370	 29.87778	  8.74894	 21.46637	 11.08413	 18.70284	 -0.20606	 30.56457	707.91199	 23.60	
  7.997	-124.550	 29.80594	 10.76935	 18.86475	  8.50991	 21.56327	 -0.26987	 30.56340	708.00201	 23.60	
  8.006	-96.837	 29.78403	 14.15323	 15.39034	  7.40933	 22.91464	 -0.37438	 30.58330	707.89502	 23.60	
  7.988	-69.228	 29.74374	 17.74022	 11.78304	  7.83644	 22.41676	 -0.38924	 30.56342	707.98999	 23.60	
  7.997	-41.563	 29.75657	 20.77491	  8.90039	  9.58548	 20.22393	 -0.26502	 30.57574	707.93201	 23.60	
  8.008	-13.821	 29.78437	 22.63319	  7.44507	 12.72628	 16.86173	 -0.18593	 30.56646	707.87701	 23.60	
  8.008	 13.821	 29.81175	 22.70063	  7.42295	 16.32884	 13.28812	 -0.21010	 30.54970	707.72198	 23.60	
  7.997	 41.563	 29.90582	 21.03595	  8.86028	 19.68386	 10.20620	 -0.21259	 30.56443	707.88300	 23.60	
  7.988	 69.228	 29.97762	 18.10497	 11.75076	 21.90693	  8.50496	 -0.24889	 30.57706	707.80499	 23.60	
  8.006	 96.837	 30.01069	 14.55310	 15.31889	 22.42274	  8.08052	 -0.28583	 30.56340	707.92499	 23.60	
  7.997	124.550	 30.02680	 11.08500	 18.85251	 21.05408	  9.19125	 -0.22589	 30.57012	707.99500	 23.60	
  7.991	152.370	 30.01629	  8.95945	 21.47799	 18.14190	 11.77326	 -0.14954	 30.58914	707.84399	 23.60	
 12.009	161.059	 28.81064	  4.37202	 24.63811	 17.18131	 10.45217	 -0.66033	 30.57966	707.86401	 23.60	
 12.013	142.081	 28.80636	  5.84916	 22.68877	 20.66088	  7.39441	 -0.72133	 30.54394	707.82898	 23.60	
 12.006	123.113	 28.85276	  8.34832	 19.72898	 23.35768	  5.24650	 -0.81929	 30.56724	707.80200	 23.60	
 12.007	104.200	 28.84523	 11.41146	 16.08698	 24.94515	  3.99295	 -0.94296	 30.55260	707.79797	 23.60	
 11.989	 85.301	 28.83174	 15.27049	 12.29861	 25.25716	  3.76396	 -0.93559	 30.57366	708.00098	 23.60	
 12.013	 66.294	 28.77618	 18.91356	  8.74530	 24.25336	  4.48810	 -0.80245	 30.57619	707.76202	 23.60	
 12.012	 47.388	 28.67983	 22.02443	  5.92757	 22.00773	  6.18672	 -0.79131	 30.56562	707.82501	 23.50	
 11.990	 28.440	 28.57876	 24.31334	  3.93763	 18.85704	  8.73996	 -0.77662	 30.54754	707.92603	 23.50	
 11.991	  9.464	 28.49805	 25.48258	  3.00429	 15.20512	 12.02109	 -0.79273	 30.53801	707.70599	 23.50	
 11.991	 -9.464	 28.47566	 25.44948	  3.03723	 11.46484	 15.76985	 -0.72252	 30.57772	707.87201	 23.50	
 11.990	-28.440	 28.41200	 24.08883	  3.99328	  8.11765	 19.42242	 -0.73559	 30.57850	707.97101	 23.50	
 12.012	-47.388	 28.37041	 21.59792	  5.98359	  5.49040	 22.52913	 -0.89131	 30.57520	707.93597	 23.50	
 12.013	-66.294	 28.37219	 18.34792	  8.79982	  3.76929	 24.70521	 -0.97242	 30.58103	707.83899	 23.50	
 11.989	-85.301	 28.45250	 14.74794	 12.37900	  3.08956	 25.68061	 -1.00258	 30.60381	707.78003	 23.50	
 12.007	-104.200	 28.46122	 10.94761	 16.14417	  3.29741	 25.37296	 -0.95455	 30.58703	707.82501	 23.50	
 12.006	-123.113	 28.49387	  7.88245	 19.73508	  4.51999	 23.82196	 -0.77877	 30.56186	707.72601	 23.50	
 12.013	-142.081	 28.55033	  5.50796	 22.67596	  6.76441	 21.14933	 -0.71498	 30.55061	707.81598	 23.50	
 12.009	-161.059	 28.65516	  4.12831	 24.62246	  9.79576	 17.73951	 -0.76448	 30.57104	707.78497	 23.50	
 16.000	180.000	 26.94955	 -0.39984	 27.59289	 11.90805	 12.47601	 -1.25003	 30.59124	707.83899	 23.50	
 15.990	-165.604	 26.84289	 -0.16534	 27.08480	  8.30471	 16.16559	 -1.24690	 30.57374	707.77301	 23.50	
 16.002	-151.165	 26.73413	  0.72042	 25.59279	  5.12996	 19.76118	 -1.19284	 30.57173	707.79901	 23.50	
 16.002	-136.836	 26.64420	  2.28584	 23.22550	  2.38518	 22.96902	 -1.10897	 30.58194	707.82098	 23.50	
 15.995	-122.439	 26.63053	  4.68502	 20.12939	  0.40306	 25.51390	 -1.15927	 30.60281	707.95099	 23.50	
 15.993	-107.966	 26.56005	  7.76155	 16.51839	 -0.92891	 27.18008	 -1.20366	 30.59829	707.83600	 23.50	
 16.005	-93.629	 26.47853	 11.03164	 12.71868	 -1.43637	 27.85582	 -1.10754	 30.55468	707.75299	 23.50	
 15.992	-79.234	 26.41039	 14.74939	  9.01576	 -1.25310	 27.59256	 -0.98782	 30.53148	707.68701	 23.50	
 16.009	-64.774	 26.39706	 18.47567	  5.71991	 -0.43998	 26.41838	 -1.02927	 30.58172	707.61603	 23.50	
 15.997	-50.364	 26.43228	 21.90355	  2.89280	  1.21809	 24.30947	 -1.07722	 30.60023	707.71399	 23.50	
 15.997	-36.045	 26.44424	 24.66980	  0.64522	  3.57368	 21.41528	 -1.04418	 30.58466	707.59698	 23.50	
 16.000	-21.597	 26.45579	 26.59538	 -0.81824	  6.50901	 17.93447	 -0.97916	 30.53083	707.55603	 23.50	
 16.003	 -7.169	 26.56624	 27.66869	 -1.48141	  9.92933	 14.19924	 -1.01988	 30.55895	707.45502	 23.50	
 16.003	  7.169	 26.63060	 27.75817	 -1.56427	 13.63259	 10.49893	 -1.05948	 30.56857	707.57001	 23.50	
 16.000	 21.597	 26.69840	 26.89121	 -0.96349	 17.36356	  7.16839	 -1.11017	 30.57595	707.61902	 23.50	
 15.997	 36.045	 26.79237	 25.05710	  0.54611	 20.86001	  4.27556	 -1.21657	 30.57895	707.65198	 23.50	
 15.997	 50.364	 26.85374	 22.41161	  2.75883	 23.81245	  1.85927	 -1.22445	 30.57268	707.60999	 23.50	
 16.009	 64.774	 26.93349	 19.21692	  5.60550	 26.00822	  0.22065	 -1.24541	 30.55894	707.72302	 23.50	
 15.992	 79.234	 27.01653	 15.61354	  8.89081	 27.30864	 -0.60732	 -1.35422	 30.58674	707.69501	 23.50	
 16.005	 93.629	 27.05699	 11.74210	 12.60773	 27.57183	 -0.76379	 -1.39257	 30.56820	707.79102	 23.50	
 15.993	107.966	 27.11686	  8.41361	 16.43411	 26.85707	 -0.23525	 -1.34377	 30.57857	707.71997	 23.50	
 15.995	122.439	 27.08114	  5.26620	 20.05604	 25.12385	  1.05795	 -1.28384	 30.53466	707.74500	 23.50	
 16.002	136.836	 27.06722	  2.65899	 23.20541	 22.58797	  3.07335	 -1.17669	 30.54985	707.77301	 23.50	
 16.002	151.165	 27.05569	  1.03202	 25.61051	 19.37638	  5.71197	 -1.09268	 30.57962	707.71100	 23.50	
 15.990	165.604	 27.02212	  0.00328	 27.09902	 15.67324	  8.90200	 -1.15010	 30.58644	707.72198	 23.50	
 20.003	168.362	 24.60274	 -4.24872	 28.83934	 13.69009	  7.04061	 -1.30999	 30.52339	707.83801	 23.50	
 20.008	156.764	 24.68857	 -3.49174	 27.73414	 17.38421	  3.87169	 -1.29365	 30.57133	707.72302	 23.50	
 20.000	145.147	 24.72873	 -2.17722	 25.76341	 20.87407	  1.03781	 -1.30156	 30.56815	707.72198	 23.50	
 19.995	133.545	 24.80020	 -0.28477	 23.12110	 23.95205	 -1.24771	 -1.29914	 30.59419	707.71100	 23.50	
 20.009	121.926	 24.77627	  2.16936	 19.86561	 26.41029	 -2.95981	 -1.21418	 30.57165	707.70801	 23.50	
 20.005	110.327	 24.83221	  4.96471	 16.32444	 28.12592	 -3.99356	 -1.13585	 30.58175	707.73401	 23.50	
 19.989	 98.733	 24.80327	  8.31649	 12.58981	 29.07096	 -4.64135	 -1.08275	 30.58518	707.64697	 23.50	
 19.999	 87.075	 24.74582	 11.78511	  8.86279	 29.21541	 -4.67652	 -1.23802	 30.56381	707.77698	 23.50	
 19.992	 75.457	 24.69931	 15.51395	  5.47488	 28.60428	 -4.33663	 -1.40235	 30.57286	707.69800	 23.50	
 20.009	 63.844	 24.62593	 19.04846	  2.25584	 27.20659	 -3.50155	 -1.47692	 30.57438	707.70599	 23.50	
 19.989	 52.269	 24.54098	 22.27345	 -0.42122	 25.07960	 -2.11508	 -1.44255	 30.57147	707.61798	 23.50	
 19.999	 40.602	 24.45195	 25.11773	 -2.57491	 22.23909	 -0.17352	 -1.31368	 30.56792	707.66699	 23.50	
 20.004	 29.051	 24.32643	 27.23981	 -4.00402	 18.94100	  2.34559	 -1.04533	 30.52916	707.66400	 23.50	
 20.005	 17.433	 24.28809	 28.70606	 -4.96322	 15.39674	  5.36054	 -0.91037	 30.58829	707.79401	 23.40	
 20.006	  5.780	 24.20128	 29.38247	 -5.44408	 11.69075	  8.66321	 -0.87514	 30.58954	707.50598	 23.40	
 20.006	 -5.780	 24.12719	 29.29804	 -5.38467	  8.06866	 12.26877	 -0.89191	 30.56061	707.78400	 23.50	
 20.005	-17.433	 24.04949	 28.44648	 -4.82631	  4.71102	 15.99510	 -0.90245	 30.54294	707.76001	 23.40	
 20.004	-29.051	 23.99167	 26.87679	 -3.86678	  1.70189	 19.53309	 -0.90048	 30.55505	707.77002	 23.40	
 19.999	-40.602	 23.97252	 24.57911	 -2.39377	 -0.77589	 22.72587	 -0.93062	 30.56094	707.73700	 23.40	
 19.989	-52.269	 23.94006	 21.58745	 -0.24630	 -2.75053	 25.49734	 -0.89405	 30.57119	707.74902	 23.40	
 20.009	-63.844	 23.95061	 18.25714	  2.42695	 -4.02878	 27.50562	 -0.80848	 30.56117	707.74597	 23.40	
 19.992	-75.457	 23.96145	 14.63118	  5.58861	 -4.82663	 28.79482	 -0.81167	 30.53484	707.78497	 23.40	
 19.999	-87.075	 24.05185	 10.97774	  9.02316	 -5.19207	 29.39482	 -0.84322	 30.57791	707.66302	 23.40	
 19.989	-98.733	 24.07158	  7.52037	 12.72704	 -5.14019	 29.19380	 -0.86854	 30.54730	707.69702	 23.40	
 20.005	-110.327	 24.15774	  4.13054	 16.46574	 -4.59248	 28.36174	 -1.05935	 30.64701	707.65198	 23.40	
 20.009	-121.926	 24.22122	  1.41054	 19.97708	 -3.37375	 26.64761	 -1.20777	 30.62407	707.79102	 23.40	
 19.995	-133.545	 24.21297	 -0.80202	 23.12280	 -1.76330	 24.19919	 -1.22053	 30.56298	707.72198	 23.40	
 20.000	-145.147	 24.26611	 -2.54231	 25.74037	  0.52826	 21.18818	 -1.23220	 30.55001	707.69202	 23.40	
 20.008	-156.764	 24.35995	 -3.70644	 27.68573	  3.38610	 17.77554	 -1.14809	 30.56079	707.72803	 23.40	
 20.003	-168.362	 24.45473	 -4.39761	 28.84919	  6.57614	 14.12392	 -1.17327	 30.55884	707.78198	 23.40	
 20.000	180.000	 24.58308	 -4.55159	 29.25643	 10.05297	 10.51895	 -1.25649	 30.58863	707.79797	 23.40	
