FileType=PCF
NHL=14
Date=10/23/18	12:56:52
Facility=APL
Serial=16328-1
Customer=NASA
NP=6
Mach=0.200000
Calibration=1:1
CalPts=490
TstPts=95
PortNumbering=AP Standard
Units=Torr C m/s kg/m^3 deg mm 
Theta[deg]	Phi[deg]	P1[Torr]	P2[Torr]	P3[Torr]	P4[Torr]	P5[Torr]	P6[Torr]	Pt[Torr]	Ps[Abs,Torr]	Ts[C]	
  0.000	  0.000	 19.44108	 10.21649	  9.81798	  9.85855	 10.15314	  0.14983	 19.41745	709.04303	 37.80	
  1.691	128.401	 19.44946	  9.61152	 10.41426	 10.61477	  9.38772	  0.13811	 19.44392	709.08899	 38.00	
  1.692	 77.194	 19.45512	 10.42889	  9.58134	 10.80599	  9.20493	  0.14449	 19.44663	709.00500	 38.10	
  1.699	 26.182	 19.48633	 11.11292	  8.94299	 10.27474	  9.73547	  0.14000	 19.47942	709.10602	 38.20	
  1.699	-26.182	 19.47068	 11.08881	  8.93646	  9.39803	 10.58287	  0.13379	 19.46412	709.00098	 38.30	
  1.692	-77.194	 19.44450	 10.39648	  9.57664	  8.86003	 11.12929	  0.13268	 19.44275	708.94897	 38.40	
  1.691	-128.401	 19.46178	  9.59577	 10.42104	  9.07063	 10.94169	  0.14077	 19.45264	708.98901	 38.40	
  1.700	180.000	 19.50625	  9.26087	 10.82539	  9.85719	 10.21555	  0.14377	 19.49866	708.94098	 38.50	
  3.400	180.000	 19.49879	  8.20798	 11.80293	  9.79719	 10.15401	  0.10937	 19.51516	708.94098	 38.50	
  3.388	-152.325	 19.46863	  8.40474	 11.55368	  8.86979	 11.04780	  0.09815	 19.48758	708.90601	 38.50	
  3.397	-124.529	 19.45862	  8.98004	 10.89459	  8.16263	 11.78078	  0.09351	 19.47847	708.94299	 38.50	
  3.399	-96.763	 19.43522	  9.84502	  9.96173	  7.81817	 12.11634	  0.08767	 19.46314	709.03302	 38.50	
  3.394	-69.283	 19.41730	 10.76765	  9.02954	  7.91516	 11.96928	  0.08151	 19.44936	709.01599	 38.50	
  3.400	-41.398	 19.45738	 11.64333	  8.25145	  8.44345	 11.42275	  0.08686	 19.49321	709.00500	 38.50	
  3.401	-14.021	 19.44550	 12.10580	  7.81669	  9.21371	 10.58671	  0.09104	 19.47542	708.90399	 38.60	
  3.401	 14.021	 19.45440	 12.12341	  7.83185	 10.23151	  9.58513	  0.10246	 19.48236	708.89301	 38.60	
  3.400	 41.398	 19.44977	 11.69830	  8.23734	 11.09501	  8.77583	  0.09424	 19.48121	708.96503	 38.70	
  3.394	 69.283	 19.43477	 10.87369	  9.01501	 11.65106	  8.27358	  0.10452	 19.45192	708.97803	 38.70	
  3.399	 96.763	 19.40548	  9.91589	  9.93728	 11.77617	  8.15840	  0.10427	 19.41691	709.03302	 38.70	
  3.397	124.529	 19.44973	  9.05965	 10.87780	 11.46127	  8.50392	  0.10361	 19.46526	708.95099	 38.80	
  3.388	152.325	 19.42863	  8.42331	 11.52574	 10.70722	  9.20353	  0.10820	 19.43439	709.05103	 38.90	
  5.099	161.165	 19.37708	  7.28517	 12.55575	 10.65553	  9.02266	  0.02196	 19.46719	709.07800	 38.90	
  5.109	142.013	 19.36613	  7.70774	 12.03919	 11.56962	  8.14372	 -0.00885	 19.45125	709.04102	 39.00	
  5.095	123.033	 19.36638	  8.42921	 11.27005	 12.26508	  7.52713	  0.00419	 19.45913	708.94397	 39.00	
  5.105	104.191	 19.39723	  9.33080	 10.34223	 12.71339	  7.14400	  0.00901	 19.48725	708.93799	 39.00	
  5.093	 85.207	 19.41577	 10.31239	  9.36868	 12.79238	  7.07879	  0.00188	 19.51442	708.98199	 39.00	
  5.104	 66.290	 19.41670	 11.30425	  8.39700	 12.53296	  7.27148	 -0.00269	 19.51932	709.00598	 39.00	
  5.094	 47.331	 19.37018	 12.16125	  7.56165	 11.89036	  7.77373	  0.02858	 19.48207	708.97601	 38.90	
  5.089	 28.397	 19.32188	 12.74096	  6.98491	 11.04099	  8.48727	 -0.00659	 19.44394	708.99200	 38.90	
  5.096	  9.576	 19.30391	 13.06280	  6.66975	 10.06402	  9.38473	 -0.00165	 19.42456	709.00598	 38.90	
  5.096	 -9.576	 19.28325	 13.01469	  6.67748	  9.02486	 10.38798	 -0.01200	 19.41922	709.00000	 39.00	
  5.089	-28.397	 19.24731	 12.62872	  6.95989	  8.08806	 11.34412	 -0.01528	 19.39200	708.96503	 39.00	
  5.094	-47.331	 19.24044	 11.95963	  7.52773	  7.33856	 12.16690	 -0.03611	 19.38807	709.03003	 39.10	
  5.104	-66.290	 19.23449	 11.08819	  8.33486	  6.84538	 12.73759	 -0.04300	 19.39038	708.93298	 39.20	
  5.093	-85.207	 19.27179	 10.12585	  9.29880	  6.65938	 13.01957	 -0.03883	 19.42538	708.93298	 39.30	
  5.105	-104.191	 19.32076	  9.19293	 10.30650	  6.75798	 12.97165	 -0.02541	 19.46732	708.94098	 39.40	
  5.095	-123.033	 19.30540	  8.30864	 11.25021	  7.13502	 12.55628	 -0.02401	 19.43914	708.94098	 39.40	
  5.109	-142.013	 19.32129	  7.61125	 12.03221	  7.80456	 11.85348	 -0.02781	 19.43972	708.85699	 39.40	
  5.099	-161.165	 19.32697	  7.21862	 12.52496	  8.68750	 10.94359	 -0.00292	 19.44328	708.95697	 39.40	
  5.100	180.000	 19.28656	  7.06524	 12.66766	  9.62268	  9.93986	 -0.00340	 19.38123	708.94397	 39.40	
  6.800	180.000	 19.15835	  5.92089	 13.59718	  9.45297	  9.75557	 -0.10711	 19.41481	709.00000	 39.40	
  6.796	-166.229	 19.15574	  6.00394	 13.47115	  8.49241	 10.73457	 -0.12992	 19.42220	708.90601	 39.50	
  6.808	-152.311	 19.12491	  6.29310	 13.08099	  7.55772	 11.69288	 -0.14165	 19.39843	708.95099	 39.50	
  6.795	-138.383	 19.12007	  6.79120	 12.49221	  6.79887	 12.51551	 -0.12858	 19.40935	708.95203	 39.50	
  6.792	-124.591	 19.04583	  7.42454	 11.68243	  6.15157	 13.15063	 -0.14309	 19.35217	708.93298	 39.50	
  6.787	-110.754	 19.02694	  8.23642	 10.77404	  5.71606	 13.61388	 -0.14911	 19.34397	708.89697	 39.60	
  6.800	-96.985	 19.00402	  9.12143	  9.80985	  5.48012	 13.84497	 -0.16434	 19.34190	708.96198	 39.60	
  6.800	-83.015	 19.03299	 10.12666	  8.81925	  5.47077	 13.86248	 -0.17570	 19.36997	708.97400	 39.70	
  6.787	-69.246	 19.06191	 11.10474	  7.90632	  5.69483	 13.61097	 -0.18137	 19.40074	708.99402	 39.80	
  6.792	-55.409	 19.06482	 12.01099	  7.08386	  6.09083	 13.11835	 -0.16890	 19.39404	708.92200	 39.80	
  6.795	-41.617	 19.05386	 12.77850	  6.38654	  6.66796	 12.44355	 -0.14398	 19.38298	708.89301	 39.90	
  6.808	-27.689	 18.98735	 13.35860	  5.84163	  7.41253	 11.54192	 -0.13800	 19.31357	708.92700	 39.90	
  6.796	-13.771	 18.99538	 13.75293	  5.51855	  8.31058	 10.60899	 -0.13311	 19.31239	708.98901	 39.90	
  6.800	  0.000	 18.99285	 13.88390	  5.43005	  9.28726	  9.62090	 -0.12213	 19.30884	708.92700	 40.00	
  6.796	 13.771	 19.03062	 13.82006	  5.53537	 10.28534	  8.67735	 -0.12026	 19.34631	708.98901	 40.10	
  6.808	 27.689	 19.02514	 13.46720	  5.85228	 11.23222	  7.79313	 -0.11718	 19.32832	708.92999	 40.20	
  6.795	 41.617	 19.01615	 12.87255	  6.35839	 12.07383	  7.04027	 -0.11409	 19.30666	708.94598	 40.20	
  6.792	 55.409	 19.00727	 12.11978	  7.03863	 12.75156	  6.45789	 -0.10532	 19.27628	708.92700	 40.30	
  6.787	 69.246	 18.98812	 11.21944	  7.86378	 13.24139	  6.03824	 -0.11843	 19.25063	708.86798	 40.50	
  6.800	 83.015	 19.02419	 10.29033	  8.79597	 13.52319	  5.86164	 -0.12200	 19.27452	708.91101	 40.60	
  6.800	 96.985	 19.01152	  9.28794	  9.78465	 13.52613	  5.86972	 -0.12026	 19.26257	708.91199	 40.70	
  6.787	110.754	 19.01256	  8.36941	 10.74652	 13.28808	  6.08388	 -0.11689	 19.25180	708.89001	 40.70	
  6.792	124.591	 19.00006	  7.52523	 11.63441	 12.81547	  6.47883	 -0.12215	 19.23044	708.95203	 40.80	
  6.795	138.383	 19.00809	  6.83564	 12.41150	 12.14224	  7.08171	 -0.10986	 19.24232	708.91199	 40.90	
  6.808	152.311	 18.98184	  6.32579	 12.96917	 11.28228	  7.85346	 -0.10394	 19.21631	709.03998	 41.00	
  6.796	166.229	 18.99126	  6.00634	 13.35069	 10.35594	  8.72444	 -0.10295	 19.23305	708.90900	 41.20	
  8.491	168.704	 18.77331	  4.80064	 14.23786	 10.16268	  8.46700	 -0.24694	 19.24162	708.93298	 41.30	
  8.502	157.493	 18.81321	  5.08587	 13.95780	 11.16606	  7.56506	 -0.23035	 19.26853	708.82202	 41.40	
  8.494	146.194	 18.81255	  5.53640	 13.44237	 12.08741	  6.71275	 -0.24153	 19.26530	708.93597	 41.40	
  8.495	135.039	 18.81981	  6.10976	 12.79154	 12.88762	  6.02488	 -0.23950	 19.27105	708.94897	 41.50	
  8.487	123.723	 18.83270	  6.85317	 11.98311	 13.54779	  5.48089	 -0.24797	 19.28693	708.92798	 41.50	
  8.492	112.575	 18.82455	  7.66940	 11.08686	 14.04772	  5.03313	 -0.27010	 19.29383	708.87598	 41.50	
  8.510	101.220	 18.85204	  8.62897	 10.09255	 14.38174	  4.75794	 -0.28192	 19.32682	708.90399	 41.40	
  8.500	 90.000	 18.88769	  9.61794	  9.11694	 14.47815	  4.69522	 -0.26558	 19.35630	708.96802	 41.40	
  8.510	 78.780	 18.86283	 10.61192	  8.11708	 14.36695	  4.74269	 -0.25962	 19.34822	708.93597	 41.30	
  8.492	 67.425	 18.86950	 11.60231	  7.17603	 14.01361	  5.03031	 -0.25561	 19.35014	709.00000	 41.30	
  8.487	 56.277	 18.87073	 12.49740	  6.34745	 13.51670	  5.41472	 -0.23797	 19.37213	708.99402	 41.20	
  8.495	 44.961	 18.84022	 13.26592	  5.61722	 12.82836	  5.96975	 -0.24366	 19.35460	709.00800	 41.10	
  8.494	 33.806	 18.83493	 13.92345	  5.02552	 12.01308	  6.67113	 -0.25621	 19.36413	708.99701	 41.10	
  8.502	 22.507	 18.79665	 14.40034	  4.58427	 11.06427	  7.48461	 -0.27208	 19.33680	709.03198	 41.00	
  8.491	 11.296	 18.80920	 14.68435	  4.34502	 10.08399	  8.41611	 -0.26646	 19.35082	709.01703	 41.00	
  8.500	  0.000	 18.83787	 14.80449	  4.24662	  9.08610	  9.40638	 -0.27058	 19.39915	709.02197	 40.90	
  8.491	-11.296	 18.82180	 14.67254	  4.32943	  8.06970	 10.42294	 -0.28166	 19.38209	709.00500	 40.90	
  8.502	-22.507	 18.82076	 14.34783	  4.56916	  7.13001	 11.40369	 -0.27984	 19.39643	709.06702	 40.80	
  8.494	-33.806	 18.77459	 13.78154	  5.01112	  6.27733	 12.29373	 -0.27858	 19.35020	709.03802	 40.80	
  8.495	-44.961	 18.80853	 13.12688	  5.59389	  5.57292	 13.13705	 -0.30652	 19.39129	709.00897	 40.70	
  8.487	-56.277	 18.80002	 12.30220	  6.30249	  4.98867	 13.81951	 -0.33391	 19.39289	709.08698	 40.80	
  8.492	-67.425	 18.79213	 11.39469	  7.13005	  4.57223	 14.31557	 -0.35179	 19.38900	709.00000	 40.70	
  8.510	-78.780	 18.79523	 10.37574	  8.08266	  4.31664	 14.63479	 -0.34543	 19.39653	708.95697	 40.70	
  8.500	-90.000	 18.79324	  9.38747	  9.06712	  4.26253	 14.74335	 -0.31336	 19.39385	708.99402	 40.60	
  8.510	-101.220	 18.80526	  8.40609	 10.07514	  4.33582	 14.69250	 -0.31132	 19.41571	709.02399	 40.60	
  8.492	-112.575	 18.84407	  7.48271	 11.10265	  4.63689	 14.38121	 -0.29402	 19.43825	708.91199	 40.50	
  8.487	-123.723	 18.83210	  6.68773	 11.99086	  5.08706	 13.86730	 -0.28825	 19.40086	709.05701	 40.40	
  8.495	-135.039	 18.85582	  5.96332	 12.83902	  5.67553	 13.21952	 -0.26487	 19.40805	709.01599	 40.40	
  8.494	-146.194	 18.87186	  5.42821	 13.48855	  6.42494	 12.41910	 -0.26645	 19.39804	709.01703	 40.30	
  8.502	-157.493	 18.88497	  5.00550	 14.03228	  7.26616	 11.50639	 -0.27690	 19.39072	709.02502	 40.30	
  8.491	-168.704	 18.94011	  4.79462	 14.36914	  8.24438	 10.54754	 -0.26600	 19.43693	708.97302	 40.30	
  8.500	180.000	 18.94667	  4.73908	 14.46628	  9.24866	  9.54180	 -0.26270	 19.43438	709.00098	 40.30	
 10.200	180.000	 18.63128	  3.51014	 15.27996	  8.98216	  9.22404	 -0.42567	 19.42254	708.94598	 40.30	
 10.191	-170.497	 18.57806	  3.54811	 15.15446	  7.94539	 10.23178	 -0.43461	 19.38834	708.97601	 40.30	
 10.210	-161.034	 18.55916	  3.72925	 14.89246	  6.96163	 11.22866	 -0.45334	 19.38382	708.86298	 40.20	
 10.194	-151.526	 18.56584	  4.07914	 14.45929	  6.07457	 12.20478	 -0.43331	 19.41251	708.89801	 40.30	
 10.190	-142.105	 18.55205	  4.54425	 13.85839	  5.26875	 13.09636	 -0.41941	 19.41483	708.85999	 40.30	
 10.215	-132.646	 18.50306	  5.12849	 13.10126	  4.54515	 13.87251	 -0.41025	 19.39098	708.94897	 40.30	
 10.203	-123.092	 18.45181	  5.86183	 12.19144	  3.94307	 14.50146	 -0.42254	 19.34912	708.97302	 40.30	
 10.192	-113.678	 18.45652	  6.69714	 11.28245	  3.51223	 14.99843	 -0.44587	 19.37144	708.92999	 40.30	
 10.208	-104.249	 18.49615	  7.59492	 10.33031	  3.20457	 15.37880	 -0.47514	 19.42152	708.91400	 40.30	
 10.210	-94.801	 18.45442	  8.55857	  9.29164	  3.04032	 15.52605	 -0.47420	 19.38403	708.94598	 40.40	
 10.210	-85.199	 18.42430	  9.56715	  8.22816	  3.01763	 15.49411	 -0.50827	 19.35840	709.01599	 40.30	
 10.208	-75.751	 18.47146	 10.60306	  7.27623	  3.16618	 15.33378	 -0.52630	 19.40182	708.94897	 40.40	
 10.192	-66.322	 18.50618	 11.60552	  6.38134	  3.46060	 14.98990	 -0.53178	 19.43162	708.98401	 40.40	
 10.203	-56.908	 18.52593	 12.54817	  5.53816	  3.86684	 14.51059	 -0.50566	 19.44856	709.00897	 40.40	
 10.215	-47.354	 18.48996	 13.39081	  4.75966	  4.41168	 13.81764	 -0.46568	 19.41196	708.95398	 40.40	
 10.190	-37.895	 18.54689	 14.16262	  4.17046	  5.14054	 13.01267	 -0.43529	 19.45459	708.98901	 40.30	
 10.194	-28.474	 18.52081	 14.71041	  3.69731	  5.93134	 12.13304	 -0.41491	 19.40201	708.99701	 40.30	
 10.210	-18.966	 18.48877	 15.15880	  3.31551	  6.79423	 11.15852	 -0.41971	 19.37783	708.97601	 40.20	
 10.191	 -9.503	 18.55191	 15.49805	  3.11764	  7.78268	 10.17683	 -0.42253	 19.41843	708.99402	 40.20	
 10.200	  0.000	 18.56933	 15.61615	  3.06259	  8.82404	  9.14906	 -0.40471	 19.44435	708.90100	 40.20	
 10.191	  9.503	 18.50900	 15.53122	  3.10213	  9.80305	  8.14577	 -0.40236	 19.42131	708.91101	 40.10	
 10.210	 18.966	 18.57057	 15.31045	  3.34504	 10.83994	  7.21425	 -0.45265	 19.43453	708.91901	 40.10	
 10.194	 28.474	 18.61781	 14.92282	  3.69564	 11.84044	  6.34297	 -0.45343	 19.50477	709.06299	 40.10	
 10.190	 37.895	 18.61455	 14.33547	  4.22322	 12.71760	  5.56549	 -0.41158	 19.45100	708.96600	 40.10	
 10.215	 47.354	 18.63829	 13.69434	  4.82048	 13.55336	  4.85571	 -0.37797	 19.48138	708.96997	 40.00	
 10.203	 56.908	 18.61791	 12.82790	  5.53780	 14.24845	  4.30428	 -0.39361	 19.42104	708.96802	 40.00	
 10.192	 66.322	 18.65754	 11.90413	  6.42492	 14.77527	  3.89690	 -0.40938	 19.47241	708.95203	 39.90	
 10.208	 75.751	 18.63846	 10.94066	  7.34798	 15.10879	  3.62591	 -0.42972	 19.42299	708.99402	 39.90	
 10.210	 85.199	 18.67870	  9.92668	  8.33636	 15.37155	  3.47686	 -0.41533	 19.46713	708.99701	 39.90	
 10.210	 94.801	 18.71069	  8.93159	  9.37835	 15.37848	  3.49110	 -0.45259	 19.49097	708.92200	 39.90	
 10.208	104.249	 18.70591	  7.90622	 10.43528	 15.23245	  3.66491	 -0.46163	 19.48262	708.87903	 39.80	
 10.192	113.678	 18.73237	  7.02806	 11.40207	 14.91924	  3.96715	 -0.45623	 19.48610	708.94897	 39.80	
 10.203	123.092	 18.70740	  6.14420	 12.35295	 14.37608	  4.40615	 -0.43573	 19.50562	708.90900	 39.70	
 10.215	132.646	 18.71155	  5.39529	 13.20556	 13.73055	  4.90546	 -0.41590	 19.46573	708.98901	 39.70	
 10.190	142.105	 18.70767	  4.76107	 13.93352	 12.91716	  5.64264	 -0.37478	 19.46033	708.96600	 39.70	
 10.194	151.526	 18.71281	  4.24373	 14.53330	 12.04081	  6.41165	 -0.37675	 19.46963	709.03003	 39.60	
 10.210	161.034	 18.68237	  3.87016	 14.95316	 11.04884	  7.29146	 -0.38976	 19.44663	709.01398	 39.60	
 10.191	170.497	 18.67693	  3.62745	 15.21017	 10.02964	  8.25844	 -0.40408	 19.45808	708.93298	 39.60	
 11.899	171.783	 18.26672	  2.42385	 15.93796	  9.68383	  7.91847	 -0.57217	 19.41501	708.96802	 39.60	
 11.890	163.610	 18.27504	  2.63834	 15.71006	 10.75193	  6.93011	 -0.55606	 19.40614	709.00800	 39.70	
 11.889	155.445	 18.30250	  2.96595	 15.34177	 11.74225	  6.03383	 -0.53187	 19.42904	708.93799	 39.70	
 11.909	147.299	 18.27701	  3.35602	 14.82426	 12.66049	  5.19656	 -0.52558	 19.40607	708.91699	 39.80	
 11.902	139.148	 18.25949	  3.90003	 14.16208	 13.50322	  4.44864	 -0.53462	 19.39368	708.98401	 39.80	
 11.894	130.867	 18.25159	  4.57759	 13.36430	 14.27318	  3.77984	 -0.55716	 19.37606	708.95697	 39.90	
 11.897	122.732	 18.24823	  5.32088	 12.50346	 14.92280	  3.23813	 -0.60737	 19.38629	708.90900	 40.00	
 11.903	114.597	 18.25807	  6.16126	 11.56425	 15.43621	  2.81592	 -0.63140	 19.40062	708.99701	 40.00	
 11.893	106.346	 18.27331	  7.10438	 10.56853	 15.81792	  2.52695	 -0.63931	 19.41664	709.03802	 40.10	
 11.892	 98.155	 18.23877	  8.07663	  9.51272	 15.97649	  2.34546	 -0.63457	 19.36612	709.02502	 40.10	
 11.900	 90.000	 18.25319	  9.08357	  8.50333	 16.06650	  2.28862	 -0.61326	 19.38856	708.94299	 40.10	
 11.892	 81.845	 18.26446	 10.11757	  7.49853	 15.97944	  2.33655	 -0.59767	 19.41143	709.06201	 40.10	
 11.893	 73.654	 18.26597	 11.12787	  6.52923	 15.72539	  2.50311	 -0.57459	 19.40732	709.08698	 40.20	
 11.903	 65.403	 18.23186	 12.09176	  5.59728	 15.28672	  2.80340	 -0.55949	 19.38384	709.01398	 40.20	
 11.897	 57.268	 18.21729	 12.98816	  4.76538	 14.77155	  3.20723	 -0.54347	 19.38830	708.91699	 40.20	
 11.894	 49.133	 18.18734	 13.81132	  4.02856	 14.08868	  3.72810	 -0.53134	 19.37168	708.92499	 40.20	
 11.902	 40.852	 18.20095	 14.58122	  3.37039	 13.32327	  4.36896	 -0.54988	 19.39905	708.91699	 40.20	
 11.909	 32.701	 18.16651	 15.17161	  2.82586	 12.43001	  5.10246	 -0.59917	 19.37974	708.96198	 40.30	
 11.889	 24.555	 18.11452	 15.63817	  2.40152	 11.46685	  5.91247	 -0.60573	 19.34272	708.93799	 40.20	
 11.890	 16.390	 18.09101	 15.97927	  2.09278	 10.44304	  6.83381	 -0.59444	 19.32558	708.94598	 40.30	
 11.899	  8.217	 18.08788	 16.18917	  1.91170	  9.45099	  7.74901	 -0.58338	 19.32635	709.01703	 40.30	
 11.900	  0.000	 18.11738	 16.26953	  1.84915	  8.42184	  8.79341	 -0.58883	 19.37591	709.02100	 40.40	
 11.899	 -8.217	 18.11580	 16.19476	  1.89197	  7.40354	  9.81576	 -0.59176	 19.38485	709.00598	 40.50	
 11.890	-16.390	 18.08972	 15.90821	  2.08180	  6.43056	 10.81600	 -0.57567	 19.36308	709.05603	 40.50	
 11.889	-24.555	 18.07329	 15.51083	  2.36882	  5.51794	 11.78507	 -0.55524	 19.35069	709.00897	 40.50	
 11.909	-32.701	 18.10222	 15.00327	  2.78476	  4.68046	 12.73852	 -0.55977	 19.39874	709.03003	 40.50	
 11.902	-40.852	 18.09550	 14.35304	  3.29606	  3.93692	 13.59243	 -0.56771	 19.37855	709.06702	 40.50	
 11.894	-49.133	 18.12168	 13.58277	  3.97720	  3.29848	 14.40051	 -0.63090	 19.42965	709.06500	 40.50	
 11.897	-57.268	 18.07015	 12.69353	  4.69610	  2.74001	 15.02365	 -0.64887	 19.40072	709.01300	 40.50	
 11.903	-65.403	 18.08522	 11.77471	  5.52299	  2.33312	 15.55663	 -0.66771	 19.42313	709.00500	 40.40	
 11.893	-73.654	 18.06798	 10.75633	  6.44048	  2.04183	 15.92796	 -0.67337	 19.40760	709.02698	 40.40	
 11.892	-81.845	 18.01225	  9.70975	  7.40141	  1.85028	 16.12712	 -0.66524	 19.34880	709.09399	 40.40	
 11.900	-90.000	 18.05339	  8.72123	  8.41739	  1.81394	 16.23125	 -0.63975	 19.38025	709.01300	 40.40	
 11.892	-98.155	 18.06702	  7.74325	  9.43403	  1.87384	 16.20973	 -0.63592	 19.41487	708.97400	 40.40	
 11.893	-106.346	 18.06432	  6.75967	 10.47031	  2.08569	 15.97274	 -0.62337	 19.39137	709.04602	 40.40	
 11.903	-114.597	 18.02397	  5.87011	 11.44767	  2.39743	 15.56192	 -0.58616	 19.36308	709.02197	 40.40	
 11.897	-122.732	 18.09647	  5.05037	 12.42814	  2.86220	 15.09116	 -0.58051	 19.39740	709.04901	 40.40	
 11.894	-130.867	 18.07907	  4.32492	 13.27326	  3.41019	 14.41991	 -0.54963	 19.36546	708.99799	 40.40	
 11.902	-139.148	 18.11406	  3.69126	 14.08958	  4.07481	 13.69020	 -0.58542	 19.36842	709.05603	 40.40	
 11.909	-147.299	 18.11588	  3.17371	 14.72388	  4.83800	 12.81460	 -0.61298	 19.35397	709.07800	 40.40	
 11.889	-155.445	 18.10098	  2.80133	 15.19486	  5.68505	 11.88584	 -0.61373	 19.30223	709.03198	 40.50	
 11.890	-163.610	 18.14209	  2.52416	 15.61323	  6.61231	 10.92104	 -0.61128	 19.32965	709.02100	 40.50	
 11.899	-171.783	 18.21508	  2.36687	 15.91758	  7.63096	  9.93258	 -0.60651	 19.38976	709.02100	 40.60	
 11.900	180.000	 18.22711	  2.34772	 15.98787	  8.66647	  8.88894	 -0.58974	 19.38042	708.97400	 40.60	
 13.600	180.000	 17.78689	  1.13229	 16.67159	  8.30371	  8.51399	 -0.74562	 19.38630	709.03302	 40.60	
 13.608	-172.853	 17.76872	  1.16360	 16.59167	  7.28551	  9.54057	 -0.75429	 19.38900	708.97803	 40.60	
 13.611	-165.583	 17.71656	  1.28992	 16.35159	  6.27436	 10.54498	 -0.77632	 19.35668	708.97803	 40.60	
 13.601	-158.353	 17.69453	  1.52513	 15.99351	  5.31501	 11.56227	 -0.76973	 19.35401	709.02698	 40.60	
 13.609	-151.210	 17.67335	  1.86215	 15.53912	  4.45217	 12.50740	 -0.75184	 19.36537	709.02399	 40.60	
 13.611	-143.999	 17.64687	  2.30295	 14.94254	  3.62803	 13.41069	 -0.73250	 19.36131	709.01703	 40.60	
 13.601	-136.825	 17.63741	  2.83574	 14.24207	  2.92386	 14.22547	 -0.71480	 19.37268	709.01300	 40.60	
 13.596	-129.640	 17.59661	  3.48153	 13.41148	  2.28826	 14.94829	 -0.69397	 19.34255	708.91101	 40.60	
 13.611	-122.431	 17.60550	  4.21106	 12.54766	  1.73916	 15.61844	 -0.69806	 19.38062	708.98901	 40.60	
 13.604	-115.211	 17.58961	  5.00894	 11.60714	  1.30657	 16.12833	 -0.71328	 19.39415	708.97302	 40.60	
 13.595	-108.042	 17.58066	  5.87396	 10.62500	  0.98198	 16.49977	 -0.73860	 19.39306	708.93597	 40.50	
 13.607	-100.793	 17.59151	  6.82603	  9.59524	  0.73840	 16.77811	 -0.76019	 19.41601	708.98999	 40.50	
 13.601	-93.617	 17.54885	  7.79345	  8.54778	  0.63993	 16.85102	 -0.76682	 19.35581	708.98199	 40.50	
 13.601	-86.383	 17.58121	  8.80985	  7.54353	  0.62557	 16.87205	 -0.78820	 19.40264	709.03003	 40.50	
 13.607	-79.207	 17.56328	  9.83026	  6.51318	  0.69472	 16.72877	 -0.79640	 19.37368	709.03302	 40.50	
 13.595	-71.958	 17.55615	 10.84179	  5.57830	  0.92806	 16.41074	 -0.78155	 19.34569	708.96802	 40.50	
 13.604	-64.789	 17.62061	 11.83822	  4.72131	  1.22153	 16.07154	 -0.78002	 19.41178	709.04797	 40.50	
 13.611	-57.569	 17.63104	 12.80984	  3.88046	  1.62689	 15.53803	 -0.76830	 19.41100	708.99701	 40.50	
 13.596	-50.360	 17.64678	 13.68809	  3.15048	  2.17208	 14.89153	 -0.75511	 19.40352	709.02100	 40.50	
 13.601	-43.175	 17.59539	 14.46119	  2.47192	  2.74275	 14.11786	 -0.70521	 19.35455	708.95203	 40.40	
 13.611	-36.001	 17.62256	 15.18150	  1.91700	  3.44633	 13.31986	 -0.68625	 19.38680	708.98102	 40.40	
 13.609	-28.790	 17.66018	 15.79642	  1.46452	  4.22294	 12.42757	 -0.68151	 19.40602	708.89502	 40.50	
 13.601	-21.647	 17.68915	 16.31714	  1.09363	  5.10397	 11.48157	 -0.70330	 19.43388	709.06201	 40.50	
 13.611	-14.417	 17.65145	 16.62712	  0.83313	  6.01603	 10.43841	 -0.71691	 19.38782	708.95697	 40.40	
 13.608	 -7.147	 17.67175	 16.85933	  0.69306	  7.01800	  9.42325	 -0.73030	 19.39321	708.98401	 40.40	
 13.600	  0.000	 17.65875	 16.93392	  0.64584	  8.02901	  8.39798	 -0.72367	 19.38037	708.97302	 40.40	
 13.608	  7.147	 17.69776	 16.91368	  0.69207	  9.04287	  7.43482	 -0.72549	 19.41466	708.95203	 40.40	
 13.611	 14.417	 17.71677	 16.77344	  0.82800	 10.10292	  6.44097	 -0.75624	 19.43457	709.05603	 40.40	
 13.601	 21.647	 17.68401	 16.39590	  1.11581	 11.09793	  5.51084	 -0.76857	 19.37382	708.95398	 40.40	
 13.609	 28.790	 17.70918	 15.98539	  1.46918	 12.07875	  4.66678	 -0.76292	 19.38335	708.91199	 40.40	
 13.611	 36.001	 17.73633	 15.43963	  1.95091	 13.01034	  3.89942	 -0.72130	 19.39558	709.08600	 40.40	
 13.601	 43.175	 17.75685	 14.78679	  2.50887	 13.86269	  3.20253	 -0.67876	 19.41121	709.01599	 40.40	
 13.596	 50.360	 17.83002	 14.08492	  3.18762	 14.67733	  2.62256	 -0.65645	 19.47925	708.99701	 40.40	
 13.611	 57.569	 17.80686	 13.19635	  3.94037	 15.31976	  2.10080	 -0.66508	 19.42930	709.07800	 40.40	
 13.604	 64.789	 17.83151	 12.28112	  4.77831	 15.88871	  1.68829	 -0.69379	 19.45066	709.01398	 40.40	
 13.595	 71.958	 17.83581	 11.30596	  5.66532	 16.29454	  1.39575	 -0.71170	 19.43490	709.04303	 40.40	
 13.607	 79.207	 17.79118	 10.29360	  6.58825	 16.54774	  1.17858	 -0.73861	 19.38493	708.92499	 40.30	
 13.601	 86.383	 17.76127	  9.23681	  7.57814	 16.66756	  1.08996	 -0.75797	 19.33795	708.91199	 40.30	
 13.601	 93.617	 17.76768	  8.22652	  8.59187	 16.68910	  1.09525	 -0.77817	 19.34488	708.94897	 40.30	
 13.607	100.793	 17.79188	  7.22603	  9.66124	 16.58996	  1.19238	 -0.79363	 19.36552	708.85400	 40.40	
 13.595	108.042	 17.83994	  6.29221	 10.70122	 16.38702	  1.40978	 -0.78220	 19.42392	708.97803	 40.50	
 13.604	115.211	 17.85540	  5.38162	 11.69601	 16.00409	  1.72820	 -0.77717	 19.42095	709.00000	 40.50	
 13.611	122.431	 17.81504	  4.52427	 12.62505	 15.47021	  2.13825	 -0.74506	 19.38413	708.90302	 40.50	
 13.596	129.640	 17.81043	  3.77089	 13.49794	 14.81798	  2.65370	 -0.70188	 19.37432	708.94098	 40.50	
 13.601	136.825	 17.83389	  3.11794	 14.32040	 14.09514	  3.27823	 -0.67962	 19.39211	708.93597	 40.50	
 13.611	143.999	 17.84942	  2.54178	 15.04995	 13.28551	  3.96861	 -0.68253	 19.41952	708.89301	 40.50	
 13.609	151.210	 17.82051	  2.05799	 15.60710	 12.34395	  4.75657	 -0.67873	 19.39423	708.98602	 40.50	
 13.601	158.353	 17.81117	  1.69133	 16.07106	 11.37555	  5.62806	 -0.68778	 19.39752	708.95898	 40.40	
 13.611	165.583	 17.81387	  1.38009	 16.42732	 10.37210	  6.52650	 -0.69130	 19.39190	708.92200	 40.40	
 13.608	172.853	 17.82426	  1.21033	 16.63583	  9.36285	  7.53207	 -0.73774	 19.42291	708.99200	 40.40	
 15.298	173.587	 17.33720	  0.02923	 17.24368	  8.96241	  7.13285	 -0.83684	 19.42758	708.86798	 40.40	
 15.291	167.167	 17.30142	  0.17445	 17.03053	  9.95575	  6.14051	 -0.82068	 19.37564	709.00098	 40.30	
 15.307	160.676	 17.38421	  0.40269	 16.80256	 11.02963	  5.21029	 -0.81174	 19.46925	708.99402	 40.40	
 15.300	154.261	 17.40560	  0.76014	 16.38281	 12.04157	  4.35352	 -0.79302	 19.47612	708.89502	 40.40	
 15.288	147.854	 17.37461	  1.20432	 15.84198	 12.94183	  3.52819	 -0.79209	 19.45311	708.92999	 40.30	
 15.293	141.428	 17.33520	  1.68694	 15.16640	 13.80623	  2.76300	 -0.78379	 19.40909	708.86798	 40.20	
 15.299	134.985	 17.35183	  2.29332	 14.45722	 14.60648	  2.14105	 -0.78928	 19.42098	708.89001	 40.20	
 15.305	128.583	 17.34273	  2.94146	 13.64218	 15.34353	  1.51449	 -0.82214	 19.41399	708.92798	 40.20	
 15.309	122.142	 17.33785	  3.69515	 12.73526	 15.95207	  1.03238	 -0.84012	 19.41996	708.97400	 40.20	
 15.304	115.711	 17.31228	  4.54372	 11.76600	 16.46786	  0.62350	 -0.86334	 19.41642	708.87701	 40.20	
 15.297	109.291	 17.31540	  5.41650	 10.77007	 16.83631	  0.33543	 -0.86488	 19.38379	708.88702	 40.20	
 15.293	102.897	 17.24753	  6.32289	  9.72113	 17.06371	  0.09829	 -0.85481	 19.33091	708.89001	 40.20	
 15.293	 96.458	 17.26471	  7.30451	  8.70038	 17.26550	 -0.05055	 -0.86021	 19.34597	708.90302	 40.30	
 15.300	 90.000	 17.26116	  8.31196	  7.66209	 17.28784	 -0.09496	 -0.85784	 19.34763	708.93799	 40.40	
 15.293	 83.542	 17.22741	  9.32940	  6.64250	 17.15729	 -0.03706	 -0.85663	 19.28778	708.98999	 40.50	
 15.293	 77.103	 17.21176	 10.32744	  5.66698	 16.96129	  0.05502	 -0.84637	 19.29262	708.86798	 40.60	
 15.297	 70.709	 17.22671	 11.30840	  4.78143	 16.66421	  0.29517	 -0.83212	 19.30328	708.87097	 40.70	
 15.304	 64.289	 17.21945	 12.28156	  3.90864	 16.25048	  0.60841	 -0.80068	 19.31891	709.01300	 40.80	
 15.309	 57.858	 17.22305	 13.21679	  3.08663	 15.71616	  0.98029	 -0.78526	 19.33013	708.96503	 40.90	
 15.305	 51.417	 17.19674	 14.05929	  2.35081	 15.01986	  1.47720	 -0.79119	 19.32143	708.99402	 40.90	
 15.299	 45.015	 17.18476	 14.85071	  1.70144	 14.30492	  2.07069	 -0.78999	 19.32997	709.01300	 40.90	
 15.293	 38.572	 17.22515	 15.57110	  1.12533	 13.49230	  2.72176	 -0.85724	 19.39070	708.92999	 41.00	
 15.288	 32.146	 17.18146	 16.15351	  0.63668	 12.58787	  3.43346	 -0.87281	 19.33560	709.00897	 41.00	
 15.300	 25.739	 17.20499	 16.67649	  0.22863	 11.62729	  4.25972	 -0.88400	 19.39400	708.93799	 40.90	
 15.307	 19.324	 17.18855	 17.07282	 -0.12320	 10.69349	  5.10362	 -0.88104	 19.38872	709.01398	 40.90	
 15.291	 12.833	 17.17709	 17.31065	 -0.31529	  9.62460	  6.01082	 -0.86003	 19.39150	709.00598	 40.80	
 15.298	  6.413	 17.13340	 17.45687	 -0.46920	  8.61754	  6.98675	 -0.85570	 19.34490	708.96198	 40.70	
 15.300	  0.000	 17.14049	 17.51527	 -0.50224	  7.57037	  7.97252	 -0.83509	 19.37710	708.97400	 40.70	
 15.298	 -6.413	 17.17599	 17.45619	 -0.46720	  6.58909	  8.99145	 -0.82869	 19.41013	708.96002	 40.70	
 15.291	-12.833	 17.14700	 17.23680	 -0.35100	  5.57586	 10.01838	 -0.82252	 19.38181	708.92798	 40.70	
 15.307	-19.324	 17.11875	 16.90376	 -0.14772	  4.66074	 11.00728	 -0.81336	 19.38162	709.06500	 40.70	
 15.300	-25.739	 17.11321	 16.47994	  0.19643	  3.77314	 12.00615	 -0.80242	 19.37577	709.03003	 40.70	
 15.288	-32.146	 17.08962	 15.90761	  0.59278	  2.98849	 12.89126	 -0.76275	 19.35414	708.95398	 40.70	
 15.293	-38.572	 17.13619	 15.30837	  1.07504	  2.27678	 13.79662	 -0.74814	 19.41342	708.98602	 40.70	
 15.299	-45.015	 17.12893	 14.56468	  1.65246	  1.57586	 14.63327	 -0.82815	 19.43143	709.02698	 40.70	
 15.305	-51.417	 17.08602	 13.72557	  2.27676	  1.01822	 15.35924	 -0.81979	 19.42289	708.90601	 40.70	
 15.309	-57.858	 17.10827	 12.87021	  3.03754	  0.52656	 16.00122	 -0.81464	 19.41034	708.90900	 40.60	
 15.304	-64.289	 17.05285	 11.92325	  3.81975	  0.11123	 16.48979	 -0.81498	 19.42271	708.92200	 40.60	
 15.297	-70.709	 17.05374	 10.91744	  4.70693	 -0.21055	 16.95360	 -0.81362	 19.38696	708.96802	 40.50	
 15.293	-77.103	 17.03034	  9.91680	  5.59835	 -0.40309	 17.18217	 -0.82968	 19.37508	708.98102	 40.50	
 15.293	-83.542	 17.02405	  8.86280	  6.60076	 -0.50235	 17.38625	 -0.80203	 19.37036	708.88098	 40.50	
 15.300	-90.000	 17.01273	  7.89108	  7.59098	 -0.55651	 17.46517	 -0.80331	 19.39110	708.96503	 40.50	
 15.293	-96.458	 17.05312	  6.89922	  8.62022	 -0.48362	 17.44433	 -0.82791	 19.41724	708.96997	 40.60	
 15.293	-102.897	 17.03733	  5.91618	  9.64584	 -0.34684	 17.25308	 -0.82284	 19.37851	708.95099	 40.50	
 15.297	-109.291	 17.01460	  4.99353	 10.65538	 -0.12660	 16.94800	 -0.83686	 19.35041	709.01398	 40.50	
 15.304	-115.711	 17.06772	  4.16465	 11.65603	  0.22179	 16.59297	 -0.79490	 19.42153	708.98999	 40.50	
 15.309	-122.142	 17.07342	  3.33371	 12.63395	  0.63454	 16.07887	 -0.81258	 19.38989	708.93597	 40.60	
 15.305	-128.583	 17.11764	  2.63420	 13.52552	  1.14015	 15.44398	 -0.78995	 19.37295	708.95398	 40.50	
 15.299	-134.985	 17.10964	  2.02578	 14.30160	  1.80490	 14.71900	 -0.81040	 19.37274	708.96002	 40.50	
 15.293	-141.428	 17.13438	  1.44525	 15.06098	  2.44950	 13.92145	 -0.82444	 19.37274	708.94897	 40.50	
 15.288	-147.854	 17.19526	  0.96630	 15.73529	  3.21336	 13.06209	 -0.85206	 19.40108	709.03198	 40.50	
 15.300	-154.261	 17.23173	  0.56760	 16.30631	  4.04923	 12.13793	 -0.85037	 19.41239	708.95697	 40.50	
 15.307	-160.676	 17.22486	  0.27421	 16.72799	  4.93539	 11.17101	 -0.86683	 19.40456	708.98602	 40.50	
 15.291	-167.167	 17.25377	  0.08089	 17.03501	  5.89854	 10.15743	 -0.85933	 19.41542	708.94397	 40.50	
 15.298	-173.587	 17.20040	 -0.04559	 17.18174	  6.85966	  9.08710	 -0.85380	 19.33844	708.93799	 40.50	
 15.300	180.000	 17.24387	 -0.03224	 17.25387	  7.89948	  8.07926	 -0.86292	 19.33294	708.91101	 40.50	
 17.000	180.000	 16.68070	 -1.17037	 17.78156	  7.42635	  7.68692	 -0.86250	 19.37647	708.92499	 40.60	
 16.990	-174.179	 16.64894	 -1.13035	 17.71890	  6.44519	  8.63384	 -0.84473	 19.43363	708.92999	 40.60	
 17.009	-168.383	 16.61621	 -1.05073	 17.55738	  5.43533	  9.62060	 -0.88248	 19.32852	708.94598	 40.60	
 17.000	-162.596	 16.58368	 -0.89059	 17.28391	  4.54002	 10.62781	 -0.87644	 19.36686	708.99799	 40.60	
 16.990	-156.759	 16.62176	 -0.64528	 16.89347	  3.64262	 11.63209	 -0.87203	 19.39574	708.99200	 40.60	
 16.995	-150.919	 16.58260	 -0.32933	 16.39300	  2.75977	 12.59237	 -0.88228	 19.39073	708.92999	 40.60	
 16.988	-145.161	 16.54823	  0.09595	 15.81100	  2.00786	 13.47795	 -0.85791	 19.38121	708.99701	 40.60	
 17.014	-139.343	 16.48564	  0.57654	 15.10594	  1.26931	 14.32894	 -0.88713	 19.34971	709.02399	 40.70	
 17.007	-133.546	 16.50470	  1.15345	 14.35479	  0.63440	 15.12025	 -0.87356	 19.37676	708.91199	 40.70	
 17.001	-127.699	 16.50399	  1.79183	 13.53486	  0.05119	 15.85463	 -0.89027	 19.40462	708.94598	 40.70	
 17.006	-121.937	 16.45518	  2.47369	 12.63289	 -0.42440	 16.42588	 -0.88600	 19.37877	709.04901	 40.70	
 17.002	-116.134	 16.43296	  3.25572	 11.66455	 -0.84596	 16.92608	 -0.87234	 19.35142	709.05402	 40.70	
 17.001	-110.310	 16.43886	  4.09874	 10.68640	 -1.14284	 17.35117	 -0.87987	 19.36974	709.06299	 40.70	
 16.988	-104.517	 16.44645	  4.99760	  9.68407	 -1.39032	 17.68050	 -0.86613	 19.41831	709.00800	 40.70	
 17.008	-98.662	 16.36732	  5.90559	  8.60025	 -1.56698	 17.81793	 -0.84145	 19.32436	708.98401	 40.70	
 16.996	-92.909	 16.38355	  6.87233	  7.61551	 -1.63516	 17.91017	 -0.81572	 19.33677	709.05701	 40.60	
 16.996	-87.091	 16.46884	  7.86037	  6.62671	 -1.67502	 17.92566	 -0.74417	 19.31341	709.03497	 40.70	
 17.012	-81.253	 16.42798	  8.86331	  5.63961	 -1.60027	 17.81841	 -0.72676	 19.39288	708.98901	 40.70	
 16.988	-75.483	 16.44116	  9.90289	  4.70372	 -1.42698	 17.59666	 -0.71872	 19.36857	708.99799	 40.70	
 17.001	-69.690	 16.45211	 10.88522	  3.80334	 -1.22734	 17.30369	 -0.72674	 19.37266	709.09100	 40.70	
 17.002	-63.866	 16.46328	 11.88530	  2.95389	 -0.93213	 16.85711	 -0.74369	 19.38609	709.07501	 40.70	
 17.006	-58.063	 16.51848	 12.83753	  2.17717	 -0.55082	 16.35886	 -0.78170	 19.40602	708.99701	 40.70	
 17.001	-52.301	 16.50040	 13.71192	  1.44988	 -0.10357	 15.75050	 -0.79065	 19.40752	709.07800	 40.70	
 17.007	-46.454	 16.50493	 14.53277	  0.81173	  0.43748	 15.00592	 -0.79552	 19.38478	708.98602	 40.60	
 17.014	-40.657	 16.48743	 15.29738	  0.22993	  1.06772	 14.18055	 -0.80503	 19.35979	708.92200	 40.60	
 16.988	-34.839	 16.54093	 15.98890	 -0.22525	  1.76143	 13.35458	 -0.83204	 19.38561	708.97302	 40.60	
 16.995	-29.081	 16.57856	 16.60975	 -0.65744	  2.50288	 12.49710	 -0.84638	 19.42109	708.99402	 40.60	
 16.990	-23.241	 16.54242	 17.07545	 -0.99467	  3.31460	 11.49885	 -0.85452	 19.38302	708.94598	 40.70	
 17.000	-17.404	 16.55673	 17.47698	 -1.25425	  4.21675	 10.50646	 -0.88412	 19.38957	708.94397	 40.60	
 17.009	-11.617	 16.56970	 17.76389	 -1.45888	  5.12989	  9.52194	 -0.90997	 19.41566	709.04303	 40.60	
 16.990	 -5.821	 16.58492	 17.93616	 -1.55493	  6.11190	  8.50713	 -0.89206	 19.39411	709.04797	 40.60	
 17.000	  0.000	 16.56640	 17.99549	 -1.59244	  7.08420	  7.49804	 -0.89757	 19.36531	708.97400	 40.60	
 16.990	  5.821	 16.55540	 17.94791	 -1.56409	  8.12493	  6.51566	 -0.89871	 19.33907	709.09698	 40.60	
 17.009	 11.617	 16.59228	 17.86353	 -1.43846	  9.12356	  5.55634	 -0.93310	 19.38359	708.99799	 40.70	
 17.000	 17.404	 16.55255	 17.57281	 -1.28457	 10.13848	  4.66917	 -0.93957	 19.32233	708.98401	 40.70	
 16.990	 23.241	 16.60903	 17.25656	 -0.98001	 11.14930	  3.79205	 -0.95554	 19.37225	708.97302	 40.70	
 16.995	 29.081	 16.64214	 16.85110	 -0.63006	 12.16420	  2.95189	 -0.94097	 19.40207	708.97803	 40.70	
 16.988	 34.839	 16.64706	 16.32547	 -0.20438	 13.05973	  2.21640	 -0.96925	 19.40680	708.91101	 40.70	
 17.014	 40.657	 16.64430	 15.66629	  0.28464	 13.92500	  1.53526	 -0.91623	 19.36393	709.04303	 40.70	
 17.007	 46.454	 16.65186	 14.91878	  0.87346	 14.70861	  0.93086	 -0.90042	 19.35075	708.97302	 40.70	
 17.001	 52.301	 16.65670	 14.11172	  1.52069	 15.45182	  0.38282	 -0.89654	 19.35947	708.99701	 40.70	
 17.006	 58.063	 16.69443	 13.28184	  2.23348	 16.11657	 -0.08799	 -0.87743	 19.38294	708.94897	 40.70	
 17.002	 63.866	 16.71690	 12.36074	  3.03019	 16.67162	 -0.45440	 -0.90141	 19.38020	708.95697	 40.70	
 17.001	 69.690	 16.73989	 11.42002	  3.86580	 17.12674	 -0.75428	 -0.92688	 19.40248	708.96802	 40.70	
 16.988	 75.483	 16.72261	 10.41565	  4.75469	 17.45299	 -0.96312	 -0.91535	 19.35590	708.98999	 40.70	
 17.012	 81.253	 16.71205	  9.39764	  5.70031	 17.68338	 -1.09355	 -0.94574	 19.40136	708.92798	 40.70	
 16.996	 87.091	 16.73195	  8.38556	  6.67665	 17.80526	 -1.21251	 -0.88385	 19.38636	708.91400	 40.70	
 16.996	 92.909	 16.71738	  7.41469	  7.65129	 17.85503	 -1.20490	 -0.88956	 19.34871	709.03003	 40.70	
 17.008	 98.662	 16.71619	  6.40655	  8.69840	 17.75354	 -1.10086	 -0.85585	 19.33679	708.93500	 40.80	
 16.988	104.517	 16.68666	  5.47409	  9.71685	 17.51685	 -0.98199	 -0.88030	 19.37582	708.88898	 40.80	
 17.001	110.310	 16.71718	  4.54791	 10.72719	 17.23462	 -0.72730	 -0.87500	 19.37063	708.94299	 40.80	
 17.002	116.134	 16.73620	  3.68514	 11.75653	 16.87165	 -0.43730	 -0.88886	 19.39535	709.00098	 40.80	
 17.006	121.937	 16.74362	  2.87880	 12.68828	 16.34586	 -0.04146	 -0.89205	 19.38544	708.99200	 40.80	
 17.001	127.699	 16.75951	  2.13762	 13.60735	 15.76379	  0.42766	 -0.87405	 19.41931	709.04602	 40.80	
 17.007	133.546	 16.78106	  1.45443	 14.45905	 15.05128	  0.95083	 -0.87912	 19.39644	709.01599	 40.90	
 17.014	139.343	 16.73385	  0.84493	 15.21515	 14.25451	  1.54935	 -0.86670	 19.35964	709.03802	 40.80	
 16.988	145.161	 16.74227	  0.35116	 15.84437	 13.36624	  2.28787	 -0.87227	 19.35397	709.00000	 40.80	
 16.995	150.919	 16.72117	 -0.10966	 16.41122	 12.48197	  3.02015	 -0.88871	 19.33141	709.01398	 40.80	
 16.990	156.759	 16.72370	 -0.47684	 16.89193	 11.50492	  3.86276	 -0.89714	 19.33990	708.95398	 40.80	
 17.000	162.596	 16.71894	 -0.77777	 17.29770	 10.49808	  4.72310	 -0.89894	 19.32239	708.92999	 40.80	
 17.009	168.383	 16.71274	 -0.98660	 17.55299	  9.49327	  5.66620	 -0.92498	 19.38886	708.93298	 40.90	
 16.990	174.179	 16.67185	 -1.10186	 17.70866	  8.47164	  6.63254	 -0.89692	 19.35351	708.97601	 41.00	
 18.709	174.675	 16.04510	 -2.22930	 18.18959	  7.98173	  6.11314	 -0.86565	 19.34358	708.97400	 41.00	
 18.703	169.441	 16.07113	 -2.07423	 18.03624	  8.98522	  5.19018	 -0.89080	 19.34915	708.89697	 41.00	
 18.691	164.085	 16.10369	 -1.88637	 17.81619	 10.01826	  4.24183	 -0.89845	 19.40234	709.02100	 41.00	
 18.706	158.818	 16.06514	 -1.64373	 17.42482	 10.96279	  3.37811	 -0.91679	 19.32443	708.96198	 41.00	
 18.695	153.537	 16.07634	 -1.30223	 16.99216	 11.93934	  2.53072	 -0.91746	 19.32904	708.96002	 41.00	
 18.704	148.255	 16.07425	 -0.95070	 16.45358	 12.87598	  1.79231	 -0.92196	 19.34566	709.00500	 41.00	
 18.698	142.952	 16.12930	 -0.51162	 15.91718	 13.80360	  1.02899	 -0.92144	 19.37192	708.97302	 41.20	
 18.699	137.625	 16.13612	  0.02960	 15.20680	 14.61828	  0.40472	 -0.91286	 19.36530	709.04303	 41.10	
 18.705	132.343	 16.12445	  0.63332	 14.41746	 15.39739	 -0.16516	 -0.91346	 19.35571	709.02197	 41.10	
 18.713	127.067	 16.11759	  1.29227	 13.58070	 16.09021	 -0.69290	 -0.89969	 19.38479	708.96997	 41.00	
 18.700	121.794	 16.10174	  2.02013	 12.65909	 16.65382	 -1.10179	 -0.88822	 19.33507	708.89502	 41.00	
 18.698	116.504	 16.10295	  2.78817	 11.74075	 17.16303	 -1.48685	 -0.88294	 19.34277	708.96802	 40.90	
 18.707	111.165	 16.06005	  3.62995	 10.72842	 17.58562	 -1.78666	 -0.84619	 19.32446	708.95898	 40.90	
 18.690	105.863	 16.12977	  4.53561	  9.73965	 17.95293	 -2.03561	 -0.79372	 19.38218	708.99799	 40.90	
 18.696	100.583	 16.08753	  5.44706	  8.70565	 18.14811	 -2.20402	 -0.78106	 19.33972	708.98199	 41.00	
 18.700	 95.309	 16.10497	  6.39555	  7.68777	 18.24843	 -2.31011	 -0.81699	 19.36148	709.01599	 40.90	
 18.700	 90.000	 16.11137	  7.37826	  6.68381	 18.26772	 -2.30255	 -0.87322	 19.37114	709.02100	 40.90	
 18.700	 84.691	 16.09119	  8.38509	  5.70617	 18.18629	 -2.24576	 -0.87064	 19.33999	708.94598	 40.90	
 18.696	 79.417	 16.06134	  9.35652	  4.73997	 18.02460	 -2.21352	 -0.88676	 19.31912	708.91998	 40.90	
 18.690	 74.137	 16.08526	 10.34104	  3.86833	 17.76348	 -1.99651	 -0.96188	 19.29334	708.87701	 41.00	
 18.707	 68.835	 16.03785	 11.32703	  2.98507	 17.38271	 -1.76538	 -0.97487	 19.29584	708.99402	 41.00	
 18.698	 63.496	 16.01805	 12.29725	  2.10539	 16.94451	 -1.46893	 -0.97877	 19.28796	708.96503	 41.00	
 18.700	 58.206	 16.01085	 13.15837	  1.42471	 16.36005	 -1.12587	 -0.98213	 19.26531	709.02100	 41.10	
 18.713	 52.933	 15.99798	 14.04327	  0.68232	 15.73420	 -0.73511	 -0.96500	 19.29713	708.91199	 41.10	
 18.705	 47.657	 16.01434	 14.87131	  0.06528	 15.04498	 -0.19595	 -1.00221	 19.32107	709.00098	 41.20	
 18.699	 42.375	 15.97156	 15.58782	 -0.48973	 14.23645	  0.38679	 -0.98985	 19.28515	708.90100	 41.20	
 18.698	 37.048	 15.97434	 16.26418	 -1.01727	 13.41402	  1.04188	 -0.99138	 19.28733	708.89301	 41.20	
 18.704	 31.745	 15.97651	 16.82460	 -1.40521	 12.49879	  1.74913	 -1.00988	 19.29566	708.85999	 41.20	
 18.695	 26.463	 15.99525	 17.36211	 -1.79778	 11.53113	  2.50134	 -0.96469	 19.27680	708.82300	 41.20	
 18.706	 21.182	 15.97434	 17.74846	 -2.10825	 10.58487	  3.31586	 -0.92483	 19.31700	708.86499	 41.30	
 18.691	 15.915	 15.93290	 18.01562	 -2.30729	  9.57173	  4.15247	 -0.93784	 19.31233	708.89502	 41.20	
 18.703	 10.559	 15.91900	 18.26483	 -2.50218	  8.57184	  5.04151	 -0.90218	 19.32613	708.86298	 41.20	
 18.709	  5.325	 15.90958	 18.37755	 -2.59362	  7.57512	  5.99961	 -0.90664	 19.32939	708.87701	 41.20	
 18.700	  0.000	 15.98677	 18.45326	 -2.63456	  6.57487	  6.98264	 -0.88883	 19.37955	708.90302	 41.20	
 18.709	 -5.325	 15.92686	 18.35663	 -2.61467	  5.57106	  7.95352	 -0.90204	 19.33655	708.91101	 41.10	
 18.703	-10.559	 15.92088	 18.19723	 -2.51350	  4.59365	  9.01299	 -0.90727	 19.36545	708.93298	 41.10	
 18.691	-15.915	 15.89286	 17.89747	 -2.33100	  3.72187	  9.91845	 -0.88514	 19.31705	708.92999	 41.00	
 18.706	-21.182	 15.88824	 17.56961	 -2.14566	  2.83535	 10.90351	 -0.87733	 19.35250	708.88898	 41.00	
 18.695	-26.463	 15.88963	 17.11859	 -1.84354	  2.02472	 11.89054	 -0.88998	 19.37155	708.92700	 41.00	
 18.704	-31.745	 15.84893	 16.59008	 -1.49273	  1.25565	 12.79726	 -0.85824	 19.36779	708.89801	 41.00	
 18.698	-37.048	 15.86571	 15.93298	 -1.05413	  0.56501	 13.69057	 -0.85547	 19.36659	708.96198	 41.00	
 18.699	-42.375	 15.88604	 15.22283	 -0.52761	 -0.08751	 14.52788	 -0.82511	 19.35964	708.96600	 41.00	
 18.705	-47.657	 15.82672	 14.49452	 -0.01454	 -0.65731	 15.31962	 -0.79905	 19.36881	708.94897	 41.00	
 18.713	-52.933	 15.82633	 13.61548	  0.60331	 -1.18099	 15.99756	 -0.73847	 19.35415	708.88098	 41.00	
 18.700	-58.206	 15.81502	 12.72851	  1.30003	 -1.57987	 16.60270	 -0.70768	 19.35443	708.95203	 41.00	
 18.698	-63.496	 15.79614	 11.79372	  2.05951	 -1.91980	 17.13076	 -0.66798	 19.30648	708.90302	 41.00	
 18.707	-68.835	 15.81121	 10.82026	  2.91513	 -2.23515	 17.58238	 -0.68238	 19.32472	708.93597	 41.00	
 18.690	-74.137	 15.80028	  9.85965	  3.77679	 -2.48397	 17.97355	 -0.69853	 19.37933	708.87701	 41.00	
 18.696	-79.417	 15.74872	  8.85937	  4.66417	 -2.58441	 18.12386	 -0.68566	 19.33374	708.96802	 41.00	
 18.700	-84.691	 15.76679	  7.87834	  5.58662	 -2.67845	 18.36772	 -0.71340	 19.38900	708.91101	 41.00	
 18.700	-90.000	 15.76315	  6.88357	  6.60814	 -2.71481	 18.39761	 -0.73291	 19.37995	708.93298	 41.00	
 18.700	-95.309	 15.74433	  5.90797	  7.61485	 -2.67042	 18.35554	 -0.77048	 19.35803	708.88397	 40.90	
 18.696	-100.583	 15.72807	  4.94829	  8.60341	 -2.53778	 18.14757	 -0.79625	 19.32943	708.93597	 40.90	
 18.690	-105.863	 15.74251	  4.06367	  9.59564	 -2.39824	 17.97309	 -0.90006	 19.36414	708.95697	 40.90	
 18.707	-111.165	 15.72673	  3.19598	 10.62234	 -2.13645	 17.64453	 -0.88789	 19.32257	708.86298	 40.90	
 18.698	-116.504	 15.76045	  2.38165	 11.60061	 -1.85386	 17.20646	 -0.91120	 19.33813	708.93500	 40.90	
 18.700	-121.794	 15.77967	  1.64892	 12.53291	 -1.49198	 16.74086	 -0.92504	 19.35525	708.90100	 40.90	
 18.713	-127.067	 15.81820	  0.94583	 13.45630	 -1.01328	 16.14456	 -0.92528	 19.37787	708.90100	 40.90	
 18.705	-132.343	 15.83766	  0.32427	 14.29819	 -0.48872	 15.47639	 -0.97873	 19.39690	708.85498	 40.90	
 18.699	-137.625	 15.87836	 -0.23302	 15.10131	  0.15400	 14.72906	 -0.90618	 19.35406	708.90100	 40.90	
 18.698	-142.952	 15.87274	 -0.72470	 15.81003	  0.81817	 13.88653	 -0.88601	 19.39002	708.87299	 40.90	
 18.704	-148.255	 15.90061	 -1.17101	 16.43725	  1.49530	 13.01619	 -0.85329	 19.36379	708.85199	 40.90	
 18.695	-153.537	 15.95299	 -1.49893	 16.95530	  2.29814	 12.09709	 -0.83490	 19.37054	708.77301	 40.90	
 18.706	-158.818	 15.93295	 -1.79460	 17.38165	  3.16063	 11.05000	 -0.81911	 19.32966	708.84698	 40.90	
 18.691	-164.085	 15.95561	 -1.99538	 17.73791	  4.07194	 10.08933	 -0.83757	 19.28077	708.84399	 40.90	
 18.703	-169.441	 15.95402	 -2.17145	 17.94647	  4.98850	  9.06721	 -0.81223	 19.26229	708.94098	 40.90	
 18.709	-174.675	 16.01491	 -2.24207	 18.15573	  5.96239	  8.07203	 -0.86800	 19.35509	708.83600	 41.00	
 18.700	180.000	 16.05879	 -2.26388	 18.24378	  6.94925	  7.07760	 -0.85668	 19.33960	708.83899	 41.10	
 20.400	180.000	 15.35565	 -3.25376	 18.58365	  6.44470	  6.54402	 -0.79910	 19.33245	708.90302	 41.10	
 20.401	-175.153	 15.31531	 -3.26807	 18.54569	  5.45767	  7.54691	 -0.78276	 19.32358	708.96198	 41.10	
 20.407	-170.264	 15.28219	 -3.21519	 18.42411	  4.52748	  8.51916	 -0.77987	 19.33710	708.88397	 41.10	
 20.410	-165.423	 15.27549	 -3.08635	 18.18345	  3.62615	  9.48428	 -0.72319	 19.34073	708.94299	 41.10	
 20.392	-160.496	 15.23937	 -2.89693	 17.85018	  2.71918	 10.46601	 -0.72810	 19.32958	708.85199	 41.10	
 20.401	-155.705	 15.22686	 -2.64637	 17.43763	  1.89623	 11.46128	 -0.74950	 19.29250	708.98199	 41.10	
 20.405	-150.835	 15.15826	 -2.33637	 16.91361	  1.08373	 12.37842	 -0.77368	 19.29945	708.85498	 41.10	
 20.397	-145.903	 15.08834	 -1.95854	 16.29655	  0.36290	 13.27047	 -0.83270	 19.25928	708.95203	 41.10	
 20.392	-141.062	 15.04959	 -1.51609	 15.62311	 -0.34965	 14.13467	 -0.86298	 19.20449	708.85699	 41.20	
 20.396	-136.227	 15.06124	 -1.05888	 14.95682	 -0.94003	 14.89942	 -0.92523	 19.23780	708.83301	 41.30	
 20.408	-131.372	 15.02072	 -0.49479	 14.12002	 -1.47147	 15.63028	 -0.92081	 19.23776	708.83002	 41.40	
 20.410	-126.511	 15.00613	  0.11487	 13.27411	 -1.98192	 16.31925	 -0.91593	 19.25367	708.89697	 41.50	
 20.400	-121.604	 15.00627	  0.80684	 12.37512	 -2.38243	 16.90169	 -0.92626	 19.24755	708.89301	 41.60	
 20.403	-116.741	 15.03444	  1.50444	 11.49687	 -2.80350	 17.46259	 -0.88143	 19.33085	708.88501	 41.60	
 20.413	-111.900	 15.01668	  2.30850	 10.53558	 -3.11479	 17.89525	 -0.85228	 19.36279	708.88898	 41.70	
 20.398	-107.004	 15.03170	  3.13307	  9.53665	 -3.28612	 18.21736	 -0.82527	 19.30988	708.87598	 41.70	
 20.394	-102.132	 15.02697	  3.99611	  8.55684	 -3.50932	 18.48293	 -0.80126	 19.37094	708.83099	 41.60	
 20.403	-97.332	 15.01518	  4.86977	  7.57037	 -3.61378	 18.57356	 -0.70928	 19.32186	708.87299	 41.50	
 20.392	-92.440	 15.00319	  5.81545	  6.54746	 -3.67370	 18.67551	 -0.67024	 19.31877	708.81201	 41.50	
 20.392	-87.560	 14.97881	  6.76861	  5.57912	 -3.68698	 18.63719	 -0.65934	 19.27346	708.91400	 41.50	
 20.403	-82.668	 15.02503	  7.76280	  4.63321	 -3.65792	 18.59554	 -0.66137	 19.33596	708.82001	 41.50	
 20.394	-77.868	 15.00250	  8.70660	  3.70701	 -3.54712	 18.33341	 -0.63114	 19.27997	708.93597	 41.50	
 20.398	-72.996	 15.02629	  9.67657	  2.82968	 -3.39492	 18.08108	 -0.61384	 19.22061	708.87299	 41.50	
 20.413	-68.100	 14.97893	 10.66979	  1.98475	 -3.19928	 17.73369	 -0.63023	 19.27218	708.90900	 41.50	
 20.403	-63.259	 15.02082	 11.56923	  1.22827	 -2.90484	 17.28405	 -0.61534	 19.24104	708.87903	 41.60	
 20.400	-58.396	 15.01904	 12.48224	  0.50876	 -2.54754	 16.75494	 -0.66505	 19.22049	708.88098	 41.60	
 20.410	-53.489	 15.01957	 13.39198	 -0.18199	 -2.18270	 16.15998	 -0.69426	 19.20656	708.85699	 41.70	
 20.408	-48.628	 15.06160	 14.24280	 -0.79952	 -1.70565	 15.44763	 -0.73740	 19.18395	708.77301	 41.80	
 20.396	-43.773	 15.05635	 15.01263	 -1.36703	 -1.17794	 14.69033	 -0.76716	 19.22534	708.78998	 41.90	
 20.392	-38.938	 15.08403	 15.72563	 -1.81382	 -0.57252	 13.95713	 -0.84012	 19.24400	708.78802	 42.00	
 20.397	-34.097	 15.04726	 16.34493	 -2.26723	  0.07131	 13.04700	 -0.81783	 19.16909	708.86798	 42.00	
 20.405	-29.165	 15.06952	 16.94176	 -2.62767	  0.77112	 12.16159	 -0.85622	 19.23149	708.84601	 42.20	
 20.401	-24.295	 15.08700	 17.46567	 -2.92041	  1.48900	 11.25962	 -0.85798	 19.19449	708.91699	 42.20	
 20.392	-19.504	 15.08468	 17.82513	 -3.15858	  2.31898	 10.26539	 -0.87958	 19.18624	708.89801	 42.30	
 20.410	-14.577	 15.09556	 18.16183	 -3.34741	  3.16752	  9.32670	 -0.87281	 19.18873	708.86902	 42.30	
 20.407	 -9.736	 15.10556	 18.40469	 -3.49840	  4.06320	  8.33228	 -0.86958	 19.19102	708.87097	 42.40	
 20.401	 -4.847	 15.15032	 18.55882	 -3.59778	  4.99532	  7.38149	 -0.84742	 19.17856	708.90900	 42.50	
 20.400	  0.000	 15.11142	 18.65400	 -3.61874	  5.94855	  6.39270	 -0.85599	 19.25228	708.88702	 42.50	
 20.401	  4.847	 15.12865	 18.63239	 -3.62144	  6.92706	  5.46907	 -0.84809	 19.25361	708.86298	 42.50	
 20.407	  9.736	 15.13714	 18.50867	 -3.52587	  7.93506	  4.55119	 -0.87079	 19.25357	708.98602	 42.50	
 20.410	 14.577	 15.16441	 18.34028	 -3.37307	  8.91994	  3.63284	 -0.87624	 19.23270	708.92798	 42.50	
 20.392	 19.504	 15.17900	 18.06542	 -3.19427	  9.91525	  2.77940	 -0.85819	 19.23699	708.94598	 42.50	
 20.401	 24.295	 15.16941	 17.73139	 -2.93854	 10.86758	  2.02702	 -0.89692	 19.25215	708.80603	 42.50	
 20.405	 29.165	 15.15449	 17.24216	 -2.59667	 11.82031	  1.23984	 -0.92027	 19.17434	708.82202	 42.40	
 20.397	 34.097	 15.19029	 16.71490	 -2.19533	 12.72114	  0.59804	 -0.98505	 19.18141	708.88501	 42.40	
 20.392	 38.938	 15.17061	 16.09133	 -1.77069	 13.61308	 -0.07564	 -1.02899	 19.19002	708.95099	 42.50	
 20.396	 43.773	 15.20991	 15.43226	 -1.27563	 14.41371	 -0.68108	 -1.04154	 19.17267	708.82501	 42.50	
 20.408	 48.628	 15.21106	 14.64498	 -0.70649	 15.15716	 -1.23266	 -1.06600	 19.14207	708.94299	 42.60	
 20.410	 53.489	 15.21422	 13.86292	 -0.11923	 15.89242	 -1.67380	 -1.07485	 19.17951	708.87097	 42.70	
 20.400	 58.396	 15.22323	 13.00196	  0.54788	 16.47303	 -2.05403	 -1.04019	 19.15334	708.88501	 42.80	
 20.403	 63.259	 15.25851	 12.12269	  1.26337	 17.04816	 -2.45657	 -1.02777	 19.14160	708.89801	 42.90	
 20.413	 68.100	 15.26191	 11.21070	  2.01513	 17.56408	 -2.73182	 -1.01898	 19.16998	708.85999	 42.90	
 20.398	 72.996	 15.28493	 10.24339	  2.88870	 17.91671	 -2.94378	 -0.96583	 19.18274	708.87097	 42.90	
 20.394	 77.868	 15.30418	  9.27633	  3.74546	 18.16099	 -3.11606	 -0.90107	 19.21701	708.91699	 42.90	
 20.403	 82.668	 15.27553	  8.28627	  4.64006	 18.32077	 -3.25945	 -0.84179	 19.16964	708.84399	 42.90	
 20.392	 87.560	 15.27790	  7.30805	  5.60383	 18.47450	 -3.31021	 -0.80857	 19.17860	708.90100	 42.90	
 20.392	 92.440	 15.27254	  6.33359	  6.54732	 18.48890	 -3.28845	 -0.77595	 19.17054	708.91901	 42.90	
 20.403	 97.332	 15.26544	  5.38257	  7.55917	 18.42935	 -3.25197	 -0.75015	 19.15925	708.87299	 42.90	
 20.394	102.132	 15.31186	  4.48739	  8.57258	 18.31297	 -3.11791	 -0.76233	 19.21499	708.82501	 42.90	
 20.398	107.004	 15.32556	  3.61514	  9.57328	 18.08422	 -2.95309	 -0.78597	 19.23775	708.83899	 42.90	
 20.413	111.900	 15.30077	  2.71974	 10.54878	 17.72295	 -2.74243	 -0.77144	 19.22093	708.78198	 42.80	
 20.403	116.741	 15.28162	  1.92759	 11.49325	 17.27794	 -2.43343	 -0.80936	 19.19420	708.83899	 42.80	
 20.400	121.604	 15.25955	  1.20409	 12.43238	 16.79202	 -2.08595	 -0.86908	 19.17679	708.83002	 42.80	
 20.410	126.511	 15.29503	  0.49346	 13.33374	 16.17627	 -1.64232	 -0.89584	 19.16435	708.86298	 42.80	
 20.408	131.372	 15.30722	 -0.15878	 14.17297	 15.52916	 -1.23052	 -0.91487	 19.20088	708.82202	 42.80	
 20.396	136.227	 15.29298	 -0.77040	 14.97307	 14.80964	 -0.64804	 -0.93394	 19.19763	708.86298	 42.80	
 20.392	141.062	 15.28257	 -1.23693	 15.69262	 14.02381	 -0.09081	 -0.95826	 19.18618	708.87598	 42.90	
 20.397	145.903	 15.35612	 -1.70371	 16.33728	 13.22559	  0.57492	 -0.92747	 19.23379	708.84601	 42.90	
 20.405	150.835	 15.29954	 -2.10168	 16.89779	 12.26618	  1.27781	 -0.91813	 19.22314	708.83301	 42.90	
 20.401	155.705	 15.26927	 -2.44538	 17.35735	 11.27400	  2.07739	 -0.92133	 19.14524	708.91901	 42.80	
 20.392	160.496	 15.27531	 -2.71361	 17.75748	 10.36742	  2.84227	 -0.85404	 19.17060	708.90302	 42.80	
 20.410	165.423	 15.26454	 -2.95547	 18.06601	  9.32032	  3.71951	 -0.87988	 19.14815	708.84601	 42.90	
 20.407	170.264	 15.23044	 -3.08192	 18.22096	  8.40274	  4.58441	 -0.86546	 19.13102	708.90399	 43.00	
 20.401	175.153	 15.21448	 -3.15835	 18.36352	  7.35880	  5.55149	 -0.82512	 19.18443	708.86200	 43.00	
  0.141	 45.000	 19.25169	 10.19924	  9.64940	  9.80747	 10.04618	  0.12566	 19.20841	708.83099	 43.10	
  4.001	128.691	 19.23961	  8.62001	 11.06125	 11.48289	  8.22989	  0.04087	 19.27115	708.72803	 43.10	
  4.002	 76.995	 19.26894	 10.56326	  9.11146	 11.96613	  7.77524	  0.00543	 19.27883	708.76801	 43.10	
  4.002	 25.892	 19.25400	 12.17512	  7.53388	 10.64875	  8.95844	  0.04373	 19.30021	708.87097	 43.00	
  4.002	-25.892	 19.22757	 12.11730	  7.56422	  8.54357	 10.99218	  0.02692	 19.28064	708.83899	 42.90	
  4.002	-76.995	 19.22375	 10.46033	  9.06198	  7.42176	 12.29377	  0.00411	 19.28377	708.86798	 42.80	
  4.001	-128.691	 19.25488	  8.51517	 11.11538	  7.85968	 11.84208	  0.02853	 19.28563	708.72302	 42.70	
  4.000	180.000	 19.30247	  7.74674	 12.03678	  9.66646	 10.02550	  0.06706	 19.29605	708.78198	 42.60	
  8.000	180.000	 18.90300	  5.05546	 14.12235	  9.22558	  9.58306	 -0.27773	 19.32580	708.75201	 42.50	
  7.991	-152.370	 18.87201	  5.48702	 13.54275	  7.04576	 11.82682	 -0.25238	 19.29144	708.80603	 42.40	
  7.997	-124.550	 18.79902	  6.83749	 11.89384	  5.38285	 13.58535	 -0.24968	 19.29254	708.67102	 42.30	
  8.006	-96.837	 18.75715	  8.85039	  9.65202	  4.62700	 14.37512	 -0.26185	 19.25985	708.74103	 42.30	
  7.988	-69.228	 18.81145	 11.14407	  7.43936	  4.84476	 14.09869	 -0.33211	 19.31807	708.79602	 42.20	
  7.997	-41.563	 18.80538	 13.14212	  5.65342	  6.04572	 12.71691	 -0.30143	 19.28972	708.72302	 42.30	
  8.008	-13.821	 18.81084	 14.31268	  4.67897	  7.96527	 10.58920	 -0.25282	 19.30673	708.65997	 42.20	
  8.008	 13.821	 18.85226	 14.37579	  4.70264	 10.26729	  8.36568	 -0.25224	 19.33261	708.78802	 42.20	
  7.997	 41.563	 18.90039	 13.30809	  5.71269	 12.43696	  6.44454	 -0.23866	 19.34476	708.75702	 42.10	
  7.988	 69.228	 18.89558	 11.37922	  7.47640	 13.83070	  5.28815	 -0.24673	 19.31074	708.71198	 42.10	
  8.006	 96.837	 18.87961	  9.09001	  9.70465	 14.14389	  5.07625	 -0.25936	 19.28159	708.78802	 42.00	
  7.997	124.550	 18.87745	  6.99972	 11.92130	 13.29940	  5.80336	 -0.25832	 19.26757	708.78400	 42.00	
  7.991	152.370	 18.92802	  5.60941	 13.55032	 11.53251	  7.42924	 -0.23742	 19.31275	708.67999	 42.00	
 12.009	161.059	 18.16500	  2.63195	 15.57154	 10.98000	  6.58731	 -0.60188	 19.31869	708.73102	 42.10	
 12.013	142.081	 18.20048	  3.61401	 14.41286	 13.20062	  4.63274	 -0.58492	 19.34949	708.74200	 42.00	
 12.006	123.113	 18.16945	  5.23301	 12.50674	 14.87227	  3.21144	 -0.64178	 19.32014	708.75000	 42.00	
 12.007	104.200	 18.18544	  7.29070	 10.25828	 15.86239	  2.40719	 -0.68844	 19.34262	708.75000	 41.90	
 11.989	 85.301	 18.16701	  9.61106	  7.88252	 16.00694	  2.23542	 -0.65698	 19.33328	708.73602	 41.90	
 12.013	 66.294	 18.13127	 11.94280	  5.62689	 15.34442	  2.68582	 -0.59832	 19.31974	708.79797	 41.90	
 12.012	 47.388	 18.13221	 14.00327	  3.79376	 13.92630	  3.81773	 -0.57933	 19.34521	708.67700	 41.80	
 11.990	 28.440	 18.10655	 15.45344	  2.53085	 11.94690	  5.49598	 -0.64279	 19.35157	708.75702	 41.80	
 11.991	  9.464	 18.07782	 16.22314	  1.86497	  9.60520	  7.61215	 -0.63795	 19.34848	708.72498	 41.70	
 11.991	 -9.464	 18.02671	 16.14042	  1.85573	  7.20907	  9.94803	 -0.63467	 19.30697	708.75299	 41.70	
 11.990	-28.440	 18.01777	 15.27545	  2.48926	  5.05465	 12.24331	 -0.62364	 19.30286	708.75702	 41.60	
 12.012	-47.388	 17.98947	 13.70364	  3.73820	  3.33203	 14.20722	 -0.66857	 19.31553	708.68500	 41.60	
 12.013	-66.294	 17.99739	 11.62175	  5.56639	  2.22169	 15.60621	 -0.73752	 19.33311	708.66302	 41.70	
 11.989	-85.301	 17.99747	  9.25961	  7.81644	  1.77507	 16.25571	 -0.71997	 19.37538	708.75299	 41.70	
 12.007	-104.200	 17.96197	  6.93830	 10.17207	  1.94694	 16.05141	 -0.67187	 19.32990	708.66302	 41.70	
 12.006	-123.113	 17.99075	  4.94887	 12.41581	  2.80345	 15.07433	 -0.62798	 19.32639	708.73102	 41.60	
 12.013	-142.081	 18.04681	  3.42760	 14.30686	  4.27729	 13.40980	 -0.63736	 19.32849	708.66400	 41.60	
 12.009	-161.059	 18.12276	  2.50431	 15.56742	  6.29143	 11.24609	 -0.68037	 19.34523	708.71198	 41.50	
 16.000	180.000	 17.02787	 -0.53417	 17.46900	  7.71237	  7.92535	 -0.92247	 19.36934	708.71503	 41.50	
 15.990	-165.604	 16.92730	 -0.34330	 17.07535	  5.37918	 10.26220	 -0.92916	 19.30838	708.72803	 41.50	
 16.002	-151.165	 16.85610	  0.28352	 16.11757	  3.27100	 12.54720	 -0.93248	 19.30791	708.69897	 41.40	
 16.002	-136.836	 16.81070	  1.40155	 14.59925	  1.54833	 14.55246	 -0.90217	 19.31449	708.77698	 41.50	
 15.995	-122.439	 16.77110	  2.93984	 12.63039	  0.22443	 16.16064	 -0.89017	 19.31676	708.71198	 41.60	
 15.993	-107.966	 16.70838	  4.85587	 10.32899	 -0.61298	 17.16510	 -0.91161	 19.28169	708.75000	 41.60	
 16.005	-93.629	 16.73353	  7.06187	  7.97078	 -0.98571	 17.64410	 -0.86707	 19.33461	708.77600	 41.60	
 15.992	-79.234	 16.75058	  9.40678	  5.65941	 -0.88947	 17.45226	 -0.83021	 19.32785	708.76001	 41.70	
 16.009	-64.774	 16.74715	 11.73048	  3.51740	 -0.35741	 16.67283	 -0.83279	 19.31525	708.76099	 41.70	
 15.997	-50.364	 16.82004	 13.87187	  1.80389	  0.68591	 15.32905	 -0.85857	 19.33366	708.72601	 41.70	
 15.997	-36.045	 16.83975	 15.63823	  0.45264	  2.15079	 13.48892	 -0.85985	 19.33704	708.66101	 41.70	
 16.000	-21.597	 16.85173	 16.88522	 -0.44709	  4.02906	 11.29942	 -0.90906	 19.32599	708.67700	 41.60	
 16.003	 -7.169	 16.87452	 17.57190	 -0.90820	  6.21089	  8.96483	 -0.92594	 19.34460	708.67999	 41.60	
 16.003	  7.169	 16.85392	 17.58009	 -0.88761	  8.53935	  6.64057	 -0.92340	 19.29456	708.66803	 41.60	
 16.000	 21.597	 16.86520	 17.03715	 -0.45553	 10.90045	  4.47886	 -0.98175	 19.29134	708.64398	 41.60	
 15.997	 36.045	 16.92918	 15.92071	  0.47075	 13.14114	  2.62932	 -0.95689	 19.31868	708.64801	 41.60	
 15.997	 50.364	 16.96844	 14.27233	  1.82930	 15.02878	  1.18437	 -0.88067	 19.31738	708.62500	 41.60	
 16.009	 64.774	 16.94525	 12.16414	  3.59622	 16.41017	  0.14164	 -0.91032	 19.27351	708.76599	 41.60	
 15.992	 79.234	 16.97220	  9.88017	  5.70503	 17.22290	 -0.40573	 -0.94930	 19.27121	708.69501	 41.60	
 16.005	 93.629	 17.00133	  7.52839	  8.04007	 17.46187	 -0.51391	 -0.93517	 19.30112	708.74200	 41.70	
 15.993	107.966	 17.04683	  5.30915	 10.44401	 17.08076	 -0.16956	 -0.94502	 19.34167	708.74200	 41.80	
 15.995	122.439	 17.00281	  3.28434	 12.69347	 15.98635	  0.65257	 -0.93992	 19.28227	708.74200	 41.80	
 16.002	136.836	 17.00842	  1.68395	 14.65949	 14.39616	  1.90248	 -0.89340	 19.28705	708.67200	 41.80	
 16.002	151.165	 17.04475	  0.48882	 16.18950	 12.39032	  3.58910	 -0.89526	 19.31172	708.74902	 41.80	
 15.990	165.604	 17.00102	 -0.25023	 17.10651	 10.08434	  5.61773	 -0.92214	 19.29595	708.67102	 41.80	
 20.003	168.362	 15.49302	 -2.82547	 18.19454	  8.88127	  4.45769	 -0.90963	 19.25896	708.67902	 41.80	
 20.008	156.764	 15.52431	 -2.31701	 17.48488	 11.19216	  2.44212	 -0.95378	 19.28613	708.70697	 41.80	
 20.000	145.147	 15.55471	 -1.44363	 16.27224	 13.36810	  0.69401	 -0.98404	 19.29119	708.75000	 41.90	
 19.995	133.545	 15.56349	 -0.23947	 14.62166	 15.28271	 -0.74460	 -0.97124	 19.31774	708.74402	 41.90	
 20.009	121.926	 15.54915	  1.32124	 12.60314	 16.80639	 -1.82639	 -0.91181	 19.31763	708.77399	 41.90	
 20.005	110.327	 15.57211	  3.20756	 10.35983	 17.89635	 -2.56969	 -0.83862	 19.35011	708.69299	 41.90	
 19.989	 98.733	 15.56997	  5.28598	  8.02915	 18.45150	 -2.96784	 -0.81420	 19.36064	708.72498	 41.80	
 19.999	 87.075	 15.54926	  7.54172	  5.68522	 18.50357	 -3.05845	 -0.85376	 19.32481	708.67902	 41.80	
 19.992	 75.457	 15.53786	  9.86033	  3.51764	 18.09227	 -2.80669	 -0.99717	 19.32265	708.74103	 41.70	
 20.009	 63.844	 15.57530	 12.16568	  1.56689	 17.23485	 -2.24174	 -1.07139	 19.39008	708.64697	 41.70	
 19.989	 52.269	 15.55763	 14.21324	 -0.05712	 15.85009	 -1.32089	 -1.09270	 19.38089	708.61700	 41.70	
 19.999	 40.602	 15.47413	 15.93881	 -1.38720	 14.00426	 -0.06445	 -1.06095	 19.31520	708.66400	 41.60	
 20.004	 29.051	 15.45647	 17.32776	 -2.38262	 11.92859	  1.51479	 -0.99829	 19.34634	708.65198	 41.60	
 20.005	 17.433	 15.42991	 18.21566	 -3.05222	  9.65365	  3.37701	 -0.94054	 19.35290	708.65601	 41.50	
 20.006	  5.780	 15.38230	 18.60746	 -3.36632	  7.30084	  5.47091	 -0.92381	 19.32522	708.67102	 41.50	
 20.006	 -5.780	 15.32589	 18.50821	 -3.36038	  5.00837	  7.69521	 -0.92357	 19.27421	708.73602	 41.50	
 20.005	-17.433	 15.30965	 17.97931	 -3.04765	  2.88587	  9.99536	 -0.91016	 19.27654	708.58600	 41.50	
 20.004	-29.051	 15.33800	 17.02903	 -2.43365	  1.01216	 12.26093	 -0.90950	 19.34155	708.65302	 41.60	
 19.999	-40.602	 15.32012	 15.54149	 -1.44953	 -0.56158	 14.29247	 -0.86103	 19.33292	708.61499	 41.70	
 19.989	-52.269	 15.29489	 13.68361	 -0.13884	 -1.79604	 16.03007	 -0.75101	 19.33211	708.65601	 41.60	
 20.009	-63.844	 15.24549	 11.57163	  1.48466	 -2.69662	 17.38654	 -0.69843	 19.34501	708.72498	 41.60	
 19.992	-75.457	 15.22164	  9.30970	  3.44802	 -3.22728	 18.24646	 -0.69570	 19.34059	708.58801	 41.60	
 19.999	-87.075	 15.20815	  7.03597	  5.59931	 -3.46636	 18.66132	 -0.72781	 19.37619	708.60699	 41.60	
 19.989	-98.733	 15.16438	  4.77099	  7.93504	 -3.32652	 18.49511	 -0.80986	 19.30268	708.63702	 41.60	
 20.005	-110.327	 15.17302	  2.73226	 10.25691	 -2.92470	 17.93267	 -0.90369	 19.30818	708.65601	 41.60	
 20.009	-121.926	 15.19555	  0.95399	 12.47188	 -2.16540	 16.87073	 -0.97147	 19.29510	708.60699	 41.60	
 19.995	-133.545	 15.24922	 -0.50779	 14.49456	 -1.02935	 15.36019	 -0.98227	 19.29794	708.66400	 41.60	
 20.000	-145.147	 15.30705	 -1.65285	 16.16704	  0.45875	 13.47754	 -0.90547	 19.29196	708.53101	 41.60	
 20.008	-156.764	 15.37941	 -2.46782	 17.45338	  2.24959	 11.32540	 -0.83075	 19.31755	708.54999	 41.70	
 20.003	-168.362	 15.47230	 -2.91948	 18.23661	  4.32108	  9.04377	 -0.82762	 19.36203	708.58301	 41.70	
 20.000	180.000	 15.50047	 -3.03310	 18.47857	  6.57064	  6.69262	 -0.87251	 19.33451	708.55499	 41.70	
