FileType=PCF
NHL=14
Date=10/25/18	10:19:27
Facility=APL
Serial=16328-1
Customer=NASA
NP=6
Mach=0.250000
Calibration=1:1
CalPts=490
TstPts=95
PortNumbering=AP Standard
Units=Torr C m/s kg/m^3 deg mm 
Theta[deg]	Phi[deg]	P1[Torr]	P2[Torr]	P3[Torr]	P4[Torr]	P5[Torr]	P6[Torr]	Pt[Torr]	Ps[Abs,Torr]	Ts[C]	
  0.000	  0.000	 29.97849	 15.94759	 15.05808	 15.18538	 15.74859	  0.22846	 29.96294	711.28601	 15.70	
  1.691	128.401	 30.00046	 15.02427	 16.00705	 16.37180	 14.55292	  0.21478	 29.97800	711.25897	 15.70	
  1.692	 77.194	 30.01288	 16.33363	 14.69315	 16.66768	 14.23520	  0.20346	 30.00033	711.27698	 15.70	
  1.699	 26.182	 29.99337	 17.27064	 13.62323	 15.82187	 15.01139	  0.19876	 29.98270	711.24701	 15.80	
  1.699	-26.182	 30.00117	 17.20216	 13.64484	 14.45178	 16.34566	  0.20002	 29.98895	711.27802	 15.80	
  1.692	-77.194	 30.00747	 16.21103	 14.69567	 13.61719	 17.22371	  0.19486	 29.99587	711.21301	 15.80	
  1.691	-128.401	 29.96572	 14.90158	 15.99337	 13.90800	 16.91772	  0.19732	 29.94683	711.30902	 15.80	
  1.700	180.000	 30.00136	 14.38740	 16.58823	 15.17693	 15.75189	  0.21324	 29.97601	711.23102	 15.90	
  3.400	180.000	 30.00278	 12.68635	 18.13398	 15.10570	 15.65703	  0.16788	 30.02529	711.17200	 15.90	
  3.388	-152.325	 29.97860	 13.00677	 17.74255	 13.62612	 17.04935	  0.15650	 30.00526	711.26703	 15.90	
  3.397	-124.529	 29.91005	 13.93507	 16.70401	 12.42942	 18.13980	  0.14939	 29.95420	711.14203	 15.90	
  3.399	-96.763	 29.90870	 15.30922	 15.29643	 11.87075	 18.69234	  0.13503	 29.97405	711.22900	 15.90	
  3.394	-69.283	 29.90252	 16.70273	 13.80515	 12.06951	 18.47171	  0.12503	 29.97508	711.24200	 16.00	
  3.400	-41.398	 29.89849	 17.96183	 12.51866	 12.87871	 17.60176	  0.12468	 29.96753	711.20203	 16.00	
  3.401	-14.021	 29.90706	 18.76574	 11.83925	 14.21694	 16.24894	  0.13310	 29.98343	711.25897	 16.00	
  3.401	 14.021	 29.91411	 18.89417	 11.84566	 15.72351	 14.76779	  0.14035	 29.99007	711.22302	 16.00	
  3.400	 41.398	 29.93546	 18.23892	 12.53883	 17.05351	 13.47819	  0.14841	 29.99029	711.14600	 16.00	
  3.394	 69.283	 29.95089	 16.93047	 13.79650	 17.99080	 12.61834	  0.13215	 29.98036	711.20502	 16.10	
  3.399	 96.763	 29.89889	 15.52942	 15.25387	 18.16687	 12.42043	  0.15759	 29.91603	711.14502	 16.10	
  3.397	124.529	 29.93304	 14.11287	 16.68065	 17.68586	 13.02899	  0.14939	 29.94839	711.12903	 16.10	
  3.388	152.325	 30.01758	 13.13253	 17.76375	 16.60024	 14.19926	  0.15638	 30.03519	711.16199	 16.10	
  5.099	161.165	 29.84146	 11.20359	 19.35102	 16.46782	 13.91061	  0.07439	 29.96993	711.19397	 16.10	
  5.109	142.013	 29.82926	 11.91964	 18.57888	 17.86337	 12.51167	  0.06913	 29.95324	711.19598	 16.10	
  5.095	123.033	 29.81686	 13.12280	 17.31681	 18.94474	 11.47941	  0.04777	 29.95330	711.19397	 16.10	
  5.105	104.191	 29.85277	 14.59829	 15.90440	 19.63957	 10.81892	  0.03396	 30.00568	711.26099	 16.20	
  5.093	 85.207	 29.78237	 16.08947	 14.33875	 19.64868	 10.69339	  0.03509	 29.93734	711.32397	 16.20	
  5.104	 66.290	 29.78509	 17.47857	 12.83688	 19.23460	 11.05149	  0.03558	 29.95609	711.25299	 16.20	
  5.094	 47.331	 29.78031	 18.84924	 11.50900	 18.26495	 11.87070	  0.02248	 29.97205	711.22803	 16.20	
  5.089	 28.397	 29.75782	 19.79762	 10.62892	 16.99820	 13.05877	  0.02634	 29.97558	711.18903	 16.20	
  5.096	  9.576	 29.71283	 20.27282	 10.09747	 15.49857	 14.49421	  0.02716	 29.94351	711.17798	 16.20	
  5.096	 -9.576	 29.72618	 20.20936	 10.10151	 13.91679	 16.08420	 -0.01563	 29.96728	711.09198	 16.20	
  5.089	-28.397	 29.70292	 19.59968	 10.59776	 12.45498	 17.52098	  0.01340	 29.95182	711.10498	 16.20	
  5.094	-47.331	 29.69947	 18.61680	 11.48352	 11.26769	 18.80159	 -0.04524	 29.94988	711.08301	 16.30	
  5.104	-66.290	 29.71666	 17.24316	 12.78096	 10.48387	 19.72407	 -0.05079	 29.96992	711.14203	 16.30	
  5.093	-85.207	 29.72483	 15.80438	 14.31083	 10.13042	 20.15360	 -0.01698	 29.97399	711.12903	 16.30	
  5.105	-104.191	 29.69773	 14.28043	 15.84513	 10.27227	 19.99719	 -0.06666	 29.92272	711.17297	 16.30	
  5.095	-123.033	 29.75978	 12.92133	 17.31003	 10.93764	 19.37116	  0.01577	 29.97382	711.18103	 16.30	
  5.109	-142.013	 29.75590	 11.73287	 18.59888	 11.95513	 18.28646	  0.03159	 29.94171	711.10199	 16.30	
  5.099	-161.165	 29.79860	 11.04248	 19.31981	 13.35824	 16.92666	  0.04270	 29.96127	711.08899	 16.30	
  5.100	180.000	 29.81199	 10.89035	 19.57378	 14.92858	 15.41118	  0.04877	 29.95848	711.05701	 16.30	
  6.800	180.000	 29.60667	  9.24594	 20.97658	 14.70674	 15.11754	 -0.17356	 29.98944	711.08398	 16.30	
  6.796	-166.229	 29.60665	  9.35307	 20.82018	 13.19783	 16.60470	 -0.12624	 30.01051	711.13702	 16.30	
  6.808	-152.311	 29.56450	  9.80473	 20.19384	 11.73009	 18.04126	 -0.19104	 29.98840	711.15302	 16.30	
  6.795	-138.383	 29.54199	 10.48563	 19.31003	 10.50861	 19.32885	 -0.20771	 30.00046	711.04303	 16.40	
  6.792	-124.591	 29.47960	 11.51664	 18.07881	  9.51658	 20.37032	 -0.21953	 29.96550	711.05603	 16.40	
  6.787	-110.754	 29.47827	 12.88534	 16.69901	  8.86934	 21.12245	 -0.24305	 29.99035	711.02899	 16.40	
  6.800	-96.985	 29.42592	 14.33349	 15.17832	  8.43124	 21.48518	 -0.26683	 29.95743	711.12598	 16.40	
  6.800	-83.015	 29.43583	 15.79492	 13.65277	  8.40374	 21.51026	 -0.28652	 29.98046	711.15399	 16.40	
  6.787	-69.246	 29.40833	 17.22047	 12.14289	  8.71838	 21.07186	 -0.31314	 29.94860	711.11499	 16.40	
  6.792	-55.409	 29.42269	 18.60549	 10.83836	  9.34138	 20.32671	 -0.29979	 29.96235	711.13397	 16.40	
  6.795	-41.617	 29.41602	 19.82541	  9.77545	 10.22942	 19.25002	 -0.26698	 29.95353	711.08301	 16.40	
  6.808	-27.689	 29.44065	 20.82738	  8.91605	 11.42684	 17.97400	 -0.23448	 29.98826	711.15399	 16.40	
  6.796	-13.771	 29.43123	 21.40865	  8.46728	 12.84205	 16.48728	 -0.23793	 29.96639	711.14001	 16.40	
  6.800	  0.000	 29.45340	 21.66299	  8.29541	 14.38602	 14.99179	 -0.20421	 29.97995	711.16998	 16.40	
  6.796	 13.771	 29.42771	 21.48602	  8.49941	 15.87819	 13.48244	 -0.18761	 29.93786	711.08301	 16.40	
  6.808	 27.689	 29.46630	 21.00187	  8.97771	 17.36630	 12.04213	 -0.21458	 29.96322	711.11603	 16.40	
  6.795	 41.617	 29.47336	 20.10866	  9.78796	 18.70020	 10.82000	 -0.16666	 29.94756	711.08002	 16.40	
  6.792	 55.409	 29.52238	 18.93843	 10.87436	 19.80087	  9.96871	 -0.21945	 29.96924	711.15802	 16.40	
  6.787	 69.246	 29.55299	 17.59291	 12.16258	 20.58753	  9.34240	 -0.12267	 29.98098	711.12299	 16.40	
  6.800	 83.015	 29.52164	 16.22759	 13.61174	 21.00102	  9.00917	 -0.13489	 29.93523	711.13800	 16.50	
  6.800	 96.985	 29.54128	 14.72536	 15.17305	 21.05586	  9.02586	 -0.22289	 29.94297	711.10199	 16.50	
  6.787	110.754	 29.61903	 13.28064	 16.65794	 20.75500	  9.43405	 -0.20536	 30.00697	711.13702	 16.50	
  6.792	124.591	 29.60741	 11.85586	 18.03168	 20.02403	 10.05824	 -0.22437	 29.99039	711.15399	 16.50	
  6.795	138.383	 29.56863	 10.70582	 19.21633	 18.93684	 10.98103	 -0.16553	 29.94164	711.16400	 16.50	
  6.808	152.311	 29.57250	  9.95152	 20.14418	 17.64960	 12.17729	 -0.20702	 29.94368	711.16400	 16.50	
  6.796	166.229	 29.58335	  9.45207	 20.76526	 16.22291	 13.58381	 -0.14550	 29.95832	711.27399	 16.50	
  8.491	168.704	 29.22857	  7.68727	 22.09880	 15.92703	 13.14916	 -0.40063	 29.95251	711.16199	 16.50	
  8.502	157.493	 29.22409	  8.09152	 21.62307	 17.41326	 11.65779	 -0.40602	 29.94669	711.15302	 16.50	
  8.494	146.194	 29.26223	  8.74853	 20.84736	 18.82155	 10.39054	 -0.40586	 29.98453	711.10797	 16.50	
  8.495	135.039	 29.22313	  9.58401	 19.77678	 20.07823	  9.28298	 -0.42193	 29.95042	711.04102	 16.50	
  8.487	123.723	 29.21488	 10.64626	 18.47739	 21.10160	  8.43590	 -0.46104	 29.95091	711.08899	 16.60	
  8.492	112.575	 29.22067	 11.99546	 17.06166	 21.83788	  7.79791	 -0.48259	 29.96109	711.11603	 16.60	
  8.510	101.220	 29.18318	 13.59213	 15.55723	 22.28503	  7.34174	 -0.48810	 29.94647	711.11499	 16.60	
  8.500	 90.000	 29.14475	 15.12917	 13.96978	 22.39014	  7.17837	 -0.49793	 29.91570	711.08398	 16.60	
  8.510	 78.780	 29.16121	 16.62648	 12.42648	 22.20640	  7.33038	 -0.34558	 29.94262	711.16998	 16.60	
  8.492	 67.425	 29.15523	 18.03908	 10.93138	 21.67511	  7.68555	 -0.31628	 29.95116	711.13397	 16.60	
  8.487	 56.277	 29.12855	 19.40511	  9.67192	 20.84881	  8.32406	 -0.45230	 29.93677	711.11298	 16.60	
  8.495	 44.961	 29.10359	 20.67913	  8.56069	 19.76188	  9.18418	 -0.43831	 29.94930	711.17700	 16.60	
  8.494	 33.806	 29.08127	 21.64529	  7.70141	 18.48400	 10.25292	 -0.45683	 29.94759	711.12598	 16.70	
  8.502	 22.507	 29.07545	 22.36929	  7.04420	 17.05430	 11.55287	 -0.46334	 29.96660	711.18799	 16.70	
  8.491	 11.296	 29.02618	 22.75524	  6.66388	 15.52826	 13.01561	 -0.43162	 29.93043	711.11603	 16.70	
  8.500	  0.000	 29.05471	 22.90632	  6.49595	 13.98578	 14.59977	 -0.44532	 29.97278	711.05298	 16.70	
  8.491	-11.296	 28.99017	 22.66156	  6.62001	 12.38876	 16.11433	 -0.47362	 29.91033	711.06500	 16.70	
  8.502	-22.507	 29.00694	 22.14804	  7.02266	 10.91409	 17.63784	 -0.48817	 29.93591	711.10498	 16.70	
  8.494	-33.806	 28.96694	 21.35614	  7.60439	  9.57947	 19.04864	 -0.49603	 29.91393	711.08099	 16.70	
  8.495	-44.961	 29.01146	 20.33387	  8.52400	  8.51551	 20.33494	 -0.53795	 29.95988	711.09998	 16.70	
  8.487	-56.277	 29.00250	 19.02216	  9.62093	  7.61422	 21.39999	 -0.58633	 29.96216	711.08899	 16.70	
  8.492	-67.425	 28.97110	 17.58876	 10.91234	  7.02639	 22.13660	 -0.59695	 29.92770	711.09198	 16.70	
  8.510	-78.780	 28.94670	 16.08976	 12.38890	  6.62813	 22.65264	 -0.59024	 29.92044	711.10498	 16.70	
  8.500	-90.000	 28.94601	 14.60550	 13.94312	  6.51292	 22.81573	 -0.55579	 29.90964	711.16199	 16.70	
  8.510	-101.220	 28.96491	 13.07880	 15.51340	  6.67528	 22.68276	 -0.54093	 29.92657	711.15601	 16.70	
  8.492	-112.575	 29.03823	 11.61783	 17.07233	  7.15944	 22.21483	 -0.50519	 29.96359	711.08600	 16.70	
  8.487	-123.723	 29.03076	 10.28800	 18.48429	  7.85033	 21.42791	 -0.47918	 29.92769	711.05701	 16.70	
  8.495	-135.039	 29.04276	  9.26037	 19.77478	  8.77298	 20.35252	 -0.45879	 29.91333	711.01801	 16.70	
  8.494	-146.194	 29.11023	  8.49730	 20.81829	  9.93301	 19.12263	 -0.46508	 29.94198	711.07202	 16.80	
  8.502	-157.493	 29.11788	  7.85361	 21.61858	 11.27229	 17.68695	 -0.46835	 29.92567	711.11603	 16.80	
  8.491	-168.704	 29.16762	  7.57052	 22.08907	 12.76357	 16.25412	 -0.44884	 29.93739	711.11499	 16.80	
  8.500	180.000	 29.19174	  7.47231	 22.27187	 14.32763	 14.72627	 -0.42528	 29.94857	711.15302	 16.80	
 10.200	180.000	 28.67930	  5.60501	 23.47895	 13.90539	 14.21563	 -0.68442	 29.90124	711.09399	 16.80	
 10.191	-170.497	 28.69003	  5.72021	 23.36177	 12.35498	 15.79359	 -0.70920	 29.93092	711.02600	 16.80	
 10.210	-161.034	 28.62142	  5.94523	 22.96933	 10.77158	 17.28527	 -0.72543	 29.90873	711.07300	 16.80	
 10.194	-151.526	 28.64766	  6.45790	 22.28580	  9.40371	 18.80323	 -0.72539	 29.96247	711.09998	 16.80	
 10.190	-142.105	 28.56590	  7.10522	 21.33300	  8.09511	 20.16500	 -0.71242	 29.92307	711.09198	 16.80	
 10.215	-132.646	 28.55183	  8.01804	 20.19325	  6.98818	 21.39588	 -0.69598	 29.93758	710.99500	 16.80	
 10.203	-123.092	 28.49304	  9.07143	 18.86158	  6.10500	 22.40863	 -0.71865	 29.92223	711.01001	 16.80	
 10.192	-113.678	 28.48269	 10.28758	 17.43434	  5.45753	 23.18783	 -0.75805	 29.93779	711.06702	 16.80	
 10.208	-104.249	 28.46168	 11.72380	 15.91539	  4.98913	 23.72955	 -0.79309	 29.93488	711.08899	 16.80	
 10.210	-94.801	 28.46877	 13.24900	 14.36185	  4.68850	 24.01937	 -0.82504	 29.95966	711.07501	 16.80	
 10.210	-85.199	 28.42201	 14.80757	 12.70527	  4.64977	 24.00331	 -0.84954	 29.92278	711.08002	 16.80	
 10.208	-75.751	 28.43497	 16.40200	 11.10659	  4.86862	 23.71697	 -0.89059	 29.93146	711.14001	 16.80	
 10.192	-66.322	 28.45563	 17.83384	  9.70154	  5.27347	 23.19729	 -0.90301	 29.94967	711.12402	 16.80	
 10.203	-56.908	 28.45313	 19.24557	  8.43485	  5.84089	 22.39802	 -0.86692	 29.93276	711.03497	 16.80	
 10.215	-47.354	 28.42192	 20.64398	  7.18081	  6.65185	 21.33988	 -0.82196	 29.90319	711.05603	 16.90	
 10.190	-37.895	 28.43957	 21.73092	  6.27991	  7.72048	 20.08179	 -0.76143	 29.89693	711.04901	 16.90	
 10.194	-28.474	 28.47677	 22.71834	  5.56194	  8.95545	 18.75351	 -0.73503	 29.93578	711.03198	 16.90	
 10.210	-18.966	 28.45886	 23.41601	  5.02977	 10.28400	 17.22133	 -0.75126	 29.90355	710.96802	 16.90	
 10.191	 -9.503	 28.52167	 23.88227	  4.74788	 11.85211	 15.67772	 -0.73617	 29.94438	710.96399	 16.90	
 10.200	  0.000	 28.53285	 24.08082	  4.64086	 13.45189	 14.09246	 -0.70473	 29.95407	711.04498	 16.90	
 10.191	  9.503	 28.48021	 23.95218	  4.74175	 15.01818	 12.48753	 -0.70767	 29.89150	711.09198	 16.90	
 10.210	 18.966	 28.55033	 23.63737	  5.08816	 16.57738	 11.06136	 -0.74187	 29.94542	710.96802	 16.90	
 10.194	 28.474	 28.57453	 23.02574	  5.59050	 18.09628	  9.71584	 -0.74927	 29.95271	710.98401	 16.90	
 10.190	 37.895	 28.53717	 22.15966	  6.34611	 19.44339	  8.51511	 -0.72462	 29.89751	711.02100	 16.90	
 10.215	 47.354	 28.55837	 21.09060	  7.27627	 20.71373	  7.47785	 -0.69360	 29.88993	711.07300	 16.90	
 10.203	 56.908	 28.60246	 19.81986	  8.40621	 21.80440	  6.62242	 -0.70773	 29.91223	710.97601	 16.90	
 10.192	 66.322	 28.64310	 18.42145	  9.66207	 22.64713	  6.00908	 -0.74130	 29.92773	711.00000	 16.90	
 10.208	 75.751	 28.67740	 16.95974	 11.08853	 23.24918	  5.62847	 -0.65477	 29.94656	710.88397	 17.00	
 10.210	 85.199	 28.69407	 15.53117	 12.66170	 23.58669	  5.40146	 -0.78421	 29.95324	710.88098	 17.00	
 10.210	 94.801	 28.63270	 13.90104	 14.24161	 23.58158	  5.36642	 -0.79862	 29.88465	710.96503	 17.00	
 10.208	104.249	 28.68438	 12.33644	 15.82634	 23.38194	  5.63959	 -0.79482	 29.92263	710.96198	 17.00	
 10.192	113.678	 28.68259	 10.78030	 17.35254	 22.84561	  6.12727	 -0.79607	 29.90546	710.96802	 17.00	
 10.203	123.092	 28.69737	  9.58130	 18.77462	 22.10100	  6.71695	 -0.75602	 29.90645	710.92902	 17.00	
 10.215	132.646	 28.70312	  8.43722	 20.12221	 21.10372	  7.53562	 -0.71380	 29.90403	710.98102	 17.10	
 10.190	142.105	 28.72295	  7.45391	 21.30473	 19.88061	  8.59965	 -0.68595	 29.92212	710.87500	 17.10	
 10.194	151.526	 28.68737	  6.70927	 22.21343	 18.47993	  9.76021	 -0.68861	 29.88360	710.98401	 17.10	
 10.210	161.034	 28.72185	  6.12577	 22.93204	 17.04818	 11.12935	 -0.70613	 29.92155	710.90601	 17.10	
 10.191	170.497	 28.70859	  5.75470	 23.34859	 15.50716	 12.64265	 -0.72246	 29.92402	710.92401	 17.10	
 11.899	171.783	 28.11442	  3.88441	 24.45073	 15.04641	 12.10120	 -0.96627	 29.88419	710.92401	 17.10	
 11.890	163.610	 28.11772	  4.19424	 24.10692	 16.60680	 10.56338	 -0.94198	 29.88347	710.86499	 17.10	
 11.889	155.445	 28.14944	  4.70772	 23.54312	 18.10361	  9.18218	 -0.91693	 29.91774	710.91901	 17.20	
 11.909	147.299	 28.13936	  5.34490	 22.72055	 19.53189	  7.90367	 -0.89429	 29.90175	710.97601	 17.20	
 11.902	139.148	 28.12877	  6.18547	 21.68230	 20.88060	  6.74982	 -0.90482	 29.90199	710.88702	 17.20	
 11.894	130.867	 28.09819	  7.18830	 20.47584	 22.03135	  5.75372	 -0.94922	 29.88432	710.85199	 17.20	
 11.897	122.732	 28.10258	  8.38715	 19.08229	 23.00391	  5.01362	 -1.00998	 29.88732	710.83600	 17.20	
 11.903	114.597	 28.10964	  9.62052	 17.65676	 23.80763	  4.37495	 -1.07342	 29.91331	710.82800	 17.20	
 11.893	106.346	 28.09507	 10.98461	 16.09220	 24.33470	  3.96128	 -1.08289	 29.89236	710.85101	 17.20	
 11.892	 98.155	 28.08068	 12.55184	 14.51584	 24.65158	  3.61240	 -1.08099	 29.89560	710.90802	 17.20	
 11.900	 90.000	 28.06734	 14.18912	 12.89253	 24.71797	  3.50516	 -1.06625	 29.89457	710.90302	 17.20	
 11.892	 81.845	 28.08457	 15.77141	 11.29173	 24.55170	  3.64406	 -1.05133	 29.90558	710.88702	 17.20	
 11.893	 73.654	 28.06183	 17.20127	  9.81954	 24.16960	  3.85028	 -1.02059	 29.90879	710.87598	 17.20	
 11.903	 65.403	 28.03350	 18.68034	  8.45187	 23.52471	  4.29901	 -0.98306	 29.89778	710.83301	 17.20	
 11.897	 57.268	 28.00236	 20.09999	  7.17587	 22.66497	  4.95473	 -0.94378	 29.88555	710.84302	 17.20	
 11.894	 49.133	 28.00626	 21.41601	  6.04216	 21.65397	  5.78275	 -0.93027	 29.92222	710.83600	 17.20	
 11.902	 40.852	 27.94019	 22.52145	  5.06371	 20.36066	  6.78324	 -0.96503	 29.87387	710.87500	 17.20	
 11.909	 32.701	 27.93313	 23.48293	  4.26951	 19.00613	  7.90819	 -1.02344	 29.89398	710.94897	 17.20	
 11.889	 24.555	 27.92974	 24.22098	  3.63857	 17.54032	  9.19115	 -1.03340	 29.90614	710.87299	 17.20	
 11.890	 16.390	 27.93143	 24.76307	  3.21576	 16.04253	 10.52308	 -1.01936	 29.93340	710.87598	 17.20	
 11.899	  8.217	 27.88152	 25.04525	  2.91472	 14.45268	 12.01611	 -0.98266	 29.89501	710.88702	 17.20	
 11.900	  0.000	 27.87418	 25.09455	  2.84456	 12.85744	 13.54971	 -0.98504	 29.88940	710.85699	 17.20	
 11.899	 -8.217	 27.89595	 24.96852	  2.91954	 11.23144	 15.16926	 -0.98685	 29.92138	710.92102	 17.20	
 11.890	-16.390	 27.85020	 24.54372	  3.15231	  9.71998	 16.72734	 -0.99246	 29.89145	710.88397	 17.20	
 11.889	-24.555	 27.85494	 23.94972	  3.55810	  8.35952	 18.26462	 -0.99112	 29.91739	710.86298	 17.20	
 11.909	-32.701	 27.78580	 23.08460	  4.10933	  7.04084	 19.70579	 -0.98806	 29.87663	710.86499	 17.20	
 11.902	-40.852	 27.73991	 22.03681	  4.92407	  5.86065	 21.00578	 -1.01226	 29.83563	710.86298	 17.20	
 11.894	-49.133	 27.75718	 20.86211	  5.92109	  4.86880	 22.23302	 -1.08361	 29.87137	710.84003	 17.20	
 11.897	-57.268	 27.81614	 19.51841	  7.14422	  4.12377	 23.25920	 -1.13824	 29.93109	710.84399	 17.20	
 11.903	-65.403	 27.80143	 18.07790	  8.40684	  3.49379	 24.06778	 -1.16786	 29.92789	710.88202	 17.20	
 11.893	-73.654	 27.73536	 16.55514	  9.83482	  3.10548	 24.59721	 -1.15683	 29.86827	710.82001	 17.20	
 11.892	-81.845	 27.74124	 15.03823	 11.30244	  2.83658	 24.95976	 -1.13703	 29.87403	710.87299	 17.20	
 11.900	-90.000	 27.75077	 13.45269	 12.90090	  2.75056	 25.10460	 -1.11960	 29.88924	710.84003	 17.20	
 11.892	-98.155	 27.75993	 11.85910	 14.54341	  2.91886	 24.99696	 -1.08586	 29.87659	710.82703	 17.30	
 11.893	-106.346	 27.77122	 10.37045	 16.15694	  3.19018	 24.64271	 -1.05983	 29.88901	710.84003	 17.30	
 11.903	-114.597	 27.81303	  9.07021	 17.63812	  3.72520	 24.07073	 -1.01229	 29.89804	710.92902	 17.30	
 11.897	-122.732	 27.81083	  7.85322	 19.07515	  4.39283	 23.26616	 -0.97742	 29.86071	710.79199	 17.30	
 11.894	-130.867	 27.87484	  6.72758	 20.46362	  5.23202	 22.30582	 -0.95723	 29.90165	710.92102	 17.30	
 11.902	-139.148	 27.89782	  5.76003	 21.67180	  6.28276	 21.11613	 -0.97848	 29.88490	710.84399	 17.30	
 11.909	-147.299	 27.90927	  4.99007	 22.68193	  7.47951	 19.77680	 -1.01478	 29.86256	710.78198	 17.30	
 11.889	-155.445	 27.96358	  4.42114	 23.50425	  8.84118	 18.32839	 -1.04356	 29.87660	710.90601	 17.30	
 11.890	-163.610	 27.98209	  3.96361	 24.09711	 10.24846	 16.81967	 -1.04169	 29.86352	710.87299	 17.30	
 11.899	-171.783	 28.05021	  3.77519	 24.45560	 11.82627	 15.30288	 -1.02236	 29.88637	710.77802	 17.30	
 11.900	180.000	 28.07394	  3.68046	 24.59846	 13.41900	 13.68093	 -1.00898	 29.89260	711.10999	 17.30	
 13.600	180.000	 27.35891	  1.75634	 25.62903	 12.85076	 13.02798	 -1.20970	 29.86908	710.84399	 17.30	
 13.608	-172.853	 27.33345	  1.75590	 25.51498	 11.23721	 14.68336	 -1.22785	 29.87126	711.76801	 17.30	
 13.611	-165.583	 27.30144	  1.94427	 25.20734	  9.71264	 16.23216	 -1.24551	 29.87522	710.81897	 17.40	
 13.601	-158.353	 27.29695	  2.37932	 24.66734	  8.27369	 17.79816	 -1.25671	 29.89569	710.87299	 17.40	
 13.609	-151.210	 27.22321	  2.91541	 23.92259	  6.89905	 19.25821	 -1.24014	 29.86223	710.83502	 17.40	
 13.611	-143.999	 27.17986	  3.56477	 23.00274	  5.60560	 20.67580	 -1.19842	 29.86527	710.90002	 17.40	
 13.601	-136.825	 27.15730	  4.41314	 21.94111	  4.47143	 21.96387	 -1.14757	 29.88676	711.70099	 17.40	
 13.596	-129.640	 27.09126	  5.42863	 20.68473	  3.49009	 23.07462	 -1.14191	 29.85543	711.02600	 17.40	
 13.611	-122.431	 27.08528	  6.52354	 19.33904	  2.66344	 24.05944	 -1.16181	 29.88619	710.77399	 17.40	
 13.604	-115.211	 27.07380	  7.71302	 17.87785	  1.99296	 24.88293	 -1.20426	 29.90893	710.84100	 17.40	
 13.595	-108.042	 27.03469	  9.01630	 16.36429	  1.50626	 25.46779	 -1.22325	 29.88917	710.84698	 17.40	
 13.607	-100.793	 26.98320	 10.43995	 14.75132	  1.15583	 25.84898	 -1.25625	 29.85304	711.64697	 17.40	
 13.601	-93.617	 26.99483	 11.93194	 13.08668	  0.93572	 26.06939	 -1.25354	 29.87887	711.67700	 17.40	
 13.601	-86.383	 27.02149	 13.53979	 11.54560	  0.88127	 26.08252	 -1.25194	 29.90321	711.61200	 17.40	
 13.607	-79.207	 26.96749	 15.14314	  9.96467	  0.98565	 25.82293	 -1.26502	 29.85335	711.61401	 17.40	
 13.595	-71.958	 27.01357	 16.70188	  8.51183	  1.30802	 25.43832	 -1.28639	 29.87532	711.58197	 17.40	
 13.604	-64.789	 27.01161	 18.16027	  7.11639	  1.74655	 24.82469	 -1.30225	 29.87304	711.63800	 17.40	
 13.611	-57.569	 27.03570	 19.64628	  5.81856	  2.34491	 24.04723	 -1.30773	 29.89299	711.62299	 17.40	
 13.596	-50.360	 27.05813	 21.01196	  4.68791	  3.13432	 23.05285	 -1.26840	 29.89106	711.04797	 17.50	
 13.601	-43.175	 27.03167	 22.20399	  3.69555	  4.07358	 21.87114	 -1.21184	 29.83812	711.64099	 17.50	
 13.611	-36.001	 27.06859	 23.35716	  2.77332	  5.13650	 20.59411	 -1.18227	 29.89082	711.58801	 17.50	
 13.609	-28.790	 27.05167	 24.23414	  2.08809	  6.34720	 19.14408	 -1.18131	 29.83484	711.57397	 17.50	
 13.601	-21.647	 27.07215	 24.98910	  1.58031	  7.66225	 17.66959	 -1.20493	 29.84482	711.49597	 17.50	
 13.611	-14.417	 27.11624	 25.58375	  1.20530	  9.08450	 16.11489	 -1.21473	 29.87866	711.64697	 17.50	
 13.608	 -7.147	 27.11823	 25.92327	  0.96084	 10.57613	 14.51813	 -1.22493	 29.85915	711.69702	 17.50	
 13.600	  0.000	 27.17663	 26.11558	  0.94203	 12.17361	 12.98328	 -1.22589	 29.91476	711.59003	 17.50	
 13.608	  7.147	 27.14398	 26.04247	  0.98292	 13.76662	 11.44350	 -1.24065	 29.87580	711.64600	 17.50	
 13.611	 14.417	 27.14289	 25.76316	  1.22070	 15.37752	  9.91242	 -1.26934	 29.86231	711.62299	 17.50	
 13.601	 21.647	 27.18001	 25.31773	  1.63788	 16.92050	  8.52868	 -1.30788	 29.87986	711.60602	 17.50	
 13.609	 28.790	 27.21672	 24.67818	  2.19368	 18.41339	  7.26817	 -1.31025	 29.89062	711.62799	 17.50	
 13.611	 36.001	 27.21929	 23.81771	  2.89797	 19.84556	  6.05613	 -1.26206	 29.87107	711.54102	 17.50	
 13.601	 43.175	 27.25025	 22.83442	  3.72964	 21.20512	  4.98818	 -1.18915	 29.88849	711.58197	 17.50	
 13.596	 50.360	 27.27864	 21.67757	  4.70755	 22.38646	  4.06465	 -1.15864	 29.88530	711.55499	 17.50	
 13.611	 57.569	 27.31023	 20.35066	  5.86623	 23.42266	  3.26620	 -1.17495	 29.88326	711.58002	 17.50	
 13.604	 64.789	 27.36012	 18.95235	  7.12205	 24.32562	  2.59901	 -1.22937	 29.91716	711.62201	 17.50	
 13.595	 71.958	 27.33681	 17.46042	  8.43518	 24.95175	  2.13023	 -1.27038	 29.87848	711.61200	 17.50	
 13.607	 79.207	 27.33139	 15.92619	  9.87748	 25.40119	  1.82458	 -1.30562	 29.85191	711.62701	 17.50	
 13.601	 86.383	 27.33994	 14.40879	 11.43110	 25.63317	  1.69586	 -1.31056	 29.83583	711.55798	 17.50	
 13.601	 93.617	 27.37281	 12.79515	 13.03038	 25.74409	  1.65424	 -1.32687	 29.88809	711.56598	 17.50	
 13.607	100.793	 27.37233	 11.17344	 14.64236	 25.57187	  1.86212	 -1.34702	 29.87637	711.52502	 17.50	
 13.595	108.042	 27.40198	  9.74683	 16.25208	 25.19462	  2.25741	 -1.33622	 29.88636	711.55499	 17.50	
 13.604	115.211	 27.38742	  8.41200	 17.79166	 24.60050	  2.70595	 -1.31220	 29.87219	711.50897	 17.50	
 13.611	122.431	 27.42475	  7.19649	 19.27901	 23.87332	  3.30611	 -1.27527	 29.91204	711.63000	 17.50	
 13.596	129.640	 27.43191	  5.93639	 20.66815	 22.87993	  4.10376	 -1.21309	 29.90154	711.61102	 17.50	
 13.601	136.825	 27.43262	  4.91447	 21.91040	 21.75484	  4.98778	 -1.15893	 29.89217	711.59998	 17.50	
 13.611	143.999	 27.42106	  3.94743	 22.98997	 20.46376	  6.01848	 -1.13257	 29.86760	711.59998	 17.50	
 13.609	151.210	 27.42402	  3.24120	 23.95290	 19.04717	  7.26024	 -1.14508	 29.87258	711.49500	 17.50	
 13.601	158.353	 27.43279	  2.68368	 24.63355	 17.59763	  8.57280	 -1.18375	 29.86068	711.53900	 17.50	
 13.611	165.583	 27.44238	  2.21576	 25.21589	 16.07782	 10.01888	 -1.22939	 29.90050	711.46301	 17.50	
 13.608	172.853	 27.39854	  1.98119	 25.49312	 14.43613	 11.55008	 -1.21987	 29.86523	711.56299	 17.50	
 15.298	173.587	 26.56380	  0.08489	 26.40654	 13.80072	 10.84265	 -1.35864	 29.83532	711.59198	 17.50	
 15.291	167.167	 26.65113	  0.29096	 26.16850	 15.43875	  9.38232	 -1.36595	 29.87004	711.59198	 17.50	
 15.307	160.676	 26.63224	  0.64002	 25.70506	 17.00775	  7.89433	 -1.38239	 29.91518	711.68903	 17.50	
 15.300	154.261	 26.66849	  1.15395	 25.02851	 18.53077	  6.56208	 -1.33025	 29.88254	711.57898	 17.50	
 15.288	147.854	 26.68218	  1.86067	 24.20286	 19.95670	  5.35887	 -1.31461	 29.89010	711.51801	 17.50	
 15.293	141.428	 26.66722	  2.67212	 23.17745	 21.30230	  4.23598	 -1.31700	 29.87646	711.50403	 17.50	
 15.299	134.985	 26.59324	  3.60348	 22.01363	 22.48938	  3.23271	 -1.34308	 29.82127	711.59497	 17.50	
 15.305	128.583	 26.64384	  4.67224	 20.80027	 23.64364	  2.30934	 -1.39608	 29.90250	711.50299	 17.60	
 15.309	122.142	 26.59809	  5.86617	 19.35167	 24.55604	  1.54580	 -1.44731	 29.85168	711.54102	 17.60	
 15.304	115.711	 26.59983	  7.12429	 17.88871	 25.34683	  0.94787	 -1.46129	 29.85863	711.55200	 17.60	
 15.297	109.291	 26.59898	  8.44422	 16.35915	 25.95024	  0.48205	 -1.46594	 29.86893	711.59802	 17.60	
 15.293	102.897	 26.58281	  9.83322	 14.78118	 26.35418	  0.13197	 -1.45616	 29.85625	711.54199	 17.60	
 15.293	 96.458	 26.54647	 11.26988	 13.16573	 26.55322	 -0.08179	 -1.45841	 29.82440	711.65198	 17.60	
 15.300	 90.000	 26.58960	 12.90582	 11.60331	 26.64097	 -0.18152	 -1.46542	 29.86585	711.61102	 17.60	
 15.293	 83.542	 26.58352	 14.53839	  9.99761	 26.49704	 -0.11591	 -1.47852	 29.86358	711.60400	 17.60	
 15.293	 77.103	 26.55739	 16.09724	  8.49705	 26.18959	  0.06002	 -1.47802	 29.87098	711.58698	 17.60	
 15.297	 70.709	 26.54760	 17.58677	  7.09185	 25.65979	  0.45000	 -1.45015	 29.86917	711.50098	 17.60	
 15.304	 64.289	 26.52139	 19.05315	  5.76704	 24.95680	  0.94353	 -1.40844	 29.84952	711.49500	 17.60	
 15.309	 57.858	 26.53062	 20.49114	  4.53390	 24.13240	  1.55356	 -1.36371	 29.88899	711.42798	 17.60	
 15.305	 51.417	 26.44746	 21.77708	  3.40297	 23.05669	  2.31844	 -1.34926	 29.83044	711.42798	 17.60	
 15.299	 45.015	 26.47908	 22.98536	  2.47214	 21.92327	  3.23717	 -1.38800	 29.87046	711.46600	 17.60	
 15.293	 38.572	 26.44308	 24.08054	  1.51460	 20.62041	  4.23063	 -1.44783	 29.87412	711.51501	 17.60	
 15.288	 32.146	 26.40929	 24.94378	  0.78953	 19.20211	  5.34935	 -1.51511	 29.85006	711.45801	 17.70	
 15.300	 25.739	 26.42905	 25.70269	  0.18996	 17.77141	  6.57645	 -1.54797	 29.89429	711.46899	 17.60	
 15.307	 19.324	 26.33744	 26.26448	 -0.32439	 16.20569	  7.84345	 -1.53407	 29.85808	711.47601	 17.70	
 15.291	 12.833	 26.32653	 26.68133	 -0.72797	 14.66193	  9.25267	 -1.48555	 29.86967	711.49902	 17.70	
 15.298	  6.413	 26.32207	 26.88550	 -0.88603	 13.04457	 10.74538	 -1.45891	 29.85376	711.44397	 17.70	
 15.300	  0.000	 26.30854	 26.90956	 -0.95327	 11.41484	 12.29109	 -1.43755	 29.83087	711.45502	 17.70	
 15.298	 -6.413	 26.34089	 26.83106	 -0.89867	  9.90920	 13.86602	 -1.42121	 29.89167	711.45502	 17.60	
 15.291	-12.833	 26.29042	 26.49294	 -0.70681	  8.39262	 15.44164	 -1.41264	 29.86678	711.45001	 17.70	
 15.307	-19.324	 26.28029	 25.98483	 -0.35265	  6.91951	 17.03835	 -1.39780	 29.86909	711.41998	 17.70	
 15.300	-25.739	 26.22436	 25.28849	  0.12541	  5.61295	 18.48347	 -1.36214	 29.82517	711.40198	 17.70	
 15.288	-32.146	 26.23228	 24.46251	  0.73452	  4.38311	 19.97414	 -1.34193	 29.85114	711.46802	 17.70	
 15.293	-38.572	 26.23436	 23.45191	  1.51615	  3.24757	 21.33711	 -1.33922	 29.85426	711.50299	 17.70	
 15.299	-45.015	 26.22099	 22.30717	  2.38803	  2.26702	 22.58522	 -1.35126	 29.84745	711.46002	 17.70	
 15.305	-51.417	 26.20576	 21.05236	  3.38478	  1.38302	 23.71282	 -1.36391	 29.86020	711.44702	 17.70	
 15.309	-57.858	 26.18460	 19.66352	  4.53240	  0.65898	 24.68152	 -1.36701	 29.85601	711.45203	 17.70	
 15.304	-64.289	 26.17160	 18.19782	  5.77473	  0.09016	 25.48254	 -1.34488	 29.85549	711.42297	 17.70	
 15.297	-70.709	 26.20423	 16.74714	  7.15744	 -0.41610	 26.18187	 -1.31577	 29.91700	711.48199	 17.70	
 15.293	-77.103	 26.13618	 15.20303	  8.55022	 -0.74988	 26.57207	 -1.28065	 29.84989	711.45801	 17.70	
 15.293	-83.542	 26.16678	 13.65059	 10.08946	 -0.93974	 26.89084	 -1.29305	 29.89749	711.52301	 17.70	
 15.300	-90.000	 26.11300	 11.97475	 11.60265	 -0.94172	 26.94520	 -1.29985	 29.83410	711.50403	 17.70	
 15.293	-96.458	 26.11204	 10.48714	 13.19066	 -0.83516	 26.86104	 -1.32914	 29.83083	711.53900	 17.70	
 15.293	-102.897	 26.16094	  9.04245	 14.86450	 -0.62778	 26.63206	 -1.36556	 29.87648	711.43903	 17.70	
 15.297	-109.291	 26.18130	  7.70392	 16.42762	 -0.24224	 26.16723	 -1.36785	 29.85764	711.48199	 17.70	
 15.304	-115.711	 26.19898	  6.39780	 17.88952	  0.28785	 25.55972	 -1.36585	 29.85775	711.45203	 17.70	
 15.309	-122.142	 26.17599	  5.13522	 19.35423	  0.93183	 24.74755	 -1.32354	 29.82733	711.41400	 17.70	
 15.305	-128.583	 26.27581	  4.11699	 20.78977	  1.78583	 23.81848	 -1.31707	 29.88639	711.37500	 17.70	
 15.299	-134.985	 26.31501	  3.16125	 22.05498	  2.72640	 22.71654	 -1.32529	 29.88105	711.39600	 17.70	
 15.293	-141.428	 26.32549	  2.28471	 23.14942	  3.80728	 21.43490	 -1.35778	 29.83528	711.38202	 17.70	
 15.288	-147.854	 26.38847	  1.48627	 24.19794	  4.96552	 20.09770	 -1.39888	 29.87652	711.33698	 17.70	
 15.300	-154.261	 26.38421	  0.84861	 24.99405	  6.26432	 18.60613	 -1.40263	 29.82513	711.31299	 17.70	
 15.307	-160.676	 26.46588	  0.42988	 25.68072	  7.63813	 17.13602	 -1.39977	 29.87155	711.41803	 17.70	
 15.291	-167.167	 26.46156	  0.15946	 26.10814	  9.06654	 15.55162	 -1.38641	 29.82636	711.33698	 17.70	
 15.298	-173.587	 26.51050	  0.00739	 26.41057	 10.60876	 13.98314	 -1.36848	 29.85031	711.38202	 17.70	
 15.300	180.000	 26.54158	 -0.01676	 26.51369	 12.16560	 12.41703	 -1.38109	 29.85547	711.37402	 17.70	
 17.000	180.000	 25.65088	 -1.67016	 27.31663	 11.47197	 11.66385	 -1.37058	 29.84874	711.37097	 17.70	
 16.990	-174.179	 25.62091	 -1.60232	 27.21286	  9.94130	 13.24054	 -1.34438	 29.83870	711.43903	 17.70	
 17.009	-168.383	 25.57834	 -1.46740	 26.99613	  8.39916	 14.80425	 -1.32715	 29.85285	711.36401	 17.70	
 17.000	-162.596	 25.58307	 -1.16601	 26.55354	  6.99681	 16.37734	 -1.34373	 29.85504	711.40601	 17.70	
 16.990	-156.759	 25.51976	 -0.82509	 25.97516	  5.61769	 17.84879	 -1.36510	 29.84461	711.45203	 17.70	
 16.995	-150.919	 25.43163	 -0.42694	 25.21230	  4.30586	 19.29625	 -1.38114	 29.81289	711.44202	 17.70	
 16.988	-145.161	 25.42484	  0.17154	 24.32767	  3.13959	 20.71707	 -1.39028	 29.83499	711.40601	 17.70	
 17.014	-139.343	 25.36626	  0.87760	 23.24733	  2.02370	 22.03866	 -1.39297	 29.81015	711.44501	 17.70	
 17.007	-133.546	 25.32295	  1.73633	 22.08494	  1.01372	 23.24226	 -1.39324	 29.81062	711.39899	 17.70	
 17.001	-127.699	 25.30417	  2.71817	 20.79400	  0.12265	 24.35080	 -1.39271	 29.83383	711.39001	 17.80	
 17.006	-121.937	 25.27791	  3.79119	 19.43052	 -0.63983	 25.31283	 -1.40213	 29.83620	711.39099	 17.80	
 17.002	-116.134	 25.27422	  4.97850	 17.99426	 -1.25779	 26.14148	 -1.43568	 29.87456	711.41400	 17.80	
 17.001	-110.310	 25.22127	  6.27783	 16.44567	 -1.80523	 26.77014	 -1.41354	 29.84464	711.42297	 17.80	
 16.988	-104.517	 25.19839	  7.60673	 14.89639	 -2.25419	 27.23915	 -1.37875	 29.85023	711.39801	 17.80	
 17.008	-98.662	 25.15507	  8.97993	 13.25341	 -2.53754	 27.57298	 -1.33367	 29.83767	711.38202	 17.80	
 16.996	-92.909	 25.14507	 10.44705	 11.64476	 -2.70618	 27.71949	 -1.25557	 29.83805	711.32098	 17.80	
 16.996	-87.091	 25.20936	 11.97005	 10.13594	 -2.66161	 27.73361	 -1.20527	 29.88645	711.32397	 17.80	
 17.012	-81.253	 25.19485	 13.59335	  8.55061	 -2.63249	 27.57388	 -1.17001	 29.88093	711.35901	 17.80	
 16.988	-75.483	 25.20196	 15.14569	  7.14649	 -2.36392	 27.19681	 -1.18858	 29.83936	711.24701	 17.80	
 17.001	-69.690	 25.23810	 16.64947	  5.75111	 -2.04465	 26.74168	 -1.20832	 29.87008	711.31500	 17.80	
 17.002	-63.866	 25.26512	 18.15620	  4.44902	 -1.56080	 26.09290	 -1.25218	 29.88043	711.32599	 17.80	
 17.006	-58.063	 25.28369	 19.63144	  3.22480	 -0.97792	 25.26924	 -1.30782	 29.86085	711.33698	 17.80	
 17.001	-52.301	 25.29849	 20.98729	  2.09820	 -0.33033	 24.31483	 -1.34149	 29.85580	711.34497	 17.80	
 17.007	-46.454	 25.33203	 22.32082	  1.10290	  0.45601	 23.21586	 -1.38169	 29.88239	711.29901	 17.70	
 17.014	-40.657	 25.35463	 23.48915	  0.24623	  1.37540	 22.02710	 -1.41028	 29.88877	711.35498	 17.70	
 16.988	-34.839	 25.37241	 24.55275	 -0.51754	  2.44925	 20.69777	 -1.43454	 29.88659	711.30701	 17.70	
 16.995	-29.081	 25.38261	 25.44994	 -1.11836	  3.62889	 19.31098	 -1.45402	 29.87956	711.36603	 17.70	
 16.990	-23.241	 25.38288	 26.20313	 -1.64163	  4.86395	 17.83392	 -1.49412	 29.86076	711.30701	 17.70	
 17.000	-17.404	 25.39696	 26.83884	 -2.05751	  6.20489	 16.29775	 -1.52388	 29.87610	711.17999	 17.70	
 17.009	-11.617	 25.39451	 27.32444	 -2.40911	  7.60278	 14.74498	 -1.54363	 29.90010	711.21301	 17.70	
 16.990	 -5.821	 25.43179	 27.59126	 -2.56181	  9.13673	 13.14943	 -1.55906	 29.89184	711.21802	 17.70	
 17.000	  0.000	 25.42702	 27.68703	 -2.63084	 10.62230	 11.59906	 -1.57701	 29.86623	711.30200	 17.70	
 16.990	  5.821	 25.46564	 27.69220	 -2.59732	 12.21706	 10.07894	 -1.57415	 29.90057	711.31299	 17.60	
 17.009	 11.617	 25.41569	 27.47869	 -2.45527	 13.80888	  8.54909	 -1.60376	 29.86202	711.22900	 17.60	
 17.000	 17.404	 25.46895	 27.13041	 -2.14066	 15.40581	  7.19481	 -1.65676	 29.89259	711.27002	 17.60	
 16.990	 23.241	 25.49200	 26.61870	 -1.71049	 16.93156	  5.91635	 -1.71112	 29.87617	711.26898	 17.60	
 16.995	 29.081	 25.53902	 25.95107	 -1.18364	 18.44664	  4.67143	 -1.72532	 29.88064	711.24500	 17.60	
 16.988	 34.839	 25.55536	 25.16218	 -0.58979	 19.91110	  3.49003	 -1.69305	 29.89990	711.36700	 17.60	
 17.014	 40.657	 25.57892	 24.19722	  0.17106	 21.27144	  2.41447	 -1.64513	 29.89906	711.23401	 17.60	
 17.007	 46.454	 25.63650	 23.10520	  1.09509	 22.56590	  1.49164	 -1.59462	 29.92553	711.28998	 17.60	
 17.001	 52.301	 25.63564	 21.87860	  2.07315	 23.69436	  0.66569	 -1.56586	 29.90622	711.28601	 17.50	
 17.006	 58.063	 25.67605	 20.56835	  3.17194	 24.70993	 -0.02377	 -1.56245	 29.92008	711.30499	 17.50	
 17.002	 63.866	 25.65870	 19.12633	  4.37391	 25.56072	 -0.61469	 -1.58216	 29.88651	711.29401	 17.50	
 17.001	 69.690	 25.66802	 17.64001	  5.67777	 26.26143	 -1.10154	 -1.61067	 29.88276	711.21198	 17.50	
 16.988	 75.483	 25.66218	 16.14278	  7.06811	 26.77935	 -1.48244	 -1.60036	 29.85045	711.20502	 17.50	
 17.012	 81.253	 25.72689	 14.67681	  8.51546	 27.22909	 -1.75630	 -1.58304	 29.93014	711.18799	 17.50	
 16.996	 87.091	 25.71572	 13.00980	 10.02416	 27.43258	 -1.85527	 -1.54036	 29.90973	711.16199	 17.50	
 16.996	 92.909	 25.75506	 11.46005	 11.59431	 27.47637	 -1.79039	 -1.50406	 29.92532	711.10199	 17.50	
 17.008	 98.662	 25.76068	  9.97900	 13.19976	 27.41157	 -1.71809	 -1.47774	 29.96194	711.13397	 17.40	
 16.988	104.517	 25.76291	  8.55386	 14.76843	 27.08628	 -1.43094	 -1.49918	 29.92569	711.15002	 17.40	
 17.001	110.310	 25.75238	  7.14855	 16.34473	 26.61601	 -1.11145	 -1.51756	 29.89905	711.15002	 17.40	
 17.002	116.134	 25.79033	  5.82835	 17.90026	 26.02537	 -0.66439	 -1.55072	 29.93139	711.10999	 17.40	
 17.006	121.937	 25.76215	  4.56605	 19.37730	 25.20954	 -0.10900	 -1.54646	 29.89070	711.14801	 17.40	
 17.001	127.699	 25.76019	  3.42771	 20.74833	 24.27776	  0.58512	 -1.53196	 29.86975	711.08899	 17.40	
 17.007	133.546	 25.80083	  2.36247	 22.06308	 23.22262	  1.42758	 -1.49096	 29.88041	711.14502	 17.40	
 17.014	139.343	 25.81323	  1.35611	 23.28350	 22.03600	  2.39392	 -1.47767	 29.92019	711.15302	 17.40	
 16.988	145.161	 25.80613	  0.59970	 24.31383	 20.71176	  3.41927	 -1.46096	 29.90072	711.20398	 17.40	
 16.995	150.919	 25.77187	 -0.08684	 25.22241	 19.26674	  4.58847	 -1.45543	 29.87831	711.08600	 17.50	
 16.990	156.759	 25.78591	 -0.61981	 26.00728	 17.78603	  5.88245	 -1.46979	 29.90011	711.09198	 17.40	
 17.000	162.596	 25.73503	 -1.06556	 26.56810	 16.26719	  7.22576	 -1.46555	 29.85944	711.12903	 17.40	
 17.009	168.383	 25.72842	 -1.42378	 27.00779	 14.71719	  8.64724	 -1.45110	 29.87816	711.08600	 17.50	
 16.990	174.179	 25.69482	 -1.63177	 27.24466	 13.09749	 10.11916	 -1.43433	 29.86684	711.06097	 17.50	
 18.709	174.675	 24.69491	 -3.39752	 27.97483	 12.31887	  9.31108	 -1.33600	 29.87791	711.09900	 17.50	
 18.703	169.441	 24.70801	 -3.19272	 27.73037	 13.87604	  7.88801	 -1.38381	 29.84799	711.14001	 17.40	
 18.691	164.085	 24.78195	 -2.89467	 27.39725	 15.48981	  6.46430	 -1.42139	 29.90849	711.13202	 17.40	
 18.706	158.818	 24.77713	 -2.44062	 26.83303	 16.97977	  5.11657	 -1.43756	 29.87847	711.04797	 17.40	
 18.695	153.537	 24.77682	 -1.91402	 26.13262	 18.47071	  3.74476	 -1.24517	 29.78702	711.08899	 17.40	
 18.704	148.255	 24.78705	 -1.31296	 25.31490	 19.90497	  2.57019	 -1.25721	 29.79250	711.11499	 17.40	
 18.698	142.952	 24.79888	 -0.57774	 24.35953	 21.29326	  1.47267	 -1.27466	 29.80706	711.08002	 17.40	
 18.699	137.625	 24.82867	  0.20258	 23.27722	 22.60174	  0.49679	 -1.30257	 29.83634	711.07202	 17.40	
 18.705	132.343	 24.83780	  1.09540	 22.05283	 23.79594	 -0.35867	 -1.32680	 29.84079	711.07202	 17.40	
 18.713	127.067	 24.81335	  2.12355	 20.71080	 24.85267	 -1.13220	 -1.30654	 29.83682	711.10199	 17.50	
 18.700	121.794	 24.79145	  3.28415	 19.30400	 25.75223	 -1.78555	 -1.29398	 29.81969	711.08301	 17.50	
 18.698	116.504	 24.72093	  4.46984	 17.79721	 26.46615	 -2.30203	 -1.27048	 29.75881	711.01599	 17.50	
 18.707	111.165	 24.73739	  5.76459	 16.28887	 27.13158	 -2.75851	 -1.22667	 29.79940	711.08002	 17.50	
 18.690	105.863	 24.73741	  7.12636	 14.74361	 27.60931	 -3.10029	 -1.16221	 29.80278	711.08899	 17.50	
 18.696	100.583	 24.75604	  8.56014	 13.16847	 27.96184	 -3.36462	 -1.13999	 29.83515	711.03400	 17.40	
 18.700	 95.309	 24.71122	  9.95999	 11.55954	 28.10717	 -3.55937	 -1.17898	 29.79789	711.04901	 17.40	
 18.700	 90.000	 24.68555	 11.42133	  9.97348	 28.12234	 -3.67023	 -1.21105	 29.78212	711.03699	 17.40	
 18.700	 84.691	 24.74071	 13.01162	  8.49512	 28.04778	 -3.57681	 -1.28044	 29.83898	711.12598	 17.50	
 18.696	 79.417	 24.72548	 14.61849	  7.06918	 27.80103	 -3.43553	 -1.36356	 29.84524	711.05603	 17.50	
 18.690	 74.137	 24.73631	 16.08548	  5.70737	 27.35932	 -3.06382	 -1.45283	 29.83071	711.02698	 17.40	
 18.707	 68.835	 24.74630	 17.62970	  4.35405	 26.80722	 -2.71726	 -1.48103	 29.85554	710.99402	 17.40	
 18.698	 63.496	 24.70393	 19.09734	  3.08299	 26.01777	 -2.17389	 -1.48487	 29.80202	711.06403	 17.40	
 18.700	 58.206	 24.69565	 20.49544	  1.92896	 25.17332	 -1.65104	 -1.50212	 29.80551	711.02698	 17.50	
 18.713	 52.933	 24.68698	 21.83321	  0.82923	 24.21622	 -1.01876	 -1.53404	 29.84392	710.97803	 17.40	
 18.705	 47.657	 24.64740	 23.05154	 -0.12168	 23.06418	 -0.24148	 -1.53569	 29.80703	710.98602	 17.40	
 18.699	 42.375	 24.62206	 24.19735	 -0.98177	 21.83663	  0.58680	 -1.55919	 29.81629	710.99500	 17.40	
 18.698	 37.048	 24.64213	 25.22816	 -1.67629	 20.51350	  1.56833	 -1.58501	 29.83805	710.97198	 17.40	
 18.704	 31.745	 24.60680	 26.10435	 -2.32847	 19.10354	  2.65095	 -1.59123	 29.83919	711.05902	 17.40	
 18.695	 26.463	 24.56369	 26.84857	 -2.89128	 17.61908	  3.85041	 -1.56468	 29.82994	710.97803	 17.40	
 18.706	 21.182	 24.54224	 27.46055	 -3.39233	 16.10900	  5.06820	 -1.51918	 29.85745	711.02100	 17.40	
 18.691	 15.915	 24.47528	 27.90168	 -3.80020	 14.51991	  6.32943	 -1.45328	 29.83553	711.01300	 17.40	
 18.703	 10.559	 24.44362	 28.19446	 -4.05870	 12.92734	  7.71968	 -1.42934	 29.81708	710.98102	 17.40	
 18.709	  5.325	 24.45240	 28.38186	 -4.21011	 11.40767	  9.15530	 -1.40792	 29.83605	710.94598	 17.40	
 18.700	  0.000	 24.44028	 28.39984	 -4.27539	  9.84448	 10.67406	 -1.39313	 29.82536	710.96503	 17.40	
 18.709	 -5.325	 24.40211	 28.27551	 -4.20845	  8.32365	 12.24991	 -1.38009	 29.81473	710.94897	 17.40	
 18.703	-10.559	 24.40570	 28.02782	 -4.02827	  6.84550	 13.78539	 -1.37040	 29.82489	710.91602	 17.40	
 18.691	-15.915	 24.40192	 27.59454	 -3.72401	  5.45497	 15.32711	 -1.35544	 29.81263	711.00500	 17.40	
 18.706	-21.182	 24.36733	 27.03799	 -3.37052	  4.12539	 16.82086	 -1.34098	 29.79154	710.97803	 17.40	
 18.695	-26.463	 24.39293	 26.34895	 -2.88881	  2.89619	 18.31398	 -1.30158	 29.80686	710.98102	 17.40	
 18.704	-31.745	 24.39780	 25.53740	 -2.34755	  1.69667	 19.77603	 -1.27122	 29.84236	710.93701	 17.40	
 18.698	-37.048	 24.39209	 24.52526	 -1.66316	  0.65095	 21.13052	 -1.23814	 29.81572	711.02399	 17.40	
 18.699	-42.375	 24.37354	 23.41346	 -0.90265	 -0.33610	 22.45673	 -1.18372	 29.82786	710.93500	 17.40	
 18.705	-47.657	 24.36387	 22.22164	 -0.05477	 -1.17626	 23.61429	 -1.13457	 29.82930	710.95697	 17.40	
 18.713	-52.933	 24.35423	 20.93414	  0.85216	 -1.90146	 24.72353	 -1.07287	 29.87487	711.00073	 -0.00	
 18.700	-58.206	 24.34406	 19.54045	  1.95891	 -2.54298	 25.68036	 -0.99009	 29.87476	711.00201	 17.40	
 18.698	-63.496	 24.26062	 18.07387	  3.10525	 -3.07487	 26.45495	 -0.94031	 29.81527	710.94800	 17.40	
 18.707	-68.835	 24.24027	 16.58863	  4.32486	 -3.54752	 27.15641	 -0.88550	 29.84116	710.99200	 17.40	
 18.690	-74.137	 24.23644	 15.05496	  5.69674	 -3.92278	 27.68073	 -0.87667	 29.85852	711.09100	 17.40	
 18.696	-79.417	 24.17467	 13.49924	  7.08268	 -4.18860	 28.02103	 -0.86969	 29.82124	711.05902	 17.40	
 18.700	-84.691	 24.19051	 11.95353	  8.56182	 -4.27609	 28.25841	 -0.89734	 29.83869	711.00201	 17.40	
 18.700	-90.000	 24.17493	 10.47459	 10.09839	 -4.36529	 28.33459	 -0.91122	 29.83254	710.96198	 17.40	
 18.700	-95.309	 24.17574	  8.97275	 11.61896	 -4.28225	 28.29558	 -1.00048	 29.84741	711.01300	 17.40	
 18.696	-100.583	 24.19581	  7.52827	 13.25727	 -4.02425	 28.07051	 -1.09703	 29.84320	710.99402	 17.40	
 18.690	-105.863	 24.20837	  6.21056	 14.77791	 -3.74182	 27.70275	 -1.17899	 29.82287	711.00800	 17.40	
 18.707	-111.165	 24.24424	  4.90715	 16.32044	 -3.32824	 27.22092	 -1.23485	 29.84127	710.94299	 17.40	
 18.698	-116.504	 24.27779	  3.68682	 17.86915	 -2.70318	 26.54439	 -1.25944	 29.81671	710.92999	 17.30	
 18.700	-121.794	 24.32937	  2.54719	 19.34769	 -2.14836	 25.75183	 -1.26173	 29.83752	710.94897	 17.40	
 18.713	-127.067	 24.34083	  1.49826	 20.74108	 -1.48410	 24.82375	 -1.25306	 29.83077	710.94800	 17.40	
 18.705	-132.343	 24.36753	  0.57092	 22.04219	 -0.61841	 23.73847	 -1.24987	 29.80593	710.95203	 17.40	
 18.699	-137.625	 24.39783	 -0.31544	 23.27765	  0.30273	 22.51309	 -1.20741	 29.79987	710.92102	 17.30	
 18.698	-142.952	 24.42496	 -1.06920	 24.39218	  1.30835	 21.20567	 -1.18453	 29.80721	710.90002	 17.40	
 18.704	-148.255	 24.50745	 -1.66113	 25.37398	  2.48646	 19.86963	 -1.15450	 29.84496	710.90601	 17.30	
 18.695	-153.537	 24.55671	 -2.14294	 26.18809	  3.69040	 18.43385	 -1.10202	 29.84679	710.94397	 17.40	
 18.706	-158.818	 24.57303	 -2.58030	 26.86338	  4.92917	 16.94642	 -1.08439	 29.83066	710.92902	 17.40	
 18.691	-164.085	 24.57372	 -2.91728	 27.36331	  6.28074	 15.39748	 -1.06057	 29.80382	710.89697	 17.40	
 18.703	-169.441	 24.66508	 -3.16648	 27.81911	  7.72312	 13.87724	 -1.05859	 29.88393	710.85901	 17.40	
 18.709	-174.675	 24.66679	 -3.33829	 28.01260	  9.19559	 12.31762	 -1.08615	 29.84797	710.87903	 17.40	
 18.700	180.000	 24.71026	 -3.34443	 28.06263	 10.75817	 10.76992	 -1.12037	 29.83544	710.89001	 17.40	
 20.400	180.000	 23.63083	 -4.98083	 28.65072	 10.00546	  9.88965	 -0.99627	 29.83062	710.89697	 17.40	
 20.401	-175.153	 23.63665	 -4.89098	 28.60508	  8.49316	 11.44457	 -0.96946	 29.86032	710.85699	 17.40	
 20.407	-170.264	 23.56910	 -4.74060	 28.38114	  7.00935	 12.96966	 -0.95972	 29.83285	710.86499	 17.40	
 20.410	-165.423	 23.55497	 -4.53745	 28.05176	  5.61455	 14.49507	 -0.94921	 29.83276	710.84900	 17.40	
 20.392	-160.496	 23.47565	 -4.31102	 27.55172	  4.25057	 16.01645	 -0.93787	 29.81382	710.88202	 17.40	
 20.401	-155.705	 23.46953	 -3.90679	 26.94380	  3.01582	 17.53825	 -0.96916	 29.83066	710.79199	 17.30	
 20.405	-150.835	 23.39964	 -3.55352	 26.22890	  1.79079	 18.91112	 -0.99513	 29.84016	710.84698	 17.40	
 20.397	-145.903	 23.41178	 -2.95291	 25.37147	  0.67117	 20.36483	 -1.09001	 29.85023	710.77899	 17.40	
 20.392	-141.062	 23.35407	 -2.32659	 24.31836	 -0.33318	 21.70082	 -1.14590	 29.83377	710.85901	 17.30	
 20.396	-136.227	 23.29034	 -1.52859	 23.16023	 -1.29444	 22.98777	 -1.19036	 29.81455	710.91602	 17.30	
 20.408	-131.372	 23.28216	 -0.61177	 21.93811	 -2.21352	 24.17754	 -1.17569	 29.82310	710.81598	 17.30	
 20.410	-126.511	 23.24359	  0.26631	 20.59672	 -2.98179	 25.23822	 -1.22901	 29.84462	710.87598	 17.40	
 20.400	-121.604	 23.19914	  1.30963	 19.14167	 -3.64835	 26.11178	 -1.22772	 29.80038	710.82001	 17.40	
 20.403	-116.741	 23.18166	  2.32418	 17.70313	 -4.30268	 26.96433	 -1.23713	 29.84355	710.87097	 17.40	
 20.413	-111.900	 23.11830	  3.48585	 16.19954	 -4.85248	 27.58492	 -1.17022	 29.82495	710.93201	 17.40	
 20.398	-107.004	 23.08333	  4.73697	 14.66166	 -5.23866	 28.07431	 -1.10902	 29.80127	710.86499	 17.40	
 20.394	-102.132	 23.07970	  6.01979	 13.13102	 -5.60247	 28.50764	 -1.02076	 29.84409	710.82001	 17.40	
 20.403	-97.332	 23.07716	  7.38614	 11.61246	 -5.76673	 28.75253	 -0.92427	 29.84328	710.81299	 17.40	
 20.392	-92.440	 23.04073	  8.85572	 10.09230	 -5.90645	 28.83310	 -0.84362	 29.80701	710.83502	 17.40	
 20.392	-87.560	 23.07967	 10.34147	  8.59886	 -5.86570	 28.83695	 -0.80954	 29.82302	710.91302	 17.40	
 20.403	-82.668	 23.06034	 11.80908	  7.06744	 -5.76537	 28.68034	 -0.81865	 29.79965	710.82397	 17.40	
 20.394	-77.868	 23.10195	 13.33257	  5.63251	 -5.60962	 28.45023	 -0.81770	 29.83194	710.96802	 17.40	
 20.398	-72.996	 23.14198	 14.82418	  4.31191	 -5.41450	 28.08825	 -0.81888	 29.85259	710.77899	 17.40	
 20.413	-68.100	 23.13778	 16.36000	  2.98118	 -5.07018	 27.51443	 -0.84846	 29.83235	710.85498	 17.40	
 20.403	-63.259	 23.18067	 17.79356	  1.82425	 -4.63243	 26.85384	 -0.86900	 29.83282	710.81598	 17.40	
 20.400	-58.396	 23.22680	 19.24181	  0.75038	 -4.08917	 26.02893	 -0.92281	 29.83247	710.82501	 17.40	
 20.410	-53.489	 23.23003	 20.62322	 -0.25534	 -3.51567	 25.09507	 -0.97314	 29.81752	710.82397	 17.40	
 20.408	-48.628	 23.29116	 22.01084	 -1.25184	 -2.80926	 24.06694	 -1.02082	 29.87609	710.75800	 17.40	
 20.396	-43.773	 23.29368	 23.24786	 -2.16948	 -1.93079	 22.86036	 -1.08641	 29.84714	710.82800	 17.40	
 20.392	-38.938	 23.30175	 24.34776	 -2.84861	 -1.06547	 21.63080	 -1.18569	 29.82581	710.73901	 17.40	
 20.397	-34.097	 23.29965	 25.36821	 -3.54032	 -0.12388	 20.29419	 -1.22700	 29.81992	710.77399	 17.40	
 20.405	-29.165	 23.31542	 26.28870	 -4.24513	  0.97116	 18.84658	 -1.26209	 29.81725	710.81097	 17.40	
 20.401	-24.295	 23.31422	 27.07186	 -4.77059	  2.12306	 17.39167	 -1.28951	 29.82879	711.03699	 17.40	
 20.392	-19.504	 23.32764	 27.68698	 -5.12561	  3.34767	 15.94504	 -1.29233	 29.82352	711.31000	 17.40	
 20.410	-14.577	 23.31977	 28.22782	 -5.46313	  4.68175	 14.39079	 -1.32277	 29.83000	710.76801	 17.40	
 20.407	 -9.736	 23.31506	 28.58013	 -5.72619	  6.02152	 12.90479	 -1.33770	 29.82395	710.72699	 17.40	
 20.401	 -4.847	 23.37528	 28.84510	 -5.83438	  7.51110	 11.38595	 -1.35234	 29.85936	711.15302	 17.40	
 20.400	  0.000	 23.36434	 28.91564	 -5.87216	  8.98989	  9.93319	 -1.34757	 29.82779	710.73798	 17.40	
 20.401	  4.847	 23.39773	 28.90482	 -5.74215	 10.48841	  8.42384	 -1.35944	 29.83471	710.86499	 17.40	
 20.407	  9.736	 23.37133	 28.73064	 -5.59218	 12.03253	  6.96462	 -1.38824	 29.80298	711.49500	 17.40	
 20.410	 14.577	 23.41464	 28.51292	 -5.41557	 13.56862	  5.60165	 -1.40972	 29.85439	711.41400	 17.40	
 20.392	 19.504	 23.41001	 28.08880	 -5.10962	 15.08039	  4.30599	 -1.43644	 29.81178	711.32898	 17.40	
 20.401	 24.295	 23.45112	 27.58127	 -4.72719	 16.59008	  3.07237	 -1.51020	 29.82299	711.40198	 17.40	
 20.405	 29.165	 23.47558	 26.87339	 -4.19767	 18.10772	  1.87858	 -1.56436	 29.80603	711.33899	 17.40	
 20.397	 34.097	 23.54182	 26.09703	 -3.58266	 19.58517	  0.87938	 -1.59320	 29.83634	710.82397	 17.40	
 20.392	 38.938	 23.55090	 25.13258	 -2.86672	 20.95082	 -0.06316	 -1.62464	 29.80248	711.44501	 17.40	
 20.396	 43.773	 23.61908	 24.15004	 -2.12840	 22.28135	 -0.92887	 -1.66172	 29.85870	711.35303	 17.40	
 20.408	 48.628	 23.59563	 22.95513	 -1.33151	 23.44569	 -1.74515	 -1.66714	 29.80559	711.40198	 17.40	
 20.410	 53.489	 23.63451	 21.73031	 -0.42846	 24.56674	 -2.49467	 -1.66568	 29.83115	711.40399	 17.40	
 20.400	 58.396	 23.65882	 20.38644	  0.58752	 25.53178	 -3.06886	 -1.63216	 29.81662	711.12402	 17.40	
 20.403	 63.259	 23.66016	 18.99413	  1.69103	 26.39828	 -3.63051	 -1.58005	 29.81911	711.40601	 17.40	
 20.413	 68.100	 23.65281	 17.55319	  2.87799	 27.11489	 -4.15520	 -1.52591	 29.81331	710.84100	 17.40	
 20.398	 72.996	 23.67891	 16.04432	  4.20298	 27.71801	 -4.57309	 -1.43400	 29.81366	711.42603	 17.40	
 20.394	 77.868	 23.66074	 14.49581	  5.55238	 28.17137	 -4.84643	 -1.33405	 29.80715	711.08099	 17.50	
 20.403	 82.668	 23.67286	 12.98136	  6.95976	 28.48055	 -5.05847	 -1.22699	 29.81098	711.36298	 17.50	
 20.392	 87.560	 23.69095	 11.46054	  8.41972	 28.67218	 -5.15995	 -1.12316	 29.82793	711.34998	 17.50	
 20.392	 92.440	 23.69223	  9.99991	  9.90467	 28.71990	 -5.19585	 -1.08242	 29.82583	711.34198	 17.50	
 20.403	 97.332	 23.65728	  8.51912	 11.45737	 28.60529	 -5.03932	 -1.07241	 29.78520	711.29901	 17.50	
 20.394	102.132	 23.67699	  7.13717	 13.01493	 28.40044	 -4.81956	 -1.05424	 29.79845	711.34998	 17.40	
 20.398	107.004	 23.68128	  5.77579	 14.56691	 28.03223	 -4.53132	 -1.08034	 29.78543	711.30499	 17.50	
 20.413	111.900	 23.69369	  4.42863	 16.12439	 27.55908	 -4.18160	 -1.09727	 29.80553	711.22900	 17.50	
 20.403	116.741	 23.68004	  3.17208	 17.61313	 26.89516	 -3.75134	 -1.15411	 29.77017	710.68799	 17.50	
 20.400	121.604	 23.77317	  2.00695	 19.10814	 26.20844	 -3.23373	 -1.21196	 29.85391	711.34198	 17.50	
 20.410	126.511	 23.72298	  0.93400	 20.48381	 25.26966	 -2.66426	 -1.27421	 29.79965	711.08301	 17.50	
 20.408	131.372	 23.71117	 -0.09326	 21.84006	 24.19181	 -1.96518	 -1.28163	 29.78101	711.31702	 17.50	
 20.396	136.227	 23.72364	 -0.97629	 23.08088	 23.05374	 -1.12846	 -1.26825	 29.78696	711.33698	 17.50	
 20.392	141.062	 23.74171	 -1.72377	 24.19864	 21.80084	 -0.21319	 -1.27369	 29.76946	711.03998	 17.50	
 20.397	145.903	 23.75309	 -2.50223	 25.22051	 20.48804	  0.73289	 -1.26529	 29.78235	711.32098	 17.60	
 20.405	150.835	 23.69451	 -3.23534	 26.13070	 19.00937	  1.79012	 -1.24513	 29.76185	711.34497	 17.60	
 20.401	155.705	 23.66567	 -3.79766	 26.87354	 17.51373	  2.98339	 -1.20831	 29.74477	711.40601	 17.60	
 20.392	160.496	 23.69722	 -4.17006	 27.52219	 16.09943	  4.27000	 -1.17881	 29.79737	711.39398	 17.60	
 20.410	165.423	 23.65895	 -4.47893	 27.99597	 14.55417	  5.60916	 -1.14451	 29.77162	711.32098	 17.70	
 20.407	170.264	 23.65517	 -4.66450	 28.32453	 13.04558	  6.95873	 -1.11086	 29.77424	711.33899	 17.70	
 20.401	175.153	 23.65104	 -4.86543	 28.53180	 11.51307	  8.39793	 -1.06450	 29.79166	711.38202	 17.70	
  0.141	 45.000	 29.78942	 15.89351	 14.87947	 15.14588	 15.56732	  0.18394	 29.78320	711.35797	 17.70	
  4.001	128.691	 29.71834	 13.42633	 17.07260	 17.82436	 12.59859	  0.09419	 29.77003	711.31500	 17.70	
  4.002	 76.995	 29.70177	 16.49454	 13.92231	 18.50627	 11.85237	  0.08417	 29.77582	711.44702	 17.70	
  4.002	 25.892	 29.63360	 18.97187	 11.43559	 16.36144	 13.74935	  0.07332	 29.74385	711.36700	 17.70	
  4.002	-25.892	 29.66574	 18.82446	 11.40473	 13.17600	 16.96156	  0.05996	 29.79559	711.34698	 17.70	
  4.002	-76.995	 29.64081	 16.26266	 13.89297	 11.21433	 19.03494	  0.05544	 29.76555	711.28198	 17.80	
  4.001	-128.691	 29.71840	 13.29366	 17.07086	 12.04574	 18.32197	  0.07304	 29.80667	711.30902	 17.80	
  4.000	180.000	 29.70672	 11.93842	 18.50130	 14.92495	 15.45685	  0.09635	 29.76007	711.33197	 17.80	
  8.000	180.000	 29.13277	  7.93828	 21.76504	 14.34854	 14.71784	 -0.33587	 29.75568	711.35498	 17.80	
  7.991	-152.370	 29.11117	  8.60784	 20.85202	 10.91965	 18.16892	 -0.36741	 29.78484	711.39801	 17.80	
  7.997	-124.550	 29.01687	 10.53975	 18.33956	  8.33848	 20.95568	 -0.38934	 29.76899	711.39099	 17.80	
  8.006	-96.837	 28.93834	 13.77855	 14.89989	  7.08844	 22.25868	 -0.44887	 29.75205	711.31702	 17.80	
  7.988	-69.228	 28.94377	 17.21943	 11.34950	  7.42170	 21.78820	 -0.50579	 29.75764	711.31299	 17.80	
  7.997	-41.563	 28.95262	 20.29728	  8.63807	  9.15733	 19.62328	 -0.43878	 29.75121	711.36700	 17.80	
  8.008	-13.821	 28.94962	 22.09533	  7.15493	 12.19694	 16.36501	 -0.40522	 29.73897	711.34698	 17.80	
  8.008	 13.821	 28.98771	 22.22048	  7.20004	 15.78614	 12.84286	 -0.37753	 29.76040	711.36603	 17.80	
  7.997	 41.563	 29.04801	 20.62819	  8.66351	 19.06019	  9.83881	 -0.37074	 29.75986	711.30103	 17.80	
  7.988	 69.228	 29.10339	 17.66643	 11.35708	 21.28856	  8.08972	 -0.25266	 29.76841	711.34198	 17.80	
  8.006	 96.837	 29.13896	 14.34155	 14.87675	 21.86603	  7.74090	 -0.39853	 29.77093	711.25897	 17.90	
  7.997	124.550	 29.10339	 10.87142	 18.25716	 20.58167	  8.87596	 -0.38257	 29.70911	711.34003	 17.90	
  7.991	152.370	 29.16612	  8.80324	 20.80583	 17.82779	 11.31943	 -0.34453	 29.75379	711.38000	 17.90	
 12.009	161.059	 27.99656	  4.23969	 23.93688	 17.02805	  9.99128	 -0.90364	 29.77656	711.35498	 17.90	
 12.013	142.081	 27.97090	  5.75922	 22.01438	 20.35267	  7.03554	 -0.86182	 29.75180	711.30499	 17.90	
 12.006	123.113	 27.91624	  8.23787	 19.10721	 22.91473	  4.88552	 -0.97501	 29.72368	711.38202	 17.90	
 12.007	104.200	 27.93552	 11.31003	 15.59142	 24.40355	  3.70920	 -1.04343	 29.75075	711.25500	 17.90	
 11.989	 85.301	 27.93074	 15.00053	 11.89511	 24.60806	  3.43247	 -1.00812	 29.75879	711.33899	 18.00	
 12.013	 66.294	 27.86932	 18.46903	  8.46689	 23.55746	  4.08474	 -0.94625	 29.74737	711.32898	 18.00	
 12.012	 47.388	 27.81748	 21.62548	  5.69289	 21.32242	  5.80796	 -0.88032	 29.75444	711.37500	 18.00	
 11.990	 28.440	 27.73698	 23.85764	  3.75095	 18.15820	  8.42919	 -0.98859	 29.73266	711.40399	 18.00	
 11.991	  9.464	 27.73835	 24.98799	  2.83442	 14.60779	 11.65908	 -0.93942	 29.75279	711.37097	 18.00	
 11.991	 -9.464	 27.69868	 24.85235	  2.82750	 10.88717	 15.28633	 -0.94433	 29.73848	711.39099	 18.00	
 11.990	-28.440	 27.66169	 23.51702	  3.69424	  7.59862	 18.85900	 -0.94690	 29.74465	711.26703	 18.10	
 12.012	-47.388	 27.60346	 21.06734	  5.59597	  4.95426	 21.91352	 -1.01311	 29.72362	711.30103	 18.10	
 12.013	-66.294	 27.56935	 17.80533	  8.44164	  3.31993	 23.98634	 -1.10351	 29.69965	711.29303	 18.10	
 11.989	-85.301	 27.56588	 14.27448	 11.87936	  2.64311	 24.97674	 -1.07481	 29.72559	711.31299	 18.10	
 12.007	-104.200	 27.59132	 10.65445	 15.62511	  3.01271	 24.67417	 -1.01567	 29.72165	711.31500	 18.10	
 12.006	-123.113	 27.68124	  7.68070	 19.10892	  4.30988	 23.15692	 -0.92913	 29.74788	711.22601	 18.10	
 12.013	-142.081	 27.74854	  5.32082	 22.03529	  6.58389	 20.55966	 -0.94590	 29.74790	711.26099	 18.20	
 12.009	-161.059	 27.81340	  3.95907	 23.90413	  9.67869	 17.17687	 -0.98672	 29.71355	711.28198	 18.20	
 16.000	180.000	 26.11965	 -0.65003	 26.78877	 11.85416	 12.02027	 -1.27165	 29.72534	711.28601	 18.20	
 15.990	-165.604	 26.06311	 -0.38355	 26.31341	  8.29799	 15.70578	 -1.27911	 29.76079	711.24500	 18.20	
 16.002	-151.165	 25.95223	  0.44730	 24.84730	  5.09143	 19.21370	 -1.29989	 29.72825	711.34802	 18.20	
 16.002	-136.836	 25.87414	  2.20067	 22.51851	  2.41739	 22.35790	 -1.26528	 29.73849	711.16498	 18.20	
 15.995	-122.439	 25.74832	  4.54222	 19.41534	  0.35492	 24.77189	 -1.24198	 29.68813	711.30701	 18.20	
 15.993	-107.966	 25.66338	  7.44472	 15.95868	 -1.04109	 26.39416	 -1.26965	 29.68617	711.21002	 18.20	
 16.005	-93.629	 25.65350	 10.74773	 12.22678	 -1.64224	 27.11395	 -1.19673	 29.71627	711.18903	 18.20	
 15.992	-79.234	 25.65714	 14.41593	  8.61944	 -1.55421	 26.83813	 -1.12864	 29.69807	711.22601	 18.20	
 16.009	-64.774	 25.73401	 18.00880	  5.32753	 -0.66333	 25.69684	 -1.21599	 29.75095	711.20001	 18.20	
 15.997	-50.364	 25.78624	 21.27760	  2.61240	  0.85663	 23.61717	 -1.26867	 29.74502	711.20398	 18.20	
 15.997	-36.045	 25.77792	 23.98925	  0.51402	  3.06884	 20.77923	 -1.28455	 29.70280	711.16101	 18.20	
 16.000	-21.597	 25.81332	 25.93562	 -0.85533	  5.94392	 17.37564	 -1.34414	 29.69101	711.22803	 18.20	
 16.003	 -7.169	 25.79963	 26.94936	 -1.57319	  9.24433	 13.71828	 -1.37007	 29.65251	711.18799	 18.20	
 16.003	  7.169	 25.85250	 27.07251	 -1.57654	 12.89182	 10.13485	 -1.41573	 29.67227	711.23499	 18.30	
 16.000	 21.597	 25.89297	 26.30022	 -0.89320	 16.59308	  6.82368	 -1.50066	 29.71195	711.17297	 18.30	
 15.997	 36.045	 25.97703	 24.58915	  0.53627	 20.06295	  3.99938	 -1.47015	 29.71993	711.10699	 18.30	
 15.997	 50.364	 26.03386	 22.09383	  2.60485	 22.97003	  1.77887	 -1.33238	 29.72293	711.19702	 18.30	
 16.009	 64.774	 26.08286	 18.87453	  5.31216	 25.20872	  0.14190	 -1.37899	 29.71817	711.24298	 18.30	
 15.992	 79.234	 26.09099	 15.39320	  8.52617	 26.49655	 -0.77911	 -1.41641	 29.69261	711.21600	 18.40	
 16.005	 93.629	 26.12996	 11.69090	 12.12137	 26.86264	 -0.92871	 -1.37687	 29.71013	711.22601	 18.40	
 15.993	107.966	 26.12433	  8.27053	 15.83852	 26.23775	 -0.37168	 -1.38792	 29.68766	711.23401	 18.40	
 15.995	122.439	 26.16267	  5.25752	 19.38000	 24.68000	  0.83621	 -1.39335	 29.70715	711.21997	 18.40	
 16.002	136.836	 26.16709	  2.69453	 22.43621	 22.25693	  2.77236	 -1.29158	 29.69952	711.24298	 18.40	
 16.002	151.165	 26.17537	  0.77442	 24.78530	 19.15708	  5.30654	 -1.26930	 29.69870	711.25800	 18.40	
 15.990	165.604	 26.14652	 -0.23977	 26.23650	 15.62393	  8.47762	 -1.31932	 29.68035	711.11499	 18.40	
 20.003	168.362	 23.82983	 -4.18909	 27.95024	 13.72561	  6.71053	 -1.17736	 29.65350	711.15002	 18.40	
 20.008	156.764	 23.89534	 -3.48278	 26.87907	 17.27147	  3.59986	 -1.25009	 29.72556	711.16998	 18.40	
 20.000	145.147	 23.91047	 -2.01288	 24.91380	 20.61393	  0.89393	 -1.30975	 29.67677	711.19702	 18.40	
 19.995	133.545	 23.89520	 -0.17456	 22.28755	 23.54947	 -1.21064	 -1.34570	 29.66399	711.16901	 18.40	
 20.009	121.926	 23.90236	  2.23006	 19.15060	 25.92841	 -2.84586	 -1.28414	 29.71598	711.13397	 18.50	
 20.005	110.327	 23.89077	  5.11771	 15.68465	 27.53306	 -3.90283	 -1.17447	 29.72495	711.11499	 18.50	
 19.989	 98.733	 23.81549	  8.27391	 12.05217	 28.32035	 -4.59440	 -1.11985	 29.68836	711.13702	 18.50	
 19.999	 87.075	 23.80863	 11.66867	  8.46263	 28.40138	 -4.77451	 -1.20869	 29.68758	711.07599	 18.50	
 19.992	 75.457	 23.82298	 15.27927	  5.16218	 27.73009	 -4.25903	 -1.45378	 29.68289	711.15399	 18.50	
 20.009	 63.844	 23.80371	 18.75898	  2.14742	 26.29007	 -3.31101	 -1.61008	 29.68057	711.11603	 18.50	
 19.989	 52.269	 23.75150	 21.88428	 -0.33800	 24.12227	 -1.93604	 -1.67473	 29.65865	711.15302	 18.40	
 19.999	 40.602	 23.75270	 24.62296	 -2.23822	 21.35165	 -0.05730	 -1.67134	 29.70586	711.07501	 18.40	
 20.004	 29.051	 23.64251	 26.68219	 -3.81095	 18.07374	  2.23073	 -1.60546	 29.69421	711.14001	 18.40	
 20.005	 17.433	 23.54011	 27.99083	 -4.82963	 14.50224	  5.09175	 -1.49288	 29.66318	711.18903	 18.40	
 20.006	  5.780	 23.53285	 28.62377	 -5.31600	 10.95624	  8.29479	 -1.43192	 29.69819	711.13800	 18.40	
 20.006	 -5.780	 23.49399	 28.49683	 -5.36044	  7.40910	 11.83057	 -1.40824	 29.68093	711.08899	 18.50	
 20.005	-17.433	 23.47198	 27.70469	 -4.85794	  4.20247	 15.34705	 -1.36618	 29.69803	711.16400	 18.50	
 20.004	-29.051	 23.43009	 26.08916	 -3.87880	  1.28216	 18.79201	 -1.31479	 29.67354	711.10999	 18.50	
 19.999	-40.602	 23.47862	 23.81766	 -2.22909	 -1.05568	 22.00413	 -1.23104	 29.71046	711.15802	 18.50	
 19.989	-52.269	 23.39450	 20.89354	 -0.22702	 -2.90953	 24.68382	 -1.06975	 29.68113	711.21002	 18.50	
 20.009	-63.844	 23.32954	 17.62607	  2.23502	 -4.24322	 26.73535	 -0.93161	 29.69555	711.13702	 18.50	
 19.992	-75.457	 23.26845	 14.14326	  5.19143	 -5.15757	 28.07137	 -0.86599	 29.71178	711.15002	 18.50	
 19.999	-87.075	 23.21655	 10.66265	  8.51978	 -5.46956	 28.60500	 -0.88503	 29.69740	711.09198	 18.40	
 19.989	-98.733	 23.24369	  7.22045	 12.13583	 -5.26852	 28.47210	 -1.02984	 29.72221	711.15399	 18.40	
 20.005	-110.327	 23.29995	  4.17257	 15.72906	 -4.54857	 27.58699	 -1.23842	 29.71894	711.17200	 18.40	
 20.009	-121.926	 23.35601	  1.49881	 19.18593	 -3.26718	 25.90655	 -1.30649	 29.69408	711.14502	 18.40	
 19.995	-133.545	 23.43010	 -0.71389	 22.34625	 -1.45597	 23.49331	 -1.25846	 29.67793	711.16998	 18.40	
 20.000	-145.147	 23.51331	 -2.39536	 24.90050	  0.79528	 20.53500	 -1.17912	 29.64466	711.02600	 18.50	
 20.008	-156.764	 23.61209	 -3.62549	 26.84670	  3.54996	 17.22497	 -1.05163	 29.69467	711.08301	 18.50	
 20.003	-168.362	 23.66171	 -4.30681	 27.95514	  6.65153	 13.66670	 -1.03696	 29.65785	711.06097	 18.50	
 20.000	180.000	 23.80506	 -4.59472	 28.40543	 10.16117	 10.08015	 -1.07114	 29.73093	710.98602	 18.50	
