FileType=PCF
NHL=14
Date=08/29/17	13:37:02
Facility=APL
Serial=16328-15
Customer=NASA
NP=6
Mach=0.250000
Calibration=1:1
CalPts=490
TstPts=95
PortNumbering=AP Standard
Units=Torr C m/s kg/m^3 deg mm 
Theta[deg]	Phi[deg]	P1[Torr]	P2[Torr]	P3[Torr]	P4[Torr]	P5[Torr]	P6[Torr]	Pt[Torr]	Ps[Abs,Torr]	Ts[C]	
  0.000	  0.000	 30.82126	 16.32247	 15.81909	 15.90909	 16.36960	  0.30572	 30.77640	705.02399	 23.20	
  1.691	128.401	 30.83590	 15.35594	 16.79453	 17.20024	 15.10464	  0.28507	 30.79467	704.89502	 23.10	
  1.692	 77.194	 30.81205	 16.68179	 15.38723	 17.53802	 14.77696	  0.27108	 30.77460	704.89099	 23.10	
  1.699	 26.182	 30.81647	 17.74542	 14.32349	 16.61695	 15.59329	  0.27877	 30.77653	704.94800	 23.10	
  1.699	-26.182	 30.79910	 17.70330	 14.35040	 15.18833	 16.99677	  0.25693	 30.76303	704.98700	 23.10	
  1.692	-77.194	 30.79315	 16.59901	 15.41581	 14.41735	 17.90014	  0.26384	 30.76648	705.10303	 23.10	
  1.691	-128.401	 30.77284	 15.24181	 16.79322	 14.66611	 17.60965	  0.27119	 30.74731	705.14697	 23.10	
  1.700	180.000	 30.83767	 14.67832	 17.46596	 15.88139	 16.38049	  0.27626	 30.80429	705.06000	 23.10	
  3.400	180.000	 30.72443	 12.97610	 18.99437	 15.74294	 16.21194	  0.21721	 30.76439	705.14203	 23.10	
  3.388	-152.325	 30.70146	 13.31493	 18.60527	 14.34908	 17.73483	  0.21239	 30.76201	705.08301	 23.10	
  3.397	-124.529	 30.68184	 14.26974	 17.53634	 13.26318	 18.92846	  0.20631	 30.76496	704.97699	 23.10	
  3.399	-96.763	 30.70620	 15.71507	 16.01133	 12.76706	 19.48662	  0.19111	 30.77625	705.03198	 23.10	
  3.394	-69.283	 30.68682	 17.21449	 14.49247	 12.91723	 19.25134	  0.18258	 30.74632	705.01898	 23.10	
  3.400	-41.398	 30.74326	 18.56990	 13.26924	 13.74038	 18.33547	  0.18991	 30.78233	705.10602	 23.10	
  3.401	-14.021	 30.76593	 19.30071	 12.63898	 14.96574	 16.94370	  0.19679	 30.77450	705.04999	 23.10	
  3.401	 14.021	 30.77690	 19.32150	 12.63144	 16.51454	 15.37645	  0.20906	 30.76189	705.04700	 23.10	
  3.400	 41.398	 30.84232	 18.64345	 13.27293	 17.94849	 14.15121	  0.22789	 30.82386	704.99597	 23.10	
  3.394	 69.283	 30.79411	 17.33888	 14.46604	 18.86195	 13.32472	  0.22572	 30.76932	705.00201	 23.00	
  3.399	 96.763	 30.80868	 15.85740	 15.99902	 19.04840	 13.17018	  0.23858	 30.78418	705.07202	 23.00	
  3.397	124.529	 30.75994	 14.41321	 17.49671	 18.46898	 13.66912	  0.24025	 30.73845	705.20502	 23.00	
  3.388	152.325	 30.79348	 13.42096	 18.61537	 17.29174	 14.77982	  0.23655	 30.79272	705.00800	 23.00	
  5.099	161.165	 30.61088	 11.54649	 20.17945	 17.11729	 14.48370	  0.12502	 30.79973	705.08600	 23.00	
  5.109	142.013	 30.63092	 12.26367	 19.37567	 18.58644	 13.16987	  0.13432	 30.76966	705.00800	 23.00	
  5.095	123.033	 30.69313	 13.41881	 18.13930	 19.73343	 12.17757	  0.11312	 30.79354	705.08801	 23.00	
  5.105	104.191	 30.68545	 14.79465	 16.57610	 20.39194	 11.56263	  0.12690	 30.76716	704.96802	 23.00	
  5.093	 85.207	 30.71036	 16.39033	 14.95379	 20.51524	 11.44650	  0.07562	 30.78283	704.98102	 23.00	
  5.104	 66.290	 30.69903	 17.93421	 13.42676	 20.09810	 11.73435	  0.08059	 30.76915	705.04303	 23.00	
  5.094	 47.331	 30.67865	 19.27732	 12.14727	 19.15090	 12.54436	  0.07179	 30.75861	705.04102	 23.00	
  5.089	 28.397	 30.71225	 20.30952	 11.28394	 17.84369	 13.72232	  0.05016	 30.80426	705.07397	 23.00	
  5.096	  9.576	 30.63678	 20.80114	 10.84440	 16.25366	 15.09993	  0.04974	 30.74979	704.99597	 23.00	
  5.096	 -9.576	 30.58912	 20.78290	 10.82806	 14.67412	 16.68705	  0.01566	 30.73925	705.04401	 23.00	
  5.089	-28.397	 30.58592	 20.25092	 11.26419	 13.31035	 18.25291	  0.01254	 30.76343	704.94000	 23.00	
  5.094	-47.331	 30.55145	 19.20672	 12.18899	 12.10590	 19.60579	 -0.00286	 30.77466	704.99597	 23.00	
  5.104	-66.290	 30.50916	 17.80164	 13.47471	 11.28738	 20.53214	 -0.02019	 30.76586	704.96997	 23.00	
  5.093	-85.207	 30.46626	 16.21575	 14.95534	 10.96771	 20.91629	 -0.01116	 30.73594	705.09698	 23.00	
  5.105	-104.191	 30.45328	 14.62598	 16.58545	 11.04519	 20.80422	  0.00750	 30.74764	704.90100	 22.90	
  5.095	-123.033	 30.47322	 13.23038	 18.13871	 11.64830	 20.17024	  0.02787	 30.77048	704.87500	 22.90	
  5.109	-142.013	 30.50171	 12.10763	 19.39160	 12.70397	 19.05624	  0.05435	 30.78703	704.91803	 22.90	
  5.099	-161.165	 30.49017	 11.45006	 20.15203	 14.06058	 17.54515	  0.07870	 30.74079	704.91400	 22.90	
  5.100	180.000	 30.50432	 11.25731	 20.40753	 15.50233	 15.94228	  0.13595	 30.71370	705.02899	 22.90	
  6.800	180.000	 30.23541	  9.43127	 21.87691	 15.22738	 15.66247	 -0.11520	 30.75739	704.97699	 22.90	
  6.796	-166.229	 30.19414	  9.54879	 21.68222	 13.78518	 17.21427	 -0.10643	 30.75002	705.02399	 22.90	
  6.808	-152.311	 30.14538	  9.97893	 21.08867	 12.36771	 18.75878	 -0.11720	 30.74445	704.92902	 22.90	
  6.795	-138.383	 30.10178	 10.79029	 20.11151	 11.07683	 20.11684	 -0.12013	 30.72552	704.90601	 22.90	
  6.792	-124.591	 30.10986	 11.86759	 18.90211	 10.06947	 21.19582	 -0.14795	 30.76981	704.89502	 22.90	
  6.787	-110.754	 30.12134	 13.21101	 17.45357	  9.42148	 21.93861	 -0.18572	 30.76795	704.98199	 22.90	
  6.800	-96.985	 30.12234	 14.68257	 15.87320	  9.09768	 22.30693	 -0.21208	 30.76072	704.93701	 22.90	
  6.800	-83.015	 30.14056	 16.25428	 14.29110	  9.08679	 22.28550	 -0.24796	 30.74529	705.00098	 22.90	
  6.787	-69.246	 30.22312	 17.83063	 12.89120	  9.41685	 21.92382	 -0.24586	 30.79765	704.99799	 22.90	
  6.792	-55.409	 30.25232	 19.28031	 11.54726	 10.05259	 21.17184	 -0.22340	 30.79465	704.95599	 22.90	
  6.795	-41.617	 30.23388	 20.48487	 10.41170	 11.02427	 20.05031	 -0.19228	 30.73369	704.80798	 22.90	
  6.808	-27.689	 30.30235	 21.48081	  9.56433	 12.29800	 18.68301	 -0.18022	 30.76136	704.95398	 22.90	
  6.796	-13.771	 30.32479	 22.05293	  9.09460	 13.71159	 17.11401	 -0.17896	 30.73264	704.96997	 22.90	
  6.800	  0.000	 30.33273	 22.24455	  8.94647	 15.12819	 15.56042	 -0.16816	 30.71147	704.90802	 22.90	
  6.796	 13.771	 30.40036	 22.08394	  9.08431	 16.67662	 14.09777	 -0.14805	 30.74859	704.85999	 22.90	
  6.808	 27.689	 30.42993	 21.53328	  9.51837	 18.20770	 12.70996	 -0.13324	 30.74770	704.84601	 22.90	
  6.795	 41.617	 30.43569	 20.60019	 10.32344	 19.58410	 11.49112	 -0.11659	 30.73859	704.97400	 22.90	
  6.792	 55.409	 30.49486	 19.41241	 11.44820	 20.70299	 10.55468	 -0.08704	 30.79017	704.91400	 22.90	
  6.787	 69.246	 30.45889	 17.97997	 12.76203	 21.44608	  9.88132	 -0.06900	 30.74312	704.90002	 22.90	
  6.800	 83.015	 30.46493	 16.48435	 14.21397	 21.87804	  9.56718	 -0.08973	 30.75143	704.93701	 22.80	
  6.800	 96.985	 30.46460	 14.93016	 15.80019	 21.90346	  9.59749	 -0.11173	 30.76525	704.92200	 22.80	
  6.787	110.754	 30.44275	 13.47474	 17.38574	 21.49941	  9.95743	 -0.09119	 30.75661	704.97302	 22.80	
  6.792	124.591	 30.38329	 12.10816	 18.84665	 20.74158	 10.58744	 -0.08124	 30.73199	704.82898	 22.80	
  6.795	138.383	 30.40995	 11.01725	 20.13081	 19.69549	 11.60757	 -0.06755	 30.79298	704.81299	 22.80	
  6.808	152.311	 30.32109	 10.13464	 21.07312	 18.29242	 12.82745	 -0.06815	 30.74570	704.74902	 22.80	
  6.796	166.229	 30.25656	  9.62318	 21.65097	 16.75453	 14.18635	 -0.08084	 30.72706	704.83801	 22.80	
  8.491	168.704	 29.85283	  7.74214	 23.03548	 16.44886	 13.79226	 -0.30416	 30.74940	704.87500	 22.80	
  8.502	157.493	 29.89120	  8.14057	 22.54267	 18.00002	 12.36310	 -0.27636	 30.73334	704.75702	 22.80	
  8.494	146.194	 29.95598	  8.85105	 21.73947	 19.50802	 11.00822	 -0.27509	 30.74726	704.89099	 22.80	
  8.495	135.039	 29.99837	  9.77056	 20.66716	 20.79220	  9.81862	 -0.28826	 30.74497	704.83002	 22.80	
  8.487	123.723	 30.05865	 10.96697	 19.33678	 21.86750	  8.83826	 -0.32503	 30.75524	704.76801	 22.80	
  8.492	112.575	 30.09086	 12.29232	 17.86866	 22.62352	  8.22227	 -0.33709	 30.74927	704.85999	 22.80	
  8.510	101.220	 30.13573	 13.80373	 16.26523	 23.12298	  7.80488	 -0.35579	 30.78087	704.78400	 22.80	
  8.500	 90.000	 30.11002	 15.30790	 14.63120	 23.21414	  7.68408	 -0.33040	 30.72441	704.74597	 22.80	
  8.510	 78.780	 30.13420	 16.90287	 13.08557	 23.06283	  7.76309	 -0.30722	 30.74951	704.76801	 22.80	
  8.492	 67.425	 30.16401	 18.44116	 11.63209	 22.56829	  8.13276	 -0.28474	 30.76951	704.69702	 22.80	
  8.487	 56.277	 30.13754	 19.87136	 10.29101	 21.76615	  8.77020	 -0.28919	 30.75752	704.77600	 22.80	
  8.495	 44.961	 30.06224	 21.13663	  9.07795	 20.64306	  9.69152	 -0.30912	 30.70091	704.66998	 22.80	
  8.494	 33.806	 30.09857	 22.21470	  8.16507	 19.37988	 10.89692	 -0.33571	 30.76160	704.72601	 22.80	
  8.502	 22.507	 30.03436	 22.97036	  7.49921	 17.87042	 12.23358	 -0.35718	 30.71837	704.70300	 22.80	
  8.491	 11.296	 30.05258	 23.45681	  7.14418	 16.33728	 13.69985	 -0.37256	 30.76154	704.69397	 22.80	
  8.500	  0.000	 29.98258	 23.58540	  7.06058	 14.76225	 15.22452	 -0.37773	 30.73496	704.74298	 22.80	
  8.491	-11.296	 29.95993	 23.41892	  7.17522	 13.27260	 16.79670	 -0.39705	 30.75248	704.69397	 22.80	
  8.502	-22.507	 29.88637	 22.90159	  7.54300	 11.79549	 18.34689	 -0.40468	 30.71667	704.76501	 22.80	
  8.494	-33.806	 29.83340	 22.07676	  8.22822	 10.39853	 19.83797	 -0.41343	 30.70960	704.81598	 22.80	
  8.495	-44.961	 29.80986	 21.03524	  9.17217	  9.17425	 21.14983	 -0.45691	 30.74126	704.86102	 22.80	
  8.487	-56.277	 29.77752	 19.71590	 10.37193	  8.28495	 22.20084	 -0.49146	 30.73642	704.73499	 22.80	
  8.492	-67.425	 29.75218	 18.26476	 11.71896	  7.66395	 22.98871	 -0.51757	 30.75174	704.81500	 22.80	
  8.510	-78.780	 29.70898	 16.68583	 13.17888	  7.26459	 23.49430	 -0.51643	 30.75429	704.77698	 22.80	
  8.500	-90.000	 29.69137	 15.10171	 14.72128	  7.17256	 23.64709	 -0.48920	 30.75588	704.80103	 22.80	
  8.510	-101.220	 29.65684	 13.53055	 16.31673	  7.26607	 23.49284	 -0.44666	 30.74124	704.81299	 22.80	
  8.492	-112.575	 29.65571	 12.03366	 17.93169	  7.68360	 23.01071	 -0.40653	 30.74670	704.90601	 22.80	
  8.487	-123.723	 29.64208	 10.69857	 19.36739	  8.33708	 22.23927	 -0.35732	 30.74019	704.85602	 22.80	
  8.495	-135.039	 29.65504	  9.55987	 20.68436	  9.26016	 21.20630	 -0.32910	 30.73810	704.80499	 22.70	
  8.494	-146.194	 29.68341	  8.66254	 21.75574	 10.48095	 19.93322	 -0.31982	 30.73623	704.76599	 22.70	
  8.502	-157.493	 29.71208	  8.02909	 22.55036	 11.89692	 18.43236	 -0.32427	 30.72854	704.83600	 22.70	
  8.491	-168.704	 29.79143	  7.71592	 23.06230	 13.38845	 16.88698	 -0.31968	 30.76571	704.75403	 22.70	
  8.500	180.000	 29.78500	  7.58723	 23.19078	 14.85717	 15.28551	 -0.30606	 30.71484	704.90100	 22.80	
 10.200	180.000	 29.26515	  5.71910	 24.44094	 14.44571	 14.85877	 -0.55674	 30.73408	704.89502	 22.80	
 10.191	-170.497	 29.24560	  5.81445	 24.32317	 12.92451	 16.44427	 -0.57825	 30.76307	704.76001	 22.80	
 10.210	-161.034	 29.17850	  6.09129	 23.90779	 11.38187	 18.01649	 -0.58253	 30.74330	704.76202	 22.70	
 10.194	-151.526	 29.10900	  6.57790	 23.18844	  9.91513	 19.55904	 -0.57067	 30.70701	704.84698	 22.70	
 10.190	-142.105	 29.09301	  7.31169	 22.26484	  8.58116	 20.96031	 -0.57095	 30.72937	704.83801	 22.70	
 10.215	-132.646	 29.07713	  8.26777	 21.13512	  7.45794	 22.20867	 -0.57204	 30.74464	704.70898	 22.70	
 10.203	-123.092	 29.07250	  9.43150	 19.78455	  6.58087	 23.24589	 -0.59281	 30.75217	704.77600	 22.70	
 10.192	-113.678	 29.07428	 10.77843	 18.30099	  5.93999	 24.04182	 -0.65424	 30.75047	704.72900	 22.70	
 10.208	-104.249	 29.05629	 12.20744	 16.72053	  5.49106	 24.58014	 -0.72502	 30.72906	704.84399	 22.70	
 10.210	-94.801	 29.07484	 13.75829	 15.09343	  5.27229	 24.85310	 -0.77715	 30.72718	704.74597	 22.70	
 10.210	-85.199	 29.07969	 15.37245	 13.46377	  5.26374	 24.82870	 -0.80097	 30.70564	704.80103	 22.70	
 10.208	-75.751	 29.10066	 16.97866	 11.94168	  5.46548	 24.54474	 -0.80892	 30.69891	704.77399	 22.70	
 10.192	-66.322	 29.18744	 18.57605	 10.50702	  5.89445	 24.01270	 -0.79278	 30.74322	704.77399	 22.70	
 10.203	-56.908	 29.21360	 20.05302	  9.14483	  6.51023	 23.19307	 -0.77081	 30.71951	704.74597	 22.70	
 10.215	-47.354	 29.27279	 21.43649	  7.93655	  7.37337	 22.16232	 -0.72244	 30.74638	704.87500	 22.70	
 10.190	-37.895	 29.32172	 22.58998	  6.94809	  8.48339	 20.92020	 -0.68212	 30.74875	704.93402	 22.70	
 10.194	-28.474	 29.33464	 23.49095	  6.12802	  9.77211	 19.48946	 -0.66181	 30.70887	704.78497	 22.70	
 10.210	-18.966	 29.37375	 24.20728	  5.53022	 11.21708	 17.94094	 -0.65634	 30.70601	704.77399	 22.70	
 10.191	 -9.503	 29.45401	 24.65587	  5.21717	 12.75711	 16.36277	 -0.65699	 30.74103	704.72803	 22.70	
 10.200	  0.000	 29.50225	 24.81705	  5.12535	 14.29938	 14.79003	 -0.64959	 30.74579	704.84698	 22.80	
 10.191	  9.503	 29.50146	 24.65751	  5.17200	 15.85724	 13.20199	 -0.64530	 30.70230	704.65503	 22.80	
 10.210	 18.966	 29.55339	 24.30581	  5.46359	 17.45167	 11.71713	 -0.63722	 30.73032	704.71399	 22.80	
 10.194	 28.474	 29.60139	 23.64001	  6.04628	 18.99034	 10.30924	 -0.60023	 30.74127	704.83002	 22.80	
 10.190	 37.895	 29.63591	 22.73407	  6.82814	 20.41912	  9.04174	 -0.55916	 30.74351	704.69000	 22.80	
 10.215	 47.354	 29.64887	 21.61789	  7.80410	 21.68977	  7.89388	 -0.52451	 30.74370	704.78400	 22.80	
 10.203	 56.908	 29.69990	 20.30717	  9.05050	 22.76614	  7.03712	 -0.49662	 30.77079	704.72498	 22.80	
 10.192	 66.322	 29.67723	 18.82253	 10.39456	 23.55021	  6.39576	 -0.49338	 30.73075	704.83002	 22.80	
 10.208	 75.751	 29.65607	 17.25342	 11.82107	 24.12427	  5.93835	 -0.54955	 30.71528	704.79602	 22.80	
 10.210	 85.199	 29.66397	 15.68517	 13.35725	 24.43894	  5.74459	 -0.61638	 30.72977	704.75403	 22.80	
 10.210	 94.801	 29.66268	 14.11180	 14.99975	 24.45612	  5.78399	 -0.62475	 30.73635	704.65198	 22.80	
 10.208	104.249	 29.64124	 12.56762	 16.63035	 24.18797	  5.99083	 -0.63196	 30.73057	704.74298	 22.70	
 10.192	113.678	 29.64066	 11.12263	 18.22903	 23.66628	  6.44499	 -0.60899	 30.75717	704.71997	 22.70	
 10.203	123.092	 29.57048	  9.76029	 19.69788	 22.87308	  7.05086	 -0.56703	 30.73088	704.71802	 22.80	
 10.215	132.646	 29.50300	  8.52968	 21.07289	 21.84196	  7.95534	 -0.54207	 30.72767	704.75702	 22.80	
 10.190	142.105	 29.48354	  7.54142	 22.25797	 20.59764	  9.09437	 -0.49880	 30.75145	704.65198	 22.80	
 10.194	151.526	 29.42880	  6.76644	 23.19800	 19.16718	 10.41603	 -0.49425	 30.74930	704.80402	 22.80	
 10.210	161.034	 29.38130	  6.18069	 23.90463	 17.63524	 11.83898	 -0.51580	 30.75516	704.81299	 22.80	
 10.191	170.497	 29.32828	  5.85116	 24.30632	 16.03448	 13.32225	 -0.54161	 30.74942	704.74597	 22.80	
 11.899	171.783	 28.66913	  3.94785	 25.47051	 15.54112	 12.78653	 -0.80281	 30.73918	704.70898	 22.80	
 11.890	163.610	 28.72049	  4.26008	 25.09923	 17.14133	 11.28191	 -0.75514	 30.73505	704.74500	 22.80	
 11.889	155.445	 28.76588	  4.74545	 24.49201	 18.70378	  9.81071	 -0.72988	 30.73424	704.70300	 22.80	
 11.909	147.299	 28.82967	  5.38510	 23.69969	 20.21774	  8.41028	 -0.74001	 30.76133	704.63300	 22.80	
 11.902	139.148	 28.86609	  6.20889	 22.64217	 21.55798	  7.19467	 -0.75646	 30.72907	704.68298	 22.80	
 11.894	130.867	 28.92591	  7.28011	 21.39413	 22.75347	  6.17828	 -0.78928	 30.72094	704.69501	 22.80	
 11.897	122.732	 28.95665	  8.47809	 20.00948	 23.76369	  5.35035	 -0.81520	 30.69437	704.65900	 22.80	
 11.903	114.597	 29.00638	  9.80627	 18.52353	 24.58339	  4.71273	 -0.85876	 30.69996	704.64899	 22.80	
 11.893	106.346	 29.02886	 11.28988	 16.90524	 25.15117	  4.28671	 -0.90878	 30.69552	704.61902	 22.80	
 11.892	 98.155	 29.06845	 12.81951	 15.28042	 25.49137	  4.00723	 -0.92427	 30.70591	704.63202	 22.80	
 11.900	 90.000	 29.09547	 14.33932	 13.65661	 25.59866	  3.92160	 -0.90013	 30.71702	704.53101	 22.80	
 11.892	 81.845	 29.14106	 15.98286	 12.10813	 25.48682	  4.00598	 -0.84976	 30.74950	704.45801	 22.80	
 11.893	 73.654	 29.09819	 17.57282	 10.55712	 25.06414	  4.25825	 -0.77554	 30.70494	704.67200	 22.80	
 11.903	 65.403	 29.15356	 19.18691	  9.07842	 24.50260	  4.69807	 -0.71804	 30.77468	704.71802	 22.80	
 11.897	 57.268	 29.10601	 20.62054	  7.72179	 23.62416	  5.32857	 -0.70826	 30.73408	704.56500	 22.80	
 11.894	 49.133	 29.09661	 21.95901	  6.54535	 22.57238	  6.16215	 -0.73814	 30.73386	704.52301	 22.80	
 11.902	 40.852	 29.07263	 23.13487	  5.51597	 21.35764	  7.16137	 -0.79405	 30.74191	704.73901	 22.80	
 11.909	 32.701	 29.03432	 24.12750	  4.66198	 19.99485	  8.32938	 -0.84680	 30.74173	704.63599	 22.80	
 11.889	 24.555	 28.97040	 24.88545	  4.01645	 18.48070	  9.69329	 -0.88199	 30.70418	704.57098	 22.80	
 11.890	 16.390	 28.97882	 25.48819	  3.57690	 16.94825	 11.15554	 -0.90310	 30.74860	704.56500	 22.80	
 11.899	  8.217	 28.94498	 25.83047	  3.29279	 15.35403	 12.67263	 -0.91641	 30.74759	704.69000	 22.80	
 11.900	  0.000	 28.89817	 25.93336	  3.23517	 13.76412	 14.27788	 -0.90764	 30.74475	704.59998	 22.80	
 11.899	 -8.217	 28.84979	 25.79180	  3.34012	 12.17446	 15.85317	 -0.90279	 30.73732	704.66602	 22.80	
 11.890	-16.390	 28.79460	 25.39651	  3.61864	 10.63603	 17.45193	 -0.89893	 30.72745	704.54498	 22.80	
 11.889	-24.555	 28.76150	 24.79938	  4.10842	  9.15646	 19.03976	 -0.89225	 30.73658	704.70398	 22.80	
 11.909	-32.701	 28.70743	 23.97598	  4.77911	  7.79532	 20.50396	 -0.90051	 30.73392	704.72498	 22.80	
 11.902	-40.852	 28.67231	 22.93848	  5.65254	  6.64932	 21.85162	 -0.93775	 30.73697	704.69397	 22.80	
 11.894	-49.133	 28.63105	 21.70983	  6.68496	  5.64974	 23.08007	 -0.96606	 30.74902	704.72900	 22.80	
 11.897	-57.268	 28.56334	 20.33688	  7.85259	  4.82369	 24.09246	 -1.00738	 30.73639	704.72101	 22.80	
 11.903	-65.403	 28.47740	 18.82560	  9.16539	  4.18084	 24.88665	 -1.02717	 30.70331	704.66602	 22.80	
 11.893	-73.654	 28.45453	 17.24816	 10.64939	  3.79287	 25.47186	 -1.03958	 30.70863	704.71802	 22.80	
 11.892	-81.845	 28.42215	 15.63507	 12.18644	  3.54105	 25.81528	 -1.04085	 30.70597	704.63501	 22.80	
 11.900	-90.000	 28.44286	 14.02773	 13.76971	  3.43381	 25.99533	 -1.02601	 30.76081	704.65503	 22.80	
 11.892	-98.155	 28.38529	 12.42155	 15.38260	  3.53638	 25.86087	 -1.01879	 30.73098	704.72900	 22.80	
 11.893	-106.346	 28.38434	 10.88161	 17.00995	  3.78402	 25.53349	 -0.95653	 30.74669	704.93103	 22.80	
 11.903	-114.597	 28.34169	  9.41697	 18.58066	  4.21735	 24.93673	 -0.89038	 30.72489	704.87500	 22.80	
 11.897	-122.732	 28.35674	  8.12259	 20.06341	  4.89992	 24.12062	 -0.82014	 30.72395	704.67200	 22.80	
 11.894	-130.867	 28.36768	  6.96800	 21.42891	  5.71680	 23.09639	 -0.79043	 30.71820	704.69000	 22.80	
 11.902	-139.148	 28.42408	  5.94593	 22.68914	  6.74097	 21.90929	 -0.79719	 30.75315	704.67999	 22.80	
 11.909	-147.299	 28.41711	  5.14546	 23.67122	  7.91260	 20.54599	 -0.81849	 30.71026	704.84698	 22.80	
 11.889	-155.445	 28.48800	  4.58721	 24.50653	  9.31662	 19.10277	 -0.83053	 30.73920	704.70099	 22.80	
 11.890	-163.610	 28.53037	  4.16699	 25.10004	 10.84688	 17.53058	 -0.83647	 30.73870	704.66602	 22.80	
 11.899	-171.783	 28.56210	  3.91785	 25.46361	 12.38872	 15.91937	 -0.83899	 30.73470	704.62402	 22.80	
 11.900	180.000	 28.58505	  3.82835	 25.56285	 13.94491	 14.33927	 -0.82387	 30.70896	704.63599	 22.80	
 13.600	180.000	 27.86813	  1.95490	 26.64177	 13.38615	 13.77601	 -1.07117	 30.75874	704.70898	 22.80	
 13.608	-172.853	 27.80378	  2.04422	 26.52367	 11.80172	 15.30219	 -1.08848	 30.73384	704.58801	 22.80	
 13.611	-165.583	 27.74999	  2.22975	 26.20169	 10.23444	 16.91267	 -1.08974	 30.72455	704.69000	 22.80	
 13.601	-158.353	 27.71117	  2.59621	 25.67344	  8.69016	 18.51557	 -1.06820	 30.73463	704.68903	 22.80	
 13.609	-151.210	 27.68773	  3.09092	 24.97267	  7.31681	 20.02529	 -1.07048	 30.75210	704.72498	 22.80	
 13.611	-143.999	 27.63033	  3.75427	 24.03051	  6.08957	 21.43312	 -1.03848	 30.72770	704.76599	 22.80	
 13.601	-136.825	 27.60257	  4.58465	 22.92868	  4.98407	 22.74234	 -1.00243	 30.73014	704.67499	 22.80	
 13.596	-129.640	 27.57323	  5.60483	 21.66950	  4.02697	 23.90867	 -0.98209	 30.72782	704.61603	 22.80	
 13.611	-122.431	 27.53919	  6.73301	 20.27115	  3.16798	 24.90057	 -1.00702	 30.71159	704.49500	 22.80	
 13.604	-115.211	 27.57052	  8.05014	 18.81138	  2.57473	 25.73473	 -1.05523	 30.75881	704.66302	 22.80	
 13.595	-108.042	 27.57240	  9.47870	 17.24016	  2.12504	 26.33189	 -1.13224	 30.73184	704.55701	 22.80	
 13.607	-100.793	 27.56643	 10.97455	 15.59712	  1.78764	 26.72978	 -1.16931	 30.70545	704.64398	 22.80	
 13.601	-93.617	 27.59093	 12.53117	 13.97703	  1.61215	 26.94533	 -1.18898	 30.72108	704.71100	 22.80	
 13.601	-86.383	 27.62304	 14.18512	 12.37535	  1.62347	 26.94433	 -1.17440	 30.72460	704.59302	 22.80	
 13.607	-79.207	 27.63068	 15.79542	 10.80649	  1.76538	 26.73321	 -1.15754	 30.71352	704.66302	 22.80	
 13.595	-71.958	 27.72692	 17.44978	  9.29674	  2.08134	 26.35472	 -1.15849	 30.77394	704.68701	 22.80	
 13.604	-64.789	 27.71444	 18.97952	  7.81914	  2.51326	 25.69522	 -1.16674	 30.71550	704.61102	 22.80	
 13.611	-57.569	 27.75003	 20.46187	  6.50262	  3.11479	 24.86898	 -1.16181	 30.69312	704.60498	 22.80	
 13.596	-50.360	 27.81222	 21.84939	  5.34745	  3.93957	 23.86436	 -1.13723	 30.69074	704.72803	 22.80	
 13.601	-43.175	 27.90787	 23.14286	  4.35027	  4.86777	 22.73307	 -1.12457	 30.74788	704.63501	 22.80	
 13.611	-36.001	 27.91708	 24.22874	  3.48510	  5.91582	 21.38073	 -1.10236	 30.70091	704.66302	 22.80	
 13.609	-28.790	 27.96483	 25.16170	  2.75387	  7.10015	 19.94770	 -1.09933	 30.70171	704.55499	 22.80	
 13.601	-21.647	 28.01926	 25.90732	  2.19249	  8.44844	 18.45118	 -1.09387	 30.72052	704.71802	 22.80	
 13.611	-14.417	 28.05964	 26.46278	  1.75947	  9.96601	 16.85336	 -1.10867	 30.71744	704.71399	 22.80	
 13.608	 -7.147	 28.09716	 26.80047	  1.50628	 11.54153	 15.21918	 -1.11207	 30.71320	704.70300	 22.80	
 13.600	  0.000	 28.13442	 26.90840	  1.40723	 13.11221	 13.66467	 -1.10862	 30.70292	704.67798	 22.80	
 13.608	  7.147	 28.20075	 26.85389	  1.48765	 14.70445	 12.06653	 -1.11669	 30.72708	704.62097	 22.80	
 13.611	 14.417	 28.24260	 26.56044	  1.70670	 16.31314	 10.52080	 -1.11680	 30.73586	704.67200	 22.80	
 13.601	 21.647	 28.26652	 26.03893	  2.09829	 17.89262	  9.04224	 -1.10447	 30.72217	704.60797	 22.80	
 13.609	 28.790	 28.31951	 25.36080	  2.63514	 19.43129	  7.66350	 -1.09664	 30.74152	704.48297	 22.80	
 13.611	 36.001	 28.33797	 24.45531	  3.33983	 20.86080	  6.43674	 -1.06031	 30.72577	704.60797	 22.80	
 13.601	 43.175	 28.40280	 23.43009	  4.22025	 22.20942	  5.36789	 -1.00162	 30.75506	704.59998	 22.80	
 13.596	 50.360	 28.39320	 22.17581	  5.22223	 23.38313	  4.42260	 -0.93980	 30.71822	704.58002	 22.80	
 13.611	 57.569	 28.43703	 20.84365	  6.37241	 24.46066	  3.62394	 -0.89782	 30.75600	704.55200	 22.80	
 13.604	 64.789	 28.38640	 19.33764	  7.67314	 25.26340	  2.96893	 -0.90999	 30.68544	704.51501	 22.80	
 13.595	 71.958	 28.39868	 17.80005	  9.12341	 25.90541	  2.54164	 -0.97165	 30.69221	704.63599	 22.80	
 13.607	 79.207	 28.42641	 16.21506	 10.66558	 26.37419	  2.23198	 -1.05401	 30.71605	704.63202	 22.80	
 13.601	 86.383	 28.42607	 14.60523	 12.25335	 26.59282	  2.09656	 -1.10863	 30.72238	704.48297	 22.80	
 13.601	 93.617	 28.41250	 12.97081	 13.87482	 26.59926	  2.15144	 -1.13688	 30.70721	704.47601	 22.80	
 13.607	100.793	 28.38343	 11.46780	 15.50942	 26.42505	  2.25508	 -1.15196	 30.71413	704.53101	 22.80	
 13.595	108.042	 28.38471	  9.96610	 17.15915	 26.04977	  2.59971	 -1.12783	 30.73582	704.48297	 22.80	
 13.604	115.211	 28.31970	  8.51529	 18.72408	 25.43164	  3.04257	 -1.09607	 30.71435	704.56897	 22.80	
 13.611	122.431	 28.27538	  7.18484	 20.22775	 24.61843	  3.65953	 -1.05500	 30.71462	704.48999	 22.80	
 13.596	129.640	 28.22033	  5.98489	 21.62202	 23.59715	  4.45193	 -1.00828	 30.71218	704.51703	 22.80	
 13.601	136.825	 28.18625	  4.94337	 22.90824	 22.43641	  5.39010	 -0.97961	 30.74278	704.53198	 22.80	
 13.611	143.999	 28.11308	  4.05842	 24.01308	 21.12458	  6.48260	 -0.96127	 30.73782	704.60498	 22.80	
 13.609	151.210	 28.01799	  3.31554	 24.91171	 19.66882	  7.70961	 -0.97175	 30.69855	704.67200	 22.80	
 13.601	158.353	 27.99616	  2.76147	 25.66467	 18.15282	  9.13107	 -0.96305	 30.73108	704.53198	 22.80	
 13.611	165.583	 27.95111	  2.33165	 26.20490	 16.56949	 10.63431	 -0.99686	 30.73831	704.58801	 22.80	
 13.608	172.853	 27.89477	  2.06389	 26.51367	 14.97258	 12.18192	 -1.03685	 30.72930	704.57599	 22.80	
 15.298	173.587	 27.03016	  0.23190	 27.43688	 14.34494	 11.49945	 -1.24604	 30.72365	704.67999	 22.80	
 15.291	167.167	 27.07995	  0.49428	 27.14301	 15.88408	  9.94646	 -1.21305	 30.70577	704.54602	 22.80	
 15.307	160.676	 27.15491	  0.87774	 26.71345	 17.50700	  8.44397	 -1.18746	 30.74763	704.64203	 22.80	
 15.300	154.261	 27.18982	  1.36684	 26.04728	 19.05162	  7.04572	 -1.17197	 30.73711	704.51398	 22.80	
 15.288	147.854	 27.26824	  2.01188	 25.22766	 20.53522	  5.80377	 -1.17038	 30.74449	704.53998	 22.80	
 15.293	141.428	 27.27762	  2.75672	 24.18666	 21.88601	  4.64510	 -1.17392	 30.68390	704.55402	 22.80	
 15.299	134.985	 27.37151	  3.65866	 23.04874	 23.19976	  3.62989	 -1.19426	 30.72014	704.46698	 22.80	
 15.305	128.583	 27.38724	  4.69371	 21.72254	 24.31810	  2.71049	 -1.21773	 30.67723	704.48297	 22.80	
 15.309	122.142	 27.48339	  5.85852	 20.35074	 25.34678	  1.95802	 -1.25214	 30.72571	704.57098	 22.80	
 15.304	115.711	 27.52740	  7.17380	 18.84517	 26.13635	  1.39079	 -1.24568	 30.70923	704.47498	 22.80	
 15.297	109.291	 27.58887	  8.58299	 17.28426	 26.78963	  0.90382	 -1.25283	 30.73040	704.51099	 22.80	
 15.293	102.897	 27.59687	 10.02947	 15.66253	 27.20873	  0.56461	 -1.26825	 30.70445	704.54498	 22.80	
 15.293	 96.458	 27.66140	 11.55934	 14.04740	 27.49530	  0.39979	 -1.28896	 30.74377	704.56201	 22.80	
 15.300	 90.000	 27.65175	 13.13301	 12.40714	 27.55759	  0.26069	 -1.29733	 30.72361	704.56299	 22.80	
 15.293	 83.542	 27.68471	 14.77902	 10.80971	 27.45449	  0.34088	 -1.26928	 30.74563	704.69800	 22.80	
 15.293	 77.103	 27.67373	 16.37671	  9.23222	 27.13091	  0.56621	 -1.20810	 30.72581	704.55200	 22.80	
 15.297	 70.709	 27.67169	 17.93321	  7.74264	 26.63610	  0.87291	 -1.13074	 30.72398	704.46100	 22.80	
 15.304	 64.289	 27.62537	 19.45312	  6.34635	 25.93253	  1.32675	 -1.08258	 30.68176	704.49200	 22.80	
 15.309	 57.858	 27.60425	 20.90835	  5.08018	 25.09811	  1.95478	 -1.07916	 30.68876	704.56500	 22.80	
 15.305	 51.417	 27.59535	 22.29473	  3.95084	 24.09701	  2.70489	 -1.09217	 30.71023	704.49500	 22.80	
 15.299	 45.015	 27.58957	 23.55750	  2.95410	 22.93685	  3.60522	 -1.14673	 30.71868	704.56500	 22.80	
 15.293	 38.572	 27.53276	 24.64898	  2.07692	 21.58978	  4.62995	 -1.18884	 30.68230	704.50702	 22.80	
 15.288	 32.146	 27.49900	 25.60417	  1.34722	 20.19031	  5.77103	 -1.22790	 30.68133	704.44397	 22.80	
 15.300	 25.739	 27.49104	 26.42980	  0.72879	 18.74442	  6.99469	 -1.22409	 30.72346	704.49799	 22.80	
 15.307	 19.324	 27.42776	 27.03846	  0.25601	 17.17474	  8.33909	 -1.21362	 30.71237	704.50702	 22.80	
 15.291	 12.833	 27.39328	 27.47002	 -0.04677	 15.58621	  9.82388	 -1.22266	 30.70325	704.60199	 22.80	
 15.298	  6.413	 27.36090	 27.73195	 -0.28726	 14.00204	 11.35906	 -1.21394	 30.71477	704.51801	 22.80	
 15.300	  0.000	 27.31334	 27.80627	 -0.35942	 12.39210	 12.97012	 -1.21750	 30.69884	704.39899	 22.80	
 15.298	 -6.413	 27.27919	 27.71377	 -0.24106	 10.80358	 14.57530	 -1.22022	 30.72225	704.50702	 22.80	
 15.291	-12.833	 27.25081	 27.40660	  0.01689	  9.26356	 16.15542	 -1.23072	 30.72570	704.51801	 22.80	
 15.307	-19.324	 27.21848	 26.93610	  0.40172	  7.78567	 17.77613	 -1.23421	 30.73537	704.50299	 22.80	
 15.300	-25.739	 27.16285	 26.24930	  0.86390	  6.44557	 19.29715	 -1.22331	 30.71351	704.59399	 22.80	
 15.288	-32.146	 27.10888	 25.39814	  1.46078	  5.24490	 20.74652	 -1.21287	 30.69779	704.60498	 22.80	
 15.293	-38.572	 27.07284	 24.40811	  2.21141	  4.12500	 22.16845	 -1.21258	 30.72272	704.53998	 22.80	
 15.299	-45.015	 27.01240	 23.24223	  3.07402	  3.10591	 23.44047	 -1.20656	 30.71595	704.46198	 22.80	
 15.305	-51.417	 26.98307	 21.96683	  4.07036	  2.21552	 24.58290	 -1.19305	 30.73754	704.43402	 22.80	
 15.309	-57.858	 26.93601	 20.56135	  5.21855	  1.47439	 25.57030	 -1.18873	 30.74376	704.41101	 22.80	
 15.304	-64.289	 26.84958	 19.04690	  6.48080	  0.92137	 26.34766	 -1.16696	 30.69764	704.52301	 22.80	
 15.297	-70.709	 26.81431	 17.49659	  7.85684	  0.44474	 27.00760	 -1.14931	 30.70811	704.47803	 22.80	
 15.293	-77.103	 26.77963	 15.92215	  9.32892	  0.10534	 27.47153	 -1.13596	 30.71777	704.52899	 22.80	
 15.293	-83.542	 26.80669	 14.33880	 10.92732	 -0.10059	 27.80854	 -1.14851	 30.78727	704.48102	 22.80	
 15.300	-90.000	 26.72712	 12.65515	 12.49963	 -0.21077	 27.88424	 -1.17585	 30.75219	704.42102	 22.80	
 15.293	-96.458	 26.67492	 11.01930	 14.11304	 -0.10903	 27.75415	 -1.21340	 30.70872	704.45001	 22.80	
 15.293	-102.897	 26.67252	  9.48605	 15.75983	  0.12157	 27.48969	 -1.23622	 30.72078	704.50702	 22.80	
 15.297	-109.291	 26.64469	  8.04668	 17.33566	  0.44542	 27.02789	 -1.23533	 30.70898	704.52301	 22.80	
 15.304	-115.711	 26.61453	  6.67545	 18.86994	  0.94016	 26.36234	 -1.20328	 30.67519	704.51398	 22.80	
 15.309	-122.142	 26.67381	  5.41612	 20.39337	  1.53351	 25.60717	 -1.16184	 30.74823	704.49500	 22.80	
 15.305	-128.583	 26.71392	  4.30690	 21.79820	  2.33073	 24.63671	 -1.14563	 30.75947	704.49298	 22.80	
 15.299	-134.985	 26.68951	  3.31787	 23.03538	  3.26090	 23.48177	 -1.17568	 30.71582	704.61603	 22.80	
 15.293	-141.428	 26.74986	  2.44094	 24.22395	  4.30458	 22.23054	 -1.20729	 30.74384	704.43903	 22.80	
 15.288	-147.854	 26.79111	  1.71474	 25.23084	  5.45320	 20.84082	 -1.24873	 30.74138	704.75403	 22.80	
 15.300	-154.261	 26.78771	  1.15434	 26.01716	  6.68487	 19.35130	 -1.26106	 30.69862	704.53998	 22.80	
 15.307	-160.676	 26.85610	  0.76103	 26.69737	  8.03911	 17.85952	 -1.25492	 30.73582	704.53699	 22.80	
 15.291	-167.167	 26.87630	  0.46208	 27.12532	  9.56540	 16.23226	 -1.26268	 30.68710	704.51398	 22.80	
 15.298	-173.587	 26.90648	  0.23518	 27.40446	 11.11367	 14.63290	 -1.27073	 30.68930	704.49500	 22.80	
 15.300	180.000	 27.00324	  0.15176	 27.56117	 12.72238	 13.11004	 -1.25702	 30.75468	704.54602	 22.80	
 17.000	180.000	 25.99619	 -1.63454	 28.34591	 11.96858	 12.32030	 -1.36879	 30.71482	704.67798	 22.80	
 16.990	-174.179	 25.97799	 -1.57553	 28.27675	 10.39233	 13.90307	 -1.36281	 30.74899	704.50598	 22.80	
 17.009	-168.383	 25.93068	 -1.34086	 28.02426	  8.86358	 15.46372	 -1.36431	 30.73403	704.50299	 22.80	
 17.000	-162.596	 25.86333	 -1.04075	 27.55522	  7.39162	 17.04203	 -1.33690	 30.68977	704.56799	 22.80	
 16.990	-156.759	 25.83746	 -0.61438	 26.96314	  6.05417	 18.60187	 -1.34256	 30.69110	704.53400	 22.80	
 16.995	-150.919	 25.81212	 -0.16289	 26.23168	  4.78354	 20.11298	 -1.35174	 30.71066	704.61798	 22.80	
 16.988	-145.161	 25.75133	  0.41741	 25.30018	  3.61194	 21.51361	 -1.34543	 30.68973	704.48102	 22.80	
 17.014	-139.343	 25.74147	  1.16599	 24.26955	  2.54614	 22.88025	 -1.33256	 30.72325	704.39099	 22.80	
 17.007	-133.546	 25.74211	  2.05480	 23.08892	  1.58897	 24.10800	 -1.30968	 30.74047	704.36902	 22.80	
 17.001	-127.699	 25.70968	  3.04213	 21.76907	  0.70792	 25.20641	 -1.29945	 30.72994	704.41302	 22.80	
 17.006	-121.937	 25.65520	  4.11936	 20.34748	 -0.02530	 26.14441	 -1.29415	 30.69270	704.41302	 22.80	
 17.002	-116.134	 25.66857	  5.29802	 18.90103	 -0.67159	 26.99393	 -1.29199	 30.73327	704.45801	 22.80	
 17.001	-110.310	 25.65165	  6.58701	 17.35816	 -1.19440	 27.64641	 -1.26856	 30.73477	704.38800	 22.80	
 16.988	-104.517	 25.69156	  8.00703	 15.79363	 -1.51357	 28.13247	 -1.21773	 30.74262	704.46198	 22.80	
 17.008	-98.662	 25.68101	  9.48316	 14.17017	 -1.74144	 28.43426	 -1.14932	 30.71830	704.39001	 22.80	
 16.996	-92.909	 25.73564	 11.03911	 12.55355	 -1.92604	 28.63615	 -1.08110	 30.75558	704.54602	 22.80	
 16.996	-87.091	 25.69665	 12.61849	 10.93505	 -1.93630	 28.57360	 -1.04304	 30.69407	704.44702	 22.80	
 17.012	-81.253	 25.74173	 14.28344	  9.35280	 -1.80027	 28.44013	 -1.02081	 30.71334	704.45898	 22.80	
 16.988	-75.483	 25.81951	 15.88633	  7.90743	 -1.52052	 28.13267	 -1.01856	 30.73851	704.50702	 22.80	
 17.001	-69.690	 25.85044	 17.45641	  6.51172	 -1.15828	 27.64396	 -1.02741	 30.73380	704.48999	 22.80	
 17.002	-63.866	 25.90669	 19.01417	  5.18306	 -0.71892	 26.98458	 -1.06608	 30.73799	704.52600	 22.80	
 17.006	-58.063	 25.97832	 20.52907	  3.96792	 -0.15026	 26.17896	 -1.13696	 30.76204	704.48602	 22.80	
 17.001	-52.301	 26.02175	 21.91459	  2.89908	  0.57329	 25.18214	 -1.18364	 30.72415	704.52899	 22.80	
 17.007	-46.454	 26.05159	 23.23297	  1.87842	  1.42050	 24.05394	 -1.19078	 30.70958	704.51801	 22.80	
 17.014	-40.657	 26.09772	 24.43369	  0.97037	  2.33064	 22.84309	 -1.20071	 30.71055	704.67297	 22.80	
 16.988	-34.839	 26.16532	 25.50146	  0.23335	  3.38405	 21.50763	 -1.23109	 30.71882	704.42999	 22.80	
 16.995	-29.081	 26.18862	 26.38655	 -0.38268	  4.51521	 20.06799	 -1.23962	 30.68395	704.51703	 22.80	
 16.990	-23.241	 26.26937	 27.18682	 -0.90698	  5.76964	 18.56958	 -1.24161	 30.73068	704.37598	 22.80	
 17.000	-17.404	 26.28677	 27.78183	 -1.35947	  7.11733	 16.98815	 -1.25671	 30.71394	704.35101	 22.80	
 17.009	-11.617	 26.29407	 28.18339	 -1.69852	  8.55379	 15.37452	 -1.24438	 30.66873	704.49200	 22.80	
 16.990	 -5.821	 26.37676	 28.50799	 -1.95310	 10.04570	 13.84654	 -1.22143	 30.74169	704.53400	 22.80	
 17.000	  0.000	 26.42570	 28.62385	 -2.10633	 11.60963	 12.26208	 -1.20657	 30.74782	704.43903	 22.80	
 16.990	  5.821	 26.45404	 28.53769	 -2.04344	 13.23269	 10.62738	 -1.19567	 30.72780	704.42999	 22.80	
 17.009	 11.617	 26.47876	 28.30582	 -1.79472	 14.79618	  9.10133	 -1.18581	 30.71469	704.54498	 22.80	
 17.000	 17.404	 26.51046	 27.89930	 -1.49999	 16.36142	  7.68677	 -1.19764	 30.70403	704.54199	 22.80	
 16.990	 23.241	 26.55359	 27.33082	 -1.09398	 17.94064	  6.33399	 -1.23846	 30.70475	704.59302	 22.80	
 16.995	 29.081	 26.58902	 26.62494	 -0.57673	 19.44129	  5.09215	 -1.26006	 30.69357	704.59998	 22.80	
 16.988	 34.839	 26.66497	 25.78959	  0.07284	 20.91537	  3.93632	 -1.29416	 30.72918	704.61798	 22.80	
 17.014	 40.657	 26.64406	 24.73258	  0.81878	 22.26685	  2.82169	 -1.30195	 30.67948	704.64398	 22.80	
 17.007	 46.454	 26.71922	 23.61828	  1.70720	 23.57740	  1.88966	 -1.26302	 30.73847	704.54901	 22.80	
 17.001	 52.301	 26.69633	 22.29419	  2.69928	 24.66637	  1.06208	 -1.23805	 30.66997	704.46600	 22.80	
 17.006	 58.063	 26.71922	 20.92614	  3.79607	 25.66612	  0.34471	 -1.23355	 30.67474	704.63300	 22.80	
 17.002	 63.866	 26.77353	 19.49194	  5.00429	 26.56132	 -0.27798	 -1.24314	 30.71637	704.52899	 22.80	
 17.001	 69.690	 26.73298	 17.93936	  6.31258	 27.23318	 -0.80602	 -1.25314	 30.67844	704.50098	 22.80	
 16.988	 75.483	 26.74555	 16.38402	  7.74863	 27.76084	 -1.07994	 -1.28810	 30.68456	704.56500	 22.80	
 17.012	 81.253	 26.76170	 14.82969	  9.21991	 28.16822	 -1.38873	 -1.31303	 30.73232	704.49799	 22.80	
 16.996	 87.091	 26.74420	 13.21466	 10.81746	 28.33098	 -1.55689	 -1.29913	 30.70537	704.58801	 22.80	
 16.996	 92.909	 26.73668	 11.62199	 12.43519	 28.34869	 -1.51989	 -1.27743	 30.70369	704.55402	 22.80	
 17.008	 98.662	 26.71966	 10.06112	 14.06895	 28.23343	 -1.41453	 -1.26131	 30.72170	704.51398	 22.80	
 16.988	104.517	 26.67196	  8.58506	 15.67377	 27.86985	 -1.12465	 -1.24577	 30.68524	704.50702	 22.80	
 17.001	110.310	 26.65608	  7.18830	 17.28031	 27.41353	 -0.75293	 -1.27194	 30.70230	704.55402	 22.80	
 17.002	116.134	 26.62616	  5.82572	 18.84512	 26.75732	 -0.26664	 -1.31363	 30.71416	704.46997	 22.80	
 17.006	121.937	 26.58049	  4.58793	 20.34164	 25.93161	  0.32513	 -1.32937	 30.69967	704.46198	 22.80	
 17.001	127.699	 26.53374	  3.45294	 21.75336	 24.97222	  1.04718	 -1.36146	 30.70624	704.61298	 22.80	
 17.007	133.546	 26.46551	  2.42905	 23.06670	 23.86347	  1.90232	 -1.35060	 30.70195	704.45001	 22.80	
 17.014	139.343	 26.39957	  1.50004	 24.27875	 22.61997	  2.87310	 -1.35725	 30.71397	704.48297	 22.80	
 16.988	145.161	 26.35200	  0.72596	 25.33647	 21.25982	  3.92838	 -1.33712	 30.71275	704.52899	 22.80	
 16.995	150.919	 26.30777	  0.08253	 26.25950	 19.84981	  5.07672	 -1.35584	 30.74240	704.58502	 22.80	
 16.990	156.759	 26.19970	 -0.47626	 26.96765	 18.29729	  6.35126	 -1.34509	 30.68188	704.64398	 22.80	
 17.000	162.596	 26.16549	 -0.94397	 27.59501	 16.73298	  7.74327	 -1.35792	 30.71988	704.58301	 22.80	
 17.009	168.383	 26.10688	 -1.33149	 28.01011	 15.13883	  9.15362	 -1.37438	 30.71065	704.71100	 22.80	
 16.990	174.179	 26.04469	 -1.56703	 28.25212	 13.56263	 10.69550	 -1.38363	 30.71145	704.51501	 22.80	
 18.709	174.675	 24.97347	 -3.22478	 28.94888	 12.74444	  9.90336	 -1.39142	 30.69447	704.44397	 22.80	
 18.703	169.441	 25.04233	 -3.01119	 28.72939	 14.28524	  8.45452	 -1.43138	 30.69985	704.41302	 22.80	
 18.691	164.085	 25.11827	 -2.64851	 28.36842	 15.91292	  7.01625	 -1.43144	 30.70892	704.52600	 22.80	
 18.706	158.818	 25.16960	 -2.27540	 27.85058	 17.50640	  5.62083	 -1.43573	 30.72247	704.48602	 22.80	
 18.695	153.537	 25.19690	 -1.64802	 27.10830	 18.99361	  4.38641	 -1.43384	 30.65984	704.42102	 22.80	
 18.704	148.255	 25.27411	 -1.11299	 26.30822	 20.45836	  3.25708	 -1.44650	 30.67937	704.38300	 22.80	
 18.698	142.952	 25.35049	 -0.44763	 25.33850	 21.87371	  2.17036	 -1.44441	 30.68182	704.58002	 22.80	
 18.699	137.625	 25.45850	  0.35335	 24.26249	 23.22475	  1.18976	 -1.42391	 30.73309	704.38501	 22.80	
 18.705	132.343	 25.48746	  1.22926	 23.01271	 24.38464	  0.27404	 -1.40082	 30.68530	704.43597	 22.80	
 18.713	127.067	 25.54978	  2.21560	 21.69883	 25.49991	 -0.55409	 -1.38408	 30.70452	704.36603	 22.80	
 18.700	121.794	 25.60261	  3.32764	 20.27309	 26.45645	 -1.24789	 -1.33347	 30.70889	704.49799	 22.80	
 18.698	116.504	 25.67330	  4.52606	 18.80553	 27.29888	 -1.78649	 -1.26650	 30.74092	704.41602	 22.80	
 18.707	111.165	 25.65443	  5.79471	 17.22274	 27.92211	 -2.27597	 -1.17979	 30.68832	704.46997	 22.80	
 18.690	105.863	 25.70057	  7.13062	 15.65852	 28.43714	 -2.66935	 -1.14985	 30.70168	704.59100	 22.80	
 18.696	100.583	 25.73250	  8.55018	 14.07190	 28.80194	 -2.97370	 -1.12566	 30.70820	705.83502	 22.80	
 18.700	 95.309	 25.71714	 10.04672	 12.41124	 28.96686	 -3.21370	 -1.13488	 30.67060	704.45801	 22.80	
 18.700	 90.000	 25.74013	 11.61701	 10.82844	 29.01444	 -3.26300	 -1.19549	 30.66721	704.46198	 22.80	
 18.700	 84.691	 25.79273	 13.22114	  9.26517	 28.94188	 -3.12525	 -1.23597	 30.69491	704.50299	 22.80	
 18.696	 79.417	 25.81658	 14.79193	  7.83454	 28.69917	 -2.85188	 -1.29618	 30.70291	704.33502	 22.80	
 18.690	 74.137	 25.83387	 16.37012	  6.41334	 28.31845	 -2.57038	 -1.35400	 30.72203	704.39600	 22.80	
 18.707	 68.835	 25.80550	 17.92011	  4.95613	 27.76433	 -2.24166	 -1.35504	 30.72108	704.36798	 22.80	
 18.698	 63.496	 25.81740	 19.46005	  3.70025	 27.04183	 -1.71353	 -1.34535	 30.73087	704.48999	 22.80	
 18.700	 58.206	 25.76969	 20.86653	  2.56182	 26.16028	 -1.15331	 -1.37648	 30.69195	704.46997	 22.80	
 18.713	 52.933	 25.73435	 22.23628	  1.48996	 25.16697	 -0.51715	 -1.34997	 30.69277	704.32001	 22.80	
 18.705	 47.657	 25.70152	 23.50807	  0.52058	 24.01294	  0.29007	 -1.34707	 30.65997	704.53699	 22.80	
 18.699	 42.375	 25.68348	 24.68979	 -0.36811	 22.79373	  1.21303	 -1.34562	 30.66673	704.52100	 22.80	
 18.698	 37.048	 25.67646	 25.77480	 -1.14089	 21.48983	  2.17470	 -1.30495	 30.71240	704.51801	 22.80	
 18.704	 31.745	 25.59681	 26.68549	 -1.83319	 20.03557	  3.25048	 -1.24058	 30.67656	704.42200	 22.80	
 18.695	 26.463	 25.56593	 27.47327	 -2.38137	 18.57463	  4.42599	 -1.19467	 30.67398	704.43799	 22.80	
 18.706	 21.182	 25.55184	 28.15554	 -2.84711	 17.10030	  5.65395	 -1.13671	 30.72874	704.48297	 22.80	
 18.691	 15.915	 25.52784	 28.65486	 -3.17581	 15.55282	  6.99134	 -1.14107	 30.74385	704.54901	 22.80	
 18.703	 10.559	 25.46235	 28.99649	 -3.43470	 13.91121	  8.43147	 -1.11169	 30.71406	704.45801	 22.80	
 18.709	  5.325	 25.40092	 29.16986	 -3.64218	 12.36718	  9.84824	 -1.10921	 30.68785	704.44397	 22.80	
 18.700	  0.000	 25.36334	 29.23008	 -3.70183	 10.79609	 11.43505	 -1.12453	 30.69260	704.48297	 22.80	
 18.709	 -5.325	 25.31577	 29.13984	 -3.60331	  9.29165	 13.00593	 -1.15704	 30.69761	704.56799	 22.80	
 18.703	-10.559	 25.32815	 28.95000	 -3.45825	  7.84235	 14.57355	 -1.19108	 30.74487	704.39899	 22.80	
 18.691	-15.915	 25.26794	 28.50854	 -3.08156	  6.36596	 16.18990	 -1.18526	 30.70366	704.42102	 22.80	
 18.706	-21.182	 25.22565	 27.98378	 -2.70132	  5.05290	 17.74337	 -1.21008	 30.71770	704.48297	 22.80	
 18.695	-26.463	 25.17133	 27.26126	 -2.21241	  3.81998	 19.23494	 -1.20951	 30.67550	704.44702	 22.80	
 18.704	-31.745	 25.16422	 26.46819	 -1.66082	  2.64977	 20.73858	 -1.17966	 30.73267	704.38501	 22.80	
 18.698	-37.048	 25.09211	 25.44687	 -0.97281	  1.62801	 22.07713	 -1.16934	 30.68232	704.46100	 22.80	
 18.699	-42.375	 25.07299	 24.35270	 -0.16103	  0.68361	 23.39006	 -1.17152	 30.70352	704.38501	 22.80	
 18.705	-47.657	 25.01711	 23.13067	  0.73269	 -0.16813	 24.58019	 -1.13105	 30.70522	704.40698	 22.80	
 18.713	-52.933	 24.93065	 21.78793	  1.69228	 -0.95885	 25.64153	 -1.08571	 30.67887	704.43903	 22.80	
 18.700	-58.206	 24.88578	 20.40086	  2.71274	 -1.58563	 26.59793	 -1.03199	 30.69832	704.53400	 22.80	
 18.698	-63.496	 24.88249	 18.95991	  3.85457	 -2.15176	 27.43810	 -1.02310	 30.74908	704.45300	 22.80	
 18.707	-68.835	 24.79563	 17.38686	  5.13039	 -2.62821	 28.06890	 -0.98518	 30.70065	704.39899	 22.80	
 18.690	-74.137	 24.74621	 15.79801	  6.50878	 -2.96554	 28.56814	 -0.95384	 30.67675	704.36902	 22.80	
 18.696	-79.417	 24.73588	 14.24897	  7.92203	 -3.25556	 28.97067	 -0.99889	 30.72007	704.42700	 22.80	
 18.700	-84.691	 24.65577	 12.59603	  9.38257	 -3.50040	 29.17011	 -0.97464	 30.69663	704.51801	 22.80	
 18.700	-90.000	 24.62381	 10.97548	 10.93873	 -3.60904	 29.25128	 -0.97283	 30.69043	704.45898	 22.80	
 18.700	-95.309	 24.59179	  9.43425	 12.51293	 -3.53319	 29.16923	 -1.00922	 30.68430	704.46997	 22.80	
 18.696	-100.583	 24.60074	  7.97014	 14.16003	 -3.25245	 28.95790	 -1.07849	 30.70319	704.45801	 22.80	
 18.690	-105.863	 24.60705	  6.58536	 15.73062	 -2.95206	 28.60760	 -1.14898	 30.70360	704.39001	 22.80	
 18.707	-111.165	 24.58865	  5.20413	 17.30010	 -2.57386	 28.09832	 -1.26647	 30.71050	704.42700	 22.80	
 18.698	-116.504	 24.58145	  3.94028	 18.81925	 -2.03398	 27.41150	 -1.31950	 30.69831	704.45502	 22.80	
 18.700	-121.794	 24.59908	  2.81313	 20.26676	 -1.47171	 26.63143	 -1.37094	 30.70149	704.32098	 22.80	
 18.713	-127.067	 24.62531	  1.78590	 21.66316	 -0.83339	 25.69503	 -1.39840	 30.71902	704.32898	 22.80	
 18.705	-132.343	 24.66277	  0.81030	 22.98768	 -0.05720	 24.62160	 -1.39694	 30.72774	704.30103	 22.80	
 18.699	-137.625	 24.69399	 -0.01488	 24.20830	  0.88057	 23.42045	 -1.41227	 30.72847	704.34900	 22.80	
 18.698	-142.952	 24.70517	 -0.74214	 25.29456	  1.84653	 22.12612	 -1.42115	 30.71317	704.38000	 22.80	
 18.704	-148.255	 24.75761	 -1.29621	 26.27633	  2.89761	 20.79447	 -1.41192	 30.72829	704.34100	 22.80	
 18.695	-153.537	 24.78531	 -1.85530	 27.11478	  4.10339	 19.32487	 -1.37255	 30.71997	704.34900	 22.80	
 18.706	-158.818	 24.82770	 -2.36842	 27.83757	  5.38679	 17.81483	 -1.33787	 30.74599	704.45203	 22.80	
 18.691	-164.085	 24.80765	 -2.79386	 28.32278	  6.69731	 16.22060	 -1.31747	 30.68503	704.54199	 22.80	
 18.703	-169.441	 24.87371	 -3.04920	 28.73871	  8.13547	 14.61811	 -1.33613	 30.72775	704.28699	 22.80	
 18.709	-174.675	 24.89684	 -3.26109	 28.94990	  9.60773	 13.03858	 -1.36561	 30.71431	704.37201	 22.80	
 18.700	180.000	 24.93004	 -3.29942	 29.02173	 11.13834	 11.48919	 -1.37958	 30.70934	704.32599	 22.80	
 20.400	180.000	 23.84376	 -4.70704	 29.60766	 10.37158	 10.66317	 -1.29956	 30.72752	704.41101	 22.80	
 20.401	-175.153	 23.78581	 -4.75413	 29.53813	  8.85690	 12.17483	 -1.26910	 30.71799	704.44702	 22.80	
 20.407	-170.264	 23.74500	 -4.61696	 29.35350	  7.37167	 13.76269	 -1.24706	 30.72205	704.39001	 22.80	
 20.410	-165.423	 23.70715	 -4.30786	 28.99697	  6.00749	 15.37199	 -1.23889	 30.72334	704.32599	 22.80	
 20.392	-160.496	 23.68929	 -4.02621	 28.50634	  4.65516	 16.92486	 -1.24960	 30.72985	704.44501	 22.80	
 20.401	-155.705	 23.62851	 -3.66663	 27.86400	  3.38441	 18.38584	 -1.27536	 30.71019	704.57300	 22.80	
 20.405	-150.835	 23.61872	 -3.18002	 27.12637	  2.15449	 19.89552	 -1.31595	 30.74977	704.54602	 22.80	
 20.397	-145.903	 23.59924	 -2.58163	 26.21662	  1.07305	 21.31109	 -1.35452	 30.75768	704.16901	 22.80	
 20.392	-141.062	 23.55914	 -1.94485	 25.23160	  0.13987	 22.60016	 -1.38236	 30.72187	704.34003	 22.80	
 20.396	-136.227	 23.54222	 -1.23026	 24.11948	 -0.75077	 23.86031	 -1.39941	 30.72605	704.39001	 22.80	
 20.408	-131.372	 23.47156	 -0.34864	 22.83567	 -1.66072	 24.98482	 -1.40136	 30.67784	704.35797	 22.80	
 20.410	-126.511	 23.48800	  0.57682	 21.55297	 -2.37571	 26.06385	 -1.39869	 30.71899	704.36499	 22.80	
 20.400	-121.604	 23.45853	  1.52996	 20.13418	 -2.97640	 26.95999	 -1.36235	 30.69554	706.03198	 22.80	
 20.403	-116.741	 23.45998	  2.61228	 18.70366	 -3.58988	 27.79557	 -1.28894	 30.73217	704.40302	 22.80	
 20.413	-111.900	 23.45412	  3.80250	 17.21630	 -4.08068	 28.48688	 -1.19417	 30.74417	704.22998	 22.80	
 20.398	-107.004	 23.43120	  5.10253	 15.64659	 -4.44691	 28.98383	 -1.09360	 30.69382	704.19897	 22.80	
 20.394	-102.132	 23.47380	  6.47042	 14.10624	 -4.77137	 29.43387	 -0.99125	 30.75659	704.29498	 22.80	
 20.403	-97.332	 23.44194	  7.84358	 12.54550	 -5.03464	 29.65193	 -0.92838	 30.71544	704.25598	 22.80	
 20.392	-92.440	 23.46780	  9.32894	 11.00477	 -5.14983	 29.78279	 -0.93967	 30.71899	704.21899	 22.80	
 20.392	-87.560	 23.48919	 10.87719	  9.46288	 -5.13246	 29.77336	 -0.93350	 30.70108	704.37402	 22.80	
 20.403	-82.668	 23.51582	 12.48297	  7.95803	 -5.01247	 29.64966	 -0.92441	 30.70340	704.37598	 22.80	
 20.394	-77.868	 23.55519	 14.06472	  6.49414	 -4.80551	 29.38688	 -0.89364	 30.69110	704.37598	 22.80	
 20.398	-72.996	 23.58750	 15.64587	  5.08883	 -4.52144	 28.98045	 -0.88274	 30.68654	704.41302	 22.80	
 20.413	-68.100	 23.63549	 17.21709	  3.77285	 -4.19164	 28.45508	 -0.88199	 30.70369	704.21899	 22.80	
 20.403	-63.259	 23.69611	 18.73602	  2.54445	 -3.72988	 27.78016	 -0.90474	 30.70411	704.28998	 22.80	
 20.400	-58.396	 23.77288	 20.19616	  1.50488	 -3.13462	 26.98194	 -0.95282	 30.70708	704.31000	 22.80	
 20.410	-53.489	 23.82956	 21.60078	  0.48744	 -2.52067	 26.05824	 -1.00321	 30.70780	704.35498	 22.80	
 20.408	-48.628	 23.87796	 22.93511	 -0.51150	 -1.80581	 25.01110	 -1.03596	 30.71312	704.36499	 22.80	
 20.396	-43.773	 23.92021	 24.16794	 -1.44049	 -0.94413	 23.81198	 -1.08494	 30.69408	704.40002	 22.80	
 20.392	-38.938	 23.99619	 25.33837	 -2.23382	 -0.07211	 22.58449	 -1.07079	 30.73585	704.35498	 22.80	
 20.397	-34.097	 24.02553	 26.34638	 -2.90922	  0.82982	 21.27197	 -1.12307	 30.73405	704.49298	 22.80	
 20.405	-29.165	 24.07231	 27.27534	 -3.51720	  1.89037	 19.85385	 -1.13993	 30.74772	704.42999	 22.80	
 20.401	-24.295	 24.08103	 28.01349	 -4.00417	  3.06505	 18.34436	 -1.13724	 30.70279	704.35797	 22.80	
 20.392	-19.504	 24.14399	 28.66959	 -4.40650	  4.30562	 16.87733	 -1.13696	 30.73999	704.50702	 22.80	
 20.410	-14.577	 24.16780	 29.16225	 -4.77626	  5.58824	 15.31752	 -1.10523	 30.72478	704.53802	 22.80	
 20.407	 -9.736	 24.19795	 29.50913	 -5.06932	  7.02846	 13.71920	 -1.07180	 30.72325	704.39899	 22.80	
 20.401	 -4.847	 24.23438	 29.71037	 -5.15091	  8.50271	 12.14270	 -1.06271	 30.71537	704.50000	 22.80	
 20.400	  0.000	 24.30862	 29.79766	 -5.11667	  9.99803	 10.66894	 -1.04596	 30.72584	705.02100	 22.80	
 20.401	  4.847	 24.30940	 29.71164	 -5.10562	 11.46762	  9.13495	 -1.01426	 30.68260	704.36902	 22.80	
 20.407	  9.736	 24.39833	 29.62635	 -5.01113	 13.04835	  7.68931	 -1.01767	 30.76632	704.40698	 22.80	
 20.410	 14.577	 24.39862	 29.27446	 -4.81041	 14.63600	  6.27044	 -1.03655	 30.72651	704.45502	 22.80	
 20.392	 19.504	 24.40991	 28.76186	 -4.50604	 16.19036	  4.92373	 -1.04676	 30.67735	705.94501	 22.80	
 20.401	 24.295	 24.49466	 28.24396	 -4.10606	 17.69813	  3.70980	 -1.07263	 30.72692	704.42700	 22.80	
 20.405	 29.165	 24.53967	 27.53026	 -3.63311	 19.16500	  2.56796	 -1.14430	 30.73115	706.10797	 22.80	
 20.397	 34.097	 24.56734	 26.63268	 -3.00407	 20.61104	  1.50230	 -1.20085	 30.68977	704.35101	 22.80	
 20.392	 38.938	 24.62374	 25.68128	 -2.35344	 21.97684	  0.52290	 -1.27608	 30.71315	704.48297	 22.80	
 20.396	 43.773	 24.67326	 24.61558	 -1.59643	 23.27168	 -0.39809	 -1.30860	 30.72148	704.43799	 22.80	
 20.408	 48.628	 24.66287	 23.39985	 -0.77260	 24.46255	 -1.28681	 -1.34009	 30.70584	704.48297	 22.80	
 20.410	 53.489	 24.68574	 22.11275	  0.20153	 25.57277	 -2.00940	 -1.38097	 30.72050	704.40002	 22.80	
 20.400	 58.396	 24.70107	 20.71036	  1.29218	 26.55224	 -2.67288	 -1.41906	 30.69583	704.57703	 22.80	
 20.403	 63.259	 24.72680	 19.27009	  2.40565	 27.40413	 -3.25456	 -1.41294	 30.70603	704.53400	 22.80	
 20.413	 68.100	 24.74331	 17.80602	  3.59399	 28.14159	 -3.77529	 -1.38861	 30.72492	704.44702	 22.80	
 20.398	 72.996	 24.75166	 16.26336	  4.88905	 28.72824	 -4.16817	 -1.32704	 30.73652	704.45801	 22.80	
 20.394	 77.868	 24.76262	 14.69742	  6.33162	 29.17094	 -4.41301	 -1.29642	 30.72891	704.48700	 22.80	
 20.403	 82.668	 24.70813	 13.13850	  7.75533	 29.41155	 -4.64251	 -1.19225	 30.68742	704.32599	 22.80	
 20.392	 87.560	 24.77301	 11.63558	  9.26079	 29.64352	 -4.75078	 -1.10639	 30.76969	704.42999	 22.80	
 20.392	 92.440	 24.70534	 10.05846	 10.76327	 29.61290	 -4.78959	 -1.03949	 30.70417	704.74500	 22.80	
 20.403	 97.332	 24.69418	  8.55498	 12.34945	 29.52153	 -4.70498	 -1.00843	 30.72545	704.46100	 22.80	
 20.394	102.132	 24.68368	  7.12394	 13.99654	 29.26335	 -4.40492	 -1.03834	 30.71700	704.43597	 22.80	
 20.398	107.004	 24.65219	  5.74055	 15.56065	 28.87362	 -4.14109	 -1.07342	 30.70701	704.36902	 22.80	
 20.413	111.900	 24.63268	  4.42162	 17.13648	 28.37372	 -3.80365	 -1.09669	 30.73779	704.31000	 22.80	
 20.403	116.741	 24.59617	  3.19591	 18.64254	 27.70936	 -3.31536	 -1.17717	 30.74076	704.45502	 22.80	
 20.400	121.604	 24.55794	  2.04032	 20.11626	 26.91550	 -2.73191	 -1.25639	 30.73167	704.46899	 22.80	
 20.410	126.511	 24.49158	  0.98966	 21.52773	 25.96777	 -2.07393	 -1.32731	 30.71548	704.36603	 22.80	
 20.408	131.372	 24.46723	  0.03787	 22.89673	 24.91165	 -1.27537	 -1.37839	 30.73966	704.36603	 22.80	
 20.396	136.227	 24.41696	 -0.76253	 24.12937	 23.73520	 -0.39357	 -1.42431	 30.72238	704.52600	 22.80	
 20.392	141.062	 24.37215	 -1.51102	 25.27018	 22.51456	  0.48612	 -1.44273	 30.76064	704.50098	 22.80	
 20.397	145.903	 24.24769	 -2.23195	 26.24932	 21.12626	  1.47648	 -1.47184	 30.71948	704.45898	 22.80	
 20.405	150.835	 24.18615	 -2.83499	 27.16208	 19.68866	  2.54631	 -1.48669	 30.72928	704.48602	 22.80	
 20.401	155.705	 24.09438	 -3.40383	 27.91058	 18.15253	  3.68890	 -1.47200	 30.70950	704.58502	 22.80	
 20.392	160.496	 24.05556	 -3.93323	 28.55129	 16.66002	  4.90942	 -1.45028	 30.73443	704.62402	 22.80	
 20.410	165.423	 23.97583	 -4.26666	 29.01849	 15.04679	  6.27112	 -1.41490	 30.71673	704.35699	 22.80	
 20.407	170.264	 23.94354	 -4.58760	 29.37241	 13.49346	  7.72695	 -1.39870	 30.73444	704.49500	 22.80	
 20.401	175.153	 23.87908	 -4.67893	 29.54596	 11.95507	  9.17960	 -1.33713	 30.72282	704.48297	 22.80	
  0.141	 45.000	 30.76704	 16.36378	 15.72281	 15.98146	 16.27153	  0.30575	 30.71392	704.53802	 22.80	
  4.001	128.691	 30.68677	 13.79790	 17.99059	 18.68097	 13.32810	  0.21642	 30.70414	704.38800	 22.80	
  4.002	 76.995	 30.70694	 16.95244	 14.65024	 19.42126	 12.64148	  0.21780	 30.69654	704.52600	 22.80	
  4.002	 25.892	 30.72634	 19.53819	 12.24793	 17.30458	 14.47462	  0.19738	 30.72877	704.67499	 22.80	
  4.002	-25.892	 30.65432	 19.49786	 12.23911	 14.05251	 17.73579	  0.16679	 30.71628	706.22302	 22.80	
  4.002	-76.995	 30.59515	 16.83369	 14.66957	 12.17158	 19.89355	  0.15518	 30.71433	705.56799	 22.80	
  4.001	-128.691	 30.61290	 13.66085	 18.02745	 12.88755	 19.18039	  0.19351	 30.75136	704.54797	 22.80	
  4.000	180.000	 30.66553	 12.39360	 19.50524	 15.66661	 16.15433	  0.21050	 30.74767	704.57599	 22.80	
  8.000	180.000	 29.95268	  8.13988	 22.83809	 14.98838	 15.42773	 -0.24848	 30.76323	704.37701	 22.80	
  7.991	-152.370	 29.83501	  8.78089	 21.88819	 11.59130	 19.02962	 -0.26721	 30.73292	704.46698	 22.80	
  7.997	-124.550	 29.77070	 10.96391	 19.30904	  8.85773	 21.90451	 -0.30154	 30.72599	704.52399	 22.80	
  8.006	-96.837	 29.79298	 14.28369	 15.75122	  7.71978	 23.24811	 -0.40151	 30.73225	704.46899	 22.80	
  7.988	-69.228	 29.84797	 17.92443	 12.22560	  8.10693	 22.75830	 -0.45049	 30.71716	704.53198	 22.80	
  7.997	-41.563	 29.93364	 21.10365	  9.32322	  9.95991	 20.58372	 -0.38449	 30.71653	704.44501	 22.80	
  8.008	-13.821	 30.05195	 22.96994	  7.76956	 13.15792	 17.15980	 -0.34631	 30.73372	704.37201	 22.80	
  8.008	 13.821	 30.15487	 23.01195	  7.73423	 16.68675	 13.59774	 -0.31838	 30.75170	704.54797	 22.80	
  7.997	 41.563	 30.20699	 21.25307	  9.23279	 20.08983	 10.49242	 -0.25518	 30.73863	704.32898	 22.80	
  7.988	 69.228	 30.21474	 18.11811	 12.10104	 22.29119	  8.57047	 -0.22583	 30.71710	704.51501	 22.80	
  8.006	 96.837	 30.19784	 14.56022	 15.63001	 22.82020	  8.25617	 -0.27393	 30.71576	704.31799	 22.80	
  7.997	124.550	 30.17538	 11.25500	 19.26232	 21.50759	  9.42011	 -0.24723	 30.76049	704.40302	 22.80	
  7.991	152.370	 30.04733	  8.95044	 21.87617	 18.56899	 12.10009	 -0.20958	 30.73538	704.42999	 22.80	
 12.009	161.059	 28.67381	  4.26996	 24.99314	 17.61841	 10.75626	 -0.77108	 30.73143	704.37402	 22.80	
 12.013	142.081	 28.78332	  5.78107	 23.07104	 21.10039	  7.51481	 -0.78617	 30.71527	704.39697	 22.80	
 12.006	123.113	 28.94264	  8.32506	 20.11868	 23.78849	  5.28589	 -0.85074	 30.73132	704.48401	 22.80	
 12.007	104.200	 29.01974	 11.62190	 16.48160	 25.34737	  4.09128	 -0.95165	 30.73308	704.34302	 22.80	
 11.989	 85.301	 29.09469	 15.27222	 12.72593	 25.62144	  3.85831	 -0.89976	 30.74294	704.35999	 22.80	
 12.013	 66.294	 29.07857	 19.00035	  9.15651	 24.58953	  4.55752	 -0.73847	 30.73412	704.35498	 22.80	
 12.012	 47.388	 29.03812	 22.24638	  6.22618	 22.33763	  6.28713	 -0.76629	 30.72360	704.28198	 22.80	
 11.990	 28.440	 28.96147	 24.59087	  4.20254	 19.21812	  8.95941	 -0.88343	 30.71902	704.36200	 22.80	
 11.991	  9.464	 28.91493	 25.84093	  3.23553	 15.57393	 12.39936	 -0.94970	 30.75103	704.34802	 22.80	
 11.991	 -9.464	 28.78442	 25.78471	  3.26989	 11.88618	 16.07911	 -0.93013	 30.72239	704.30902	 22.80	
 11.990	-28.440	 28.67792	 24.45469	  4.31267	  8.40194	 19.76508	 -0.93399	 30.72490	704.43103	 22.80	
 12.012	-47.388	 28.53999	 21.97380	  6.34489	  5.72951	 22.84879	 -0.98432	 30.69571	704.32599	 22.80	
 12.013	-66.294	 28.43877	 18.66764	  9.25428	  4.04980	 25.04011	 -1.05595	 30.71879	704.31403	 22.80	
 11.989	-85.301	 28.40952	 14.93556	 12.81801	  3.37428	 26.00128	 -1.06481	 30.74817	704.35699	 22.80	
 12.007	-104.200	 28.31997	 11.21668	 16.56216	  3.59788	 25.68427	 -0.99770	 30.72649	704.35101	 22.80	
 12.006	-123.113	 28.30640	  7.96611	 20.14460	  4.83060	 24.14197	 -0.84002	 30.72662	704.29303	 22.80	
 12.013	-142.081	 28.31886	  5.51634	 23.06474	  7.03926	 21.42762	 -0.83606	 30.68256	704.21100	 22.80	
 12.009	-161.059	 28.45932	  4.14715	 25.00421	 10.29067	 18.02709	 -0.85410	 30.73615	704.32098	 22.80	
 16.000	180.000	 26.58009	 -0.59944	 27.87848	 12.40098	 12.79775	 -1.33772	 30.72294	704.25800	 22.80	
 15.990	-165.604	 26.48927	 -0.19702	 27.36989	  8.74484	 16.49559	 -1.32568	 30.70875	704.35699	 22.80	
 16.002	-151.165	 26.41525	  0.73125	 25.94369	  5.56769	 20.10571	 -1.32539	 30.74904	704.30103	 22.80	
 16.002	-136.836	 26.31762	  2.40808	 23.56683	  2.94893	 23.27742	 -1.25653	 30.73289	704.23401	 22.80	
 15.995	-122.439	 26.24722	  4.80539	 20.45715	  0.92226	 25.76136	 -1.23025	 30.70322	704.30402	 22.80	
 15.993	-107.966	 26.26883	  7.84337	 16.92101	 -0.35074	 27.47108	 -1.28055	 30.74036	704.40802	 22.80	
 16.005	-93.629	 26.29086	 11.34707	 13.11620	 -0.93434	 28.18954	 -1.20138	 30.73758	704.40002	 22.80	
 15.992	-79.234	 26.35455	 15.14782	  9.43242	 -0.74489	 27.94728	 -1.14570	 30.72862	704.37701	 22.80	
 16.009	-64.774	 26.47258	 18.86526	  6.09106	  0.15575	 26.75699	 -1.17011	 30.74204	704.41302	 22.80	
 15.997	-50.364	 26.62139	 22.26564	  3.34262	  1.71391	 24.62923	 -1.21149	 30.74582	704.37201	 22.80	
 15.997	-36.045	 26.72313	 25.03776	  1.25234	  3.96427	 21.73657	 -1.23381	 30.74009	704.35699	 22.80	
 16.000	-21.597	 26.83926	 26.99545	 -0.08438	  6.79700	 18.28746	 -1.25408	 30.73648	704.35498	 22.80	
 16.003	 -7.169	 26.89947	 28.00779	 -0.93575	 10.21237	 14.55139	 -1.24338	 30.72019	704.36798	 22.80	
 16.003	  7.169	 27.02319	 28.07786	 -1.00730	 13.95799	 10.82137	 -1.23094	 30.75241	704.30298	 22.80	
 16.000	 21.597	 27.09681	 27.14112	 -0.27389	 17.65048	  7.39022	 -1.24568	 30.73239	704.43799	 22.80	
 15.997	 36.045	 27.20373	 25.30999	  1.12330	 21.13750	  4.52093	 -1.26713	 30.73260	706.21802	 22.80	
 15.997	 50.364	 27.28046	 22.64009	  3.19323	 24.12481	  2.23527	 -1.17324	 30.74677	705.13898	 22.80	
 16.009	 64.774	 27.28590	 19.31890	  5.91552	 26.29459	  0.59598	 -1.15985	 30.70801	705.64600	 22.80	
 15.992	 79.234	 27.29086	 15.66434	  9.28360	 27.58659	 -0.26521	 -1.28483	 30.71744	705.33099	 22.80	
 16.005	 93.629	 27.28341	 11.92323	 13.00749	 27.90812	 -0.46887	 -1.30781	 30.73698	704.26501	 22.80	
 15.993	107.966	 27.16295	  8.40007	 16.77493	 27.14898	  0.10096	 -1.28638	 30.65067	704.32703	 22.80	
 15.995	122.439	 27.13242	  5.26660	 20.43847	 25.53534	  1.35489	 -1.29953	 30.71747	704.33398	 22.80	
 16.002	136.836	 26.99063	  2.78345	 23.55227	 22.99389	  3.32231	 -1.27091	 30.72335	704.43903	 22.80	
 16.002	151.165	 26.84354	  0.98935	 25.92819	 19.78241	  5.88995	 -1.25632	 30.73051	704.36499	 22.80	
 15.990	165.604	 26.72861	 -0.14655	 27.39242	 16.12741	  9.14561	 -1.29478	 30.73869	704.31799	 22.80	
 20.003	168.362	 24.22232	 -4.14367	 29.11481	 14.18743	  7.41593	 -1.42580	 30.71606	704.55402	 22.80	
 20.008	156.764	 24.35921	 -3.24012	 27.99002	 17.90442	  4.22375	 -1.47082	 30.73019	704.37201	 22.80	
 20.000	145.147	 24.50714	 -1.80119	 26.02294	 21.30769	  1.62179	 -1.46249	 30.69828	704.35699	 22.80	
 19.995	133.545	 24.71257	 -0.03776	 23.45074	 24.32781	 -0.55605	 -1.41141	 30.74653	704.46698	 22.80	
 20.009	121.926	 24.78305	  2.26262	 20.23949	 26.75590	 -2.34026	 -1.27774	 30.70943	704.30298	 22.80	
 20.005	110.327	 24.90940	  5.11502	 16.73552	 28.44616	 -3.54909	 -1.13998	 30.73863	704.26501	 22.80	
 19.989	 98.733	 24.95078	  8.35952	 12.98211	 29.32066	 -4.24489	 -1.03288	 30.70962	704.32397	 22.80	
 19.999	 87.075	 25.01743	 11.95942	  9.31211	 29.48648	 -4.37374	 -1.12570	 30.74127	704.27502	 22.80	
 19.992	 75.457	 25.02888	 15.59706	  5.91882	 28.82710	 -3.89443	 -1.32405	 30.71279	704.88702	 22.80	
 20.009	 63.844	 24.98995	 19.15058	  2.85067	 27.40014	 -2.92800	 -1.40788	 30.69390	704.28900	 22.80	
 19.989	 52.269	 25.01213	 22.48404	  0.33869	 25.28743	 -1.43895	 -1.38302	 30.75683	704.40503	 22.80	
 19.999	 40.602	 24.89347	 25.26979	 -1.74840	 22.42557	  0.53761	 -1.29173	 30.70765	704.24799	 22.80	
 20.004	 29.051	 24.81257	 27.46526	 -3.29824	 19.19807	  2.86660	 -1.15021	 30.73923	704.32397	 22.80	
 20.005	 17.433	 24.67265	 28.88509	 -4.27782	 15.65957	  5.73714	 -1.05256	 30.70026	704.27301	 22.80	
 20.006	  5.780	 24.59803	 29.59862	 -4.75127	 11.94921	  9.06458	 -1.03905	 30.70805	704.28198	 22.80	
 20.006	 -5.780	 24.49263	 29.57284	 -4.79797	  8.44425	 12.61313	 -1.07425	 30.71688	704.35101	 22.80	
 20.005	-17.433	 24.40143	 28.77514	 -4.20753	  5.09739	 16.31597	 -1.13788	 30.71893	704.18799	 22.80	
 20.004	-29.051	 24.32113	 27.19320	 -3.14779	  2.23077	 19.84831	 -1.12654	 30.71773	705.21503	 22.80	
 19.999	-40.602	 24.24923	 24.91947	 -1.61082	 -0.04472	 23.00458	 -1.08525	 30.71719	704.38202	 22.80	
 19.989	-52.269	 24.12472	 21.95220	  0.58621	 -1.99451	 25.74478	 -1.04189	 30.70772	704.21002	 22.80	
 20.009	-63.844	 23.98259	 18.65055	  2.98164	 -3.39319	 27.77576	 -0.92285	 30.70807	704.20001	 22.80	
 19.992	-75.457	 23.90403	 15.02800	  6.03318	 -4.27055	 29.11367	 -0.92252	 30.72835	704.18500	 22.80	
 19.999	-87.075	 23.80126	 11.26570	  9.50105	 -4.73891	 29.64939	 -0.93655	 30.71693	704.14099	 22.80	
 19.989	-98.733	 23.73751	  7.70982	 13.14440	 -4.55912	 29.45173	 -0.96637	 30.70339	704.21600	 22.80	
 20.005	-110.327	 23.72192	  4.50051	 16.79137	 -3.80739	 28.54708	 -1.16061	 30.71324	704.24200	 22.80	
 20.009	-121.926	 23.75734	  1.80487	 20.24903	 -2.58743	 26.85527	 -1.35462	 30.71443	704.22998	 22.80	
 19.995	-133.545	 23.79569	 -0.40828	 23.39970	 -0.91189	 24.47303	 -1.41493	 30.70819	704.16803	 22.80	
 20.000	-145.147	 23.85917	 -2.09338	 25.99866	  1.22286	 21.54821	 -1.38214	 30.72307	704.36499	 22.80	
 20.008	-156.764	 23.93429	 -3.39002	 27.93894	  3.95887	 18.15846	 -1.29036	 30.73779	704.17902	 22.80	
 20.003	-168.362	 24.01382	 -4.12255	 29.10418	  7.07804	 14.53883	 -1.29155	 30.72316	704.09802	 22.80	
 20.000	180.000	 24.12652	 -4.36480	 29.50042	 10.56795	 10.85352	 -1.33048	 30.74690	704.28699	 22.80	
