FileType=PCF
NHL=14
Date=03/06/19	15:34:30
Facility=APL
Serial=16071-12
Customer=NASA
NP=6
Mach=0.230000
Calibration=1:1
CalPts=490
TstPts=95
PortNumbering=AP Standard
Units=Torr C m/s kg/m^3 deg mm 
Theta[deg]	Phi[deg]	P1[Torr]	P2[Torr]	P3[Torr]	P4[Torr]	P5[Torr]	P6[Torr]	Pt[Torr]	Ps[Abs,Torr]	Ts[C]	
  0.000	  0.000	 25.47910	 10.38298	 10.91259	 11.05797	 10.19147	  0.45801	 25.43823	709.63000	 26.50	
  1.691	128.401	 25.47028	  9.47399	 11.72889	 12.09536	  9.08819	  0.41146	 25.44486	709.60999	 26.50	
  1.692	 77.194	 25.47689	 10.61512	 10.57574	 12.39266	  8.81684	  0.47112	 25.43162	709.69000	 26.50	
  1.699	 26.182	 25.48293	 11.58454	  9.66903	 11.64781	  9.54864	  0.51260	 25.42988	709.66998	 26.60	
  1.699	-26.182	 25.47672	 11.61414	  9.66327	 10.44447	 10.75630	  0.48073	 25.43185	709.62000	 26.60	
  1.692	-77.194	 25.48198	 10.68747	 10.57555	  9.73018	 11.50649	  0.42956	 25.42706	709.57001	 26.60	
  1.691	-128.401	 25.49358	  9.53361	 11.75405	  9.97509	 11.22691	  0.37581	 25.45233	709.50000	 26.70	
  1.700	180.000	 25.48243	  8.97370	 12.28795	 11.01903	 10.13845	  0.37172	 25.44890	709.57001	 26.70	
  3.400	180.000	 25.41302	  7.54762	 13.62590	 10.88340	  9.99493	  0.23260	 25.44279	709.46997	 26.70	
  3.388	-152.325	 25.43427	  7.88967	 13.28386	  9.70694	 11.31522	  0.24876	 25.46358	709.59998	 26.80	
  3.397	-124.529	 25.43170	  8.75966	 12.35091	  8.75496	 12.36673	  0.25929	 25.43869	709.64001	 26.80	
  3.399	-96.763	 25.47390	 10.00397	 11.11550	  8.36859	 12.85850	  0.30969	 25.45411	709.58002	 26.80	
  3.394	-69.283	 25.48108	 11.31380	  9.81419	  8.53599	 12.73449	  0.36981	 25.44695	709.58002	 26.80	
  3.400	-41.398	 25.47996	 12.43696	  8.79401	  9.22637	 11.95399	  0.43320	 25.45204	709.63000	 26.90	
  3.401	-14.021	 25.49255	 13.06930	  8.24612	 10.32204	 10.74250	  0.48554	 25.46067	709.59998	 26.90	
  3.401	 14.021	 25.48801	 13.04423	  8.24318	 11.62856	  9.40840	  0.51291	 25.46783	709.69000	 26.90	
  3.400	 41.398	 25.46899	 12.34951	  8.82662	 12.80870	  8.21442	  0.50611	 25.46422	709.59998	 26.90	
  3.394	 69.283	 25.43757	 11.16842	  9.84098	 13.58839	  7.44771	  0.46341	 25.45307	709.62000	 27.00	
  3.399	 96.763	 25.43644	  9.88125	 11.09123	 13.75059	  7.27480	  0.40717	 25.46548	709.65002	 27.00	
  3.397	124.529	 25.43267	  8.67501	 12.33089	 13.22996	  7.70898	  0.33496	 25.46976	709.65002	 27.00	
  3.388	152.325	 25.43305	  7.83494	 13.28649	 12.14699	  8.73094	  0.28352	 25.47063	709.66998	 27.00	
  5.099	161.165	 25.27338	  6.29251	 14.69534	 12.02014	  8.41411	  0.13381	 25.47360	709.60999	 27.10	
  5.109	142.013	 25.25723	  6.87020	 13.97487	 13.30521	  7.19850	  0.18348	 25.46813	709.63000	 27.10	
  5.095	123.033	 25.27213	  7.81661	 12.89293	 14.30012	  6.38010	  0.23280	 25.47120	709.53998	 27.10	
  5.105	104.191	 25.27596	  9.02098	 11.57680	 14.91586	  5.91241	  0.27781	 25.46941	709.63000	 27.10	
  5.093	 85.207	 25.29935	 10.35051	 10.27145	 15.04065	  5.82680	  0.30089	 25.47777	709.62000	 27.20	
  5.104	 66.290	 25.31662	 11.69794	  9.04316	 14.71361	  6.13946	  0.38333	 25.47140	709.50000	 27.20	
  5.094	 47.331	 25.35905	 12.93352	  8.00383	 13.93005	  6.84280	  0.38596	 25.47503	709.60999	 27.20	
  5.089	 28.397	 25.38304	 13.88336	  7.21482	 12.82810	  7.89049	  0.43437	 25.48899	709.57001	 27.20	
  5.096	  9.576	 25.41798	 14.40010	  6.82644	 11.52962	  9.22606	  0.45544	 25.49690	709.56000	 27.30	
  5.096	 -9.576	 25.42362	 14.42941	  6.83080	 10.17391	 10.60823	  0.42261	 25.48439	709.45001	 27.30	
  5.089	-28.397	 25.43865	 13.98224	  7.23927	  9.01696	 11.92592	  0.38344	 25.48527	709.48999	 27.30	
  5.094	-47.331	 25.43107	 13.10494	  7.98156	  8.03312	 13.07301	  0.31643	 25.48194	709.59998	 27.30	
  5.104	-66.290	 25.42250	 11.91255	  9.01059	  7.33200	 13.85746	  0.25884	 25.47660	709.57001	 27.30	
  5.093	-85.207	 25.42615	 10.56839	 10.26076	  7.05666	 14.14609	  0.23107	 25.49077	709.53998	 27.40	
  5.105	-104.191	 25.40225	  9.19120	 11.65581	  7.10811	 14.03272	  0.15597	 25.48669	709.56000	 27.40	
  5.095	-123.033	 25.37430	  7.97100	 12.93231	  7.54480	 13.45568	  0.12269	 25.48469	709.62000	 27.40	
  5.109	-142.013	 25.35518	  7.00464	 14.01206	  8.36991	 12.46161	  0.17200	 25.48517	709.62000	 27.40	
  5.099	-161.165	 25.32598	  6.36111	 14.71993	  9.46796	 11.17442	  0.17142	 25.48683	709.62000	 27.50	
  5.100	180.000	 25.30993	  6.13539	 14.95505	 10.69599	  9.79137	  0.09318	 25.48116	709.58002	 27.50	
  6.800	180.000	 25.05245	  4.65259	 16.22046	 10.47241	  9.51721	 -0.06069	 25.48763	709.64001	 27.50	
  6.796	-166.229	 25.07339	  4.83109	 16.04881	  9.24296	 10.89125	 -0.05514	 25.48984	709.53003	 27.50	
  6.808	-152.311	 25.10146	  5.28208	 15.54019	  8.07880	 12.23413	 -0.04514	 25.47861	709.65997	 27.50	
  6.795	-138.383	 25.13073	  5.97192	 14.70674	  7.08354	 13.40757	 -0.04049	 25.49117	709.67999	 27.60	
  6.792	-124.591	 25.16320	  6.89447	 13.63835	  6.34322	 14.32784	 -0.01562	 25.48569	709.60999	 27.60	
  6.787	-110.754	 25.20168	  8.03375	 12.38793	  5.85368	 14.99818	 -0.00881	 25.48521	709.63000	 27.60	
  6.800	-96.985	 25.22294	  9.33201	 11.04384	  5.60238	 15.35937	 -0.00304	 25.49231	709.60999	 27.60	
  6.800	-83.015	 25.24573	 10.68312	  9.74098	  5.62505	 15.38054	  0.02675	 25.49373	709.63000	 27.60	
  6.787	-69.246	 25.26809	 12.02653	  8.50856	  5.93699	 15.02432	  0.06039	 25.50581	709.63000	 27.70	
  6.792	-55.409	 25.25497	 13.24845	  7.43411	  6.47453	 14.39810	  0.10195	 25.49294	709.63000	 27.70	
  6.795	-41.617	 25.26912	 14.29170	  6.56183	  7.24083	 13.50698	  0.12383	 25.49166	709.63000	 27.70	
  6.808	-27.689	 25.26872	 15.12999	  5.89674	  8.22554	 12.33804	  0.22558	 25.49302	709.73999	 27.70	
  6.796	-13.771	 25.24349	 15.61354	  5.48901	  9.39626	 11.00991	  0.26962	 25.49593	709.70001	 27.70	
  6.800	  0.000	 25.22828	 15.73752	  5.34929	 10.63626	  9.66792	  0.22783	 25.48972	709.64001	 27.80	
  6.796	 13.771	 25.19979	 15.51740	  5.47451	 11.97485	  8.28367	  0.25198	 25.48326	709.70001	 27.80	
  6.808	 27.689	 25.17139	 15.00017	  5.88984	 13.23460	  7.04006	  0.29987	 25.49152	709.56000	 27.80	
  6.795	 41.617	 25.14976	 14.11768	  6.55660	 14.38424	  6.00735	  0.23717	 25.47918	709.65997	 27.80	
  6.792	 55.409	 25.11411	 12.99400	  7.44636	 15.30232	  5.32466	  0.22223	 25.47692	709.65997	 27.80	
  6.787	 69.246	 25.10156	 11.71913	  8.52932	 15.97921	  4.77672	  0.20790	 25.49647	709.66998	 27.90	
  6.800	 83.015	 25.06658	 10.38503	  9.71282	 16.30963	  4.42760	  0.14381	 25.48141	709.65002	 27.90	
  6.800	 96.985	 25.05338	  9.03187	 11.00899	 16.28982	  4.32945	  0.12794	 25.49388	709.59998	 27.90	
  6.787	110.754	 25.04478	  7.80325	 12.34224	 15.92062	  4.60904	  0.08944	 25.49516	709.71002	 27.90	
  6.792	124.591	 25.03203	  6.70177	 13.59884	 15.23547	  5.09502	  0.04654	 25.49394	709.65997	 27.90	
  6.795	138.383	 25.03162	  5.82175	 14.67768	 14.27421	  5.90907	  0.02024	 25.49848	709.63000	 28.00	
  6.808	152.311	 25.02936	  5.17017	 15.52082	 13.09996	  6.93028	 -0.01684	 25.49299	709.65002	 28.00	
  6.796	166.229	 25.05862	  4.80227	 16.04683	 11.79060	  8.15669	 -0.05435	 25.51140	709.60999	 28.00	
  8.491	168.704	 24.68673	  3.27771	 17.28036	 11.50119	  7.79908	 -0.34200	 25.49201	709.69000	 28.00	
  8.502	157.493	 24.67082	  3.55874	 16.84673	 12.84784	  6.53432	 -0.27959	 25.49088	709.72998	 28.00	
  8.494	146.194	 24.65590	  4.05675	 16.12759	 14.12119	  5.39495	 -0.23798	 25.50151	709.70001	 28.10	
  8.495	135.039	 24.67546	  4.78053	 15.18945	 15.24402	  4.50963	 -0.22438	 25.51170	709.78998	 28.10	
  8.487	123.723	 24.67537	  5.70676	 14.03542	 16.21232	  3.80975	 -0.21791	 25.49735	709.73999	 28.10	
  8.492	112.575	 24.66195	  6.76912	 12.77324	 16.92073	  3.28699	 -0.15478	 25.48703	709.64001	 28.10	
  8.510	101.220	 24.67150	  8.00172	 11.39033	 17.38803	  2.96137	 -0.11424	 25.48429	709.71997	 28.10	
  8.500	 90.000	 24.70674	  9.33946	 10.04991	 17.55735	  2.86092	 -0.09870	 25.49420	709.62000	 28.10	
  8.510	 78.780	 24.74552	 10.72343	  8.79400	 17.44709	  2.97661	 -0.08836	 25.50964	709.64001	 28.10	
  8.492	 67.425	 24.75680	 12.09851	  7.57674	 17.01406	  3.32998	 -0.04122	 25.49242	709.65002	 28.10	
  8.487	 56.277	 24.78458	 13.39608	  6.47075	 16.32756	  3.91943	  0.01103	 25.49066	709.59998	 28.20	
  8.495	 44.961	 24.83042	 14.58927	  5.52274	 15.40467	  4.68929	  0.02464	 25.49678	709.72998	 28.20	
  8.494	 33.806	 24.85512	 15.57614	  4.81851	 14.30598	  5.49094	  0.01809	 25.49283	709.77002	 28.20	
  8.502	 22.507	 24.88586	 16.34477	  4.27890	 13.03663	  6.63367	  0.03057	 25.48481	709.64001	 28.20	
  8.491	 11.296	 24.92593	 16.78373	  3.97573	 11.71567	  7.92283	  0.04120	 25.49802	709.71997	 28.20	
  8.500	  0.000	 24.94669	 16.97353	  3.85171	 10.35037	  9.30983	  0.00820	 25.49485	709.70001	 28.20	
  8.491	-11.296	 24.97488	 16.86712	  3.99030	  9.08932	 10.72378	 -0.01537	 25.49975	709.53998	 28.20	
  8.502	-22.507	 24.97349	 16.45720	  4.30408	  7.85576	 12.09336	 -0.04742	 25.49558	709.59003	 28.30	
  8.494	-33.806	 24.99721	 15.76003	  4.83965	  6.75247	 13.36034	 -0.08484	 25.50103	709.69000	 28.30	
  8.495	-44.961	 25.01673	 14.84472	  5.57236	  5.83513	 14.44902	 -0.13556	 25.51050	709.58002	 28.30	
  8.487	-56.277	 25.00320	 13.75793	  6.45492	  5.13932	 15.39843	 -0.14806	 25.51264	709.71002	 28.30	
  8.492	-67.425	 25.00996	 12.50568	  7.54498	  4.60580	 16.09333	 -0.20593	 25.51802	709.64001	 28.30	
  8.510	-78.780	 24.97669	 11.10890	  8.79448	  4.21550	 16.53562	 -0.24017	 25.50373	709.60999	 28.40	
  8.500	-90.000	 24.94889	  9.72065	 10.10081	  4.10299	 16.66001	 -0.27092	 25.48219	709.58002	 28.40	
  8.510	-101.220	 24.93730	  8.37296	 11.44375	  4.17971	 16.53038	 -0.28740	 25.50805	709.59998	 28.40	
  8.492	-112.575	 24.91115	  7.08536	 12.82311	  4.48003	 16.06000	 -0.27426	 25.50376	709.57001	 28.40	
  8.487	-123.723	 24.86028	  5.96590	 14.07673	  4.96246	 15.33292	 -0.28113	 25.49214	709.66998	 28.40	
  8.495	-135.039	 24.83521	  4.99287	 15.23151	  5.69886	 14.39570	 -0.29108	 25.50558	709.65997	 28.40	
  8.494	-146.194	 24.78971	  4.22512	 16.16917	  6.59723	 13.27891	 -0.29948	 25.49442	709.52002	 28.50	
  8.502	-157.493	 24.76163	  3.65711	 16.89817	  7.68803	 12.00060	 -0.29445	 25.50006	709.50000	 28.50	
  8.491	-168.704	 24.72565	  3.31046	 17.30695	  8.90214	 10.61997	 -0.31627	 25.49220	709.53003	 28.50	
  8.500	180.000	 24.70469	  3.13262	 17.47221	 10.18217	  9.16922	 -0.34259	 25.49846	709.58002	 28.50	
 10.200	180.000	 24.24864	  1.67279	 18.58735	  9.81606	  8.77258	 -0.61973	 25.48865	709.67999	 28.50	
 10.191	-170.497	 24.25969	  1.79358	 18.44851	  8.50598	 10.23000	 -0.58788	 25.47403	709.53998	 28.50	
 10.210	-161.034	 24.28195	  2.04782	 18.09960	  7.23615	 11.66567	 -0.56254	 25.47927	709.64001	 28.50	
 10.194	-151.526	 24.32455	  2.51832	 17.48699	  6.11056	 13.00441	 -0.55755	 25.48295	709.67999	 28.50	
 10.190	-142.105	 24.37072	  3.16794	 16.65791	  5.14456	 14.20992	 -0.56820	 25.49153	709.65997	 28.50	
 10.215	-132.646	 24.39578	  3.99381	 15.60824	  4.25428	 15.33912	 -0.56592	 25.47811	709.64001	 28.50	
 10.203	-123.092	 24.42392	  4.99718	 14.40956	  3.55558	 16.29171	 -0.54817	 25.46279	709.66998	 28.50	
 10.192	-113.678	 24.47911	  6.12019	 13.13798	  3.06070	 17.03879	 -0.53502	 25.49286	709.70001	 28.60	
 10.208	-104.249	 24.50201	  7.33416	 11.77242	  2.73893	 17.54468	 -0.55574	 25.48625	709.72998	 28.60	
 10.210	-94.801	 24.55393	  8.68231	 10.40370	  2.58346	 17.81921	 -0.56568	 25.49162	709.76001	 28.60	
 10.210	-85.199	 24.57252	 10.08899	  9.06612	  2.59229	 17.81934	 -0.53117	 25.48546	709.71997	 28.60	
 10.208	-75.751	 24.60527	 11.49611	  7.76003	  2.77885	 17.58617	 -0.49872	 25.50500	709.73999	 28.60	
 10.192	-66.322	 24.60046	 12.84832	  6.51908	  3.13427	 17.08333	 -0.48968	 25.49615	709.78998	 28.60	
 10.203	-56.908	 24.61146	 14.14311	  5.40197	  3.65552	 16.36464	 -0.46962	 25.50705	709.75000	 28.60	
 10.215	-47.354	 24.60718	 15.31824	  4.42188	  4.35099	 15.39195	 -0.43541	 25.50134	709.58002	 28.70	
 10.190	-37.895	 24.61250	 16.32728	  3.68041	  5.25626	 14.28392	 -0.35804	 25.49863	709.60999	 28.70	
 10.194	-28.474	 24.60785	 17.13368	  3.08446	  6.27046	 13.09052	 -0.30289	 25.49918	709.73999	 28.70	
 10.210	-18.966	 24.59492	 17.73399	  2.64077	  7.43897	 11.75127	 -0.28620	 25.50574	709.71002	 28.70	
 10.191	 -9.503	 24.58550	 18.06404	  2.38763	  8.70835	 10.35020	 -0.24366	 25.50491	709.69000	 28.70	
 10.200	  0.000	 24.55259	 18.15221	  2.27822	 10.00247	  8.91190	 -0.19729	 25.49401	709.72998	 28.70	
 10.191	  9.503	 24.51915	 17.97555	  2.37733	 11.36632	  7.49115	 -0.18049	 25.49369	709.71002	 28.70	
 10.210	 18.966	 24.49014	 17.59329	  2.60844	 12.74271	  6.15673	 -0.17346	 25.49782	709.70001	 28.70	
 10.194	 28.474	 24.46324	 16.93140	  3.03407	 14.06590	  4.97418	 -0.20074	 25.50173	709.76001	 28.80	
 10.190	 37.895	 24.43847	 16.05393	  3.67635	 15.28664	  4.01262	 -0.20933	 25.51561	709.70001	 28.80	
 10.215	 47.354	 24.39033	 14.96878	  4.48332	 16.38124	  3.15929	 -0.20233	 25.50365	709.65997	 28.80	
 10.203	 56.908	 24.35876	 13.73205	  5.45802	 17.29941	  2.46864	 -0.21956	 25.50551	709.66998	 28.80	
 10.192	 66.322	 24.33213	 12.40506	  6.58341	 17.99000	  1.96438	 -0.27887	 25.50189	709.65997	 28.80	
 10.208	 75.751	 24.28906	 11.02993	  7.78333	 18.45021	  1.61000	 -0.32683	 25.48829	709.63000	 28.80	
 10.210	 85.199	 24.26272	  9.62650	  9.03030	 18.67130	  1.41189	 -0.34960	 25.48922	709.62000	 28.80	
 10.210	 94.801	 24.24145	  8.22618	 10.35472	 18.65130	  1.42259	 -0.34755	 25.49202	709.53998	 28.80	
 10.208	104.249	 24.21696	  6.93459	 11.73658	 18.38869	  1.57053	 -0.36304	 25.49261	709.62000	 28.90	
 10.192	113.678	 24.20591	  5.75869	 13.10011	 17.87683	  1.91148	 -0.41499	 25.49462	709.62000	 28.90	
 10.203	123.092	 24.18757	  4.67889	 14.38537	 17.13625	  2.40918	 -0.47953	 25.49304	709.59003	 28.90	
 10.215	132.646	 24.18730	  3.72847	 15.58991	 16.18125	  3.11648	 -0.49328	 25.49537	709.63000	 28.90	
 10.190	142.105	 24.18328	  2.96432	 16.61471	 15.04016	  3.98989	 -0.47888	 25.48099	709.66998	 28.90	
 10.194	151.526	 24.19574	  2.36268	 17.45450	 13.82248	  4.95458	 -0.49501	 25.48951	709.70001	 28.90	
 10.210	161.034	 24.19059	  1.97927	 18.06151	 12.49211	  6.10766	 -0.54973	 25.47456	709.64001	 28.90	
 10.191	170.497	 24.23060	  1.76466	 18.44082	 11.12287	  7.41645	 -0.61312	 25.48535	709.69000	 28.90	
 11.899	171.783	 23.68359	  0.26459	 19.53118	 10.70736	  6.97582	 -0.87109	 25.49162	709.66998	 28.90	
 11.890	163.610	 23.65234	  0.45056	 19.19416	 12.06344	  5.66657	 -0.83998	 25.48225	709.67999	 29.00	
 11.889	155.445	 23.63775	  0.75796	 18.64756	 13.39983	  4.53116	 -0.78573	 25.48289	709.70001	 29.00	
 11.909	147.299	 23.62129	  1.21188	 17.92605	 14.69398	  3.47890	 -0.75132	 25.48506	709.59003	 29.00	
 11.902	139.148	 23.62068	  1.86915	 16.99569	 15.91031	  2.52066	 -0.74926	 25.48530	709.67999	 29.00	
 11.894	130.867	 23.62280	  2.68822	 15.89246	 17.01100	  1.70808	 -0.76841	 25.49365	709.78998	 29.00	
 11.897	122.732	 23.64583	  3.63886	 14.68134	 17.94831	  1.05160	 -0.73971	 25.50167	709.72998	 29.00	
 11.903	114.597	 23.65070	  4.69367	 13.37955	 18.69749	  0.55737	 -0.68468	 25.49879	709.76001	 29.00	
 11.893	106.346	 23.67760	  5.86686	 12.01637	 19.26654	  0.21523	 -0.62418	 25.49719	709.84998	 29.00	
 11.892	 98.155	 23.69934	  7.12893	 10.61769	 19.61512	  0.03305	 -0.60781	 25.49652	709.90997	 29.00	
 11.900	 90.000	 23.72611	  8.45136	  9.31000	 19.75867	 -0.05753	 -0.59867	 25.51198	709.84998	 29.10	
 11.892	 81.845	 23.74402	  9.84609	  8.01468	 19.67399	  0.03366	 -0.59979	 25.49931	709.75000	 29.10	
 11.893	 73.654	 23.77581	 11.26189	  6.72504	 19.37898	  0.24196	 -0.57479	 25.50571	709.73999	 29.10	
 11.903	 65.403	 23.81303	 12.66462	  5.52384	 18.86256	  0.58885	 -0.52154	 25.50784	709.78998	 29.10	
 11.897	 57.268	 23.82596	 13.98555	  4.43569	 18.14252	  1.09137	 -0.47617	 25.49350	709.77002	 29.10	
 11.894	 49.133	 23.85149	 15.24070	  3.45734	 17.24631	  1.73937	 -0.44792	 25.49334	709.62000	 29.10	
 11.902	 40.852	 23.89279	 16.38713	  2.61444	 16.18624	  2.55383	 -0.44135	 25.50031	709.64001	 29.10	
 11.909	 32.701	 23.92753	 17.35361	  1.92200	 14.98811	  3.48732	 -0.42639	 25.48291	709.78998	 29.10	
 11.889	 24.555	 23.96678	 18.12474	  1.39156	 13.71290	  4.53758	 -0.42210	 25.47702	709.75000	 29.10	
 11.890	 16.390	 24.01067	 18.71927	  1.00178	 12.36964	  5.70364	 -0.39854	 25.49656	709.84003	 29.10	
 11.899	  8.217	 24.04014	 19.09263	  0.77122	 10.96510	  7.03675	 -0.41289	 25.49206	709.76001	 29.10	
 11.900	  0.000	 24.04862	 19.23953	  0.67022	  9.60562	  8.42587	 -0.42497	 25.48849	709.73999	 29.20	
 11.899	 -8.217	 24.07932	 19.15773	  0.75455	  8.28408	  9.90125	 -0.47342	 25.47586	709.78003	 29.20	
 11.890	-16.390	 24.10168	 18.86718	  1.00294	  6.99042	 11.33689	 -0.51891	 25.48329	709.71997	 29.20	
 11.889	-24.555	 24.11997	 18.36609	  1.38831	  5.79242	 12.70628	 -0.53792	 25.50090	709.67999	 29.20	
 11.909	-32.701	 24.12770	 17.67155	  1.89080	  4.72206	 13.97584	 -0.58152	 25.49336	709.70001	 29.20	
 11.902	-40.852	 24.12028	 16.76641	  2.53713	  3.74519	 15.17575	 -0.64949	 25.48573	709.73999	 29.20	
 11.894	-49.133	 24.13567	 15.67033	  3.37142	  2.90993	 16.29885	 -0.69822	 25.49030	709.78998	 29.20	
 11.897	-57.268	 24.12603	 14.44711	  4.35881	  2.22638	 17.21988	 -0.72653	 25.48520	709.72998	 29.20	
 11.903	-65.403	 24.12086	 13.15672	  5.44594	  1.69776	 17.95951	 -0.72532	 25.48118	709.79999	 29.20	
 11.893	-73.654	 24.10342	 11.77897	  6.67591	  1.34646	 18.49744	 -0.73095	 25.47020	709.69000	 29.20	
 11.892	-81.845	 24.10308	 10.36354	  7.98033	  1.12333	 18.83744	 -0.76018	 25.48833	709.77002	 29.20	
 11.900	-90.000	 24.07129	  8.95802	  9.31316	  1.02168	 18.94814	 -0.77342	 25.48645	709.70001	 29.30	
 11.892	-98.155	 24.03783	  7.59966	 10.65929	  1.10384	 18.81702	 -0.78723	 25.47767	709.71002	 29.30	
 11.893	-106.346	 24.00947	  6.30301	 12.03224	  1.29996	 18.47878	 -0.76810	 25.47643	709.70001	 29.30	
 11.903	-114.597	 23.98591	  5.09679	 13.40776	  1.65555	 17.92739	 -0.75513	 25.48852	709.75000	 29.30	
 11.897	-122.732	 23.94282	  4.00317	 14.70773	  2.18703	 17.17095	 -0.74910	 25.49211	709.75000	 29.30	
 11.894	-130.867	 23.89683	  3.01222	 15.91257	  2.84939	 16.22297	 -0.77256	 25.48222	709.21002	 29.30	
 11.902	-139.148	 23.84307	  2.13247	 17.01889	  3.63136	 15.09800	 -0.80020	 25.47405	709.76001	 29.30	
 11.909	-147.299	 23.81128	  1.40531	 17.95982	  4.56647	 13.90323	 -0.78539	 25.48564	709.84998	 29.30	
 11.889	-155.445	 23.79990	  0.88958	 18.69366	  5.63265	 12.62259	 -0.76981	 25.49905	709.79999	 29.30	
 11.890	-163.610	 23.75439	  0.51237	 19.22916	  6.80111	 11.24636	 -0.77143	 25.48899	709.06000	 29.30	
 11.899	-171.783	 23.72306	  0.26414	 19.55317	  8.06219	  9.78285	 -0.82690	 25.48863	709.44000	 29.30	
 11.900	180.000	 23.69384	  0.21536	 19.64465	  9.37307	  8.34984	 -0.87054	 25.47572	709.79999	 29.40	
 13.600	180.000	 23.03389	 -1.29457	 20.63375	  8.84390	  7.85573	 -1.05408	 25.46326	709.73999	 29.40	
 13.608	-172.853	 23.05666	 -1.23157	 20.55265	  7.55541	  9.23451	 -1.00383	 25.47382	709.52002	 29.40	
 13.611	-165.583	 23.07154	 -1.04598	 20.26137	  6.25161	 10.71896	 -0.95247	 25.45943	709.34998	 29.40	
 13.601	-158.353	 23.10512	 -0.69846	 19.77292	  5.06115	 12.13586	 -0.93227	 25.45176	709.83002	 29.40	
 13.609	-151.210	 23.14603	 -0.25720	 19.10669	  3.98595	 13.46677	 -0.92987	 25.45513	709.02002	 29.40	
 13.611	-143.999	 23.18440	  0.34846	 18.25821	  2.98731	 14.74763	 -0.93512	 25.45480	709.32001	 29.40	
 13.601	-136.825	 23.21942	  1.11704	 17.25577	  2.14992	 15.93464	 -0.91818	 25.44988	709.79999	 29.40	
 13.596	-129.640	 23.28085	  1.97013	 16.15047	  1.34318	 17.01231	 -0.90615	 25.45389	709.26001	 29.40	
 13.611	-122.431	 23.30176	  2.93418	 14.89591	  0.62593	 17.94294	 -0.87465	 25.43767	709.84998	 29.40	
 13.604	-115.211	 23.34064	  4.03315	 13.56412	  0.06593	 18.72822	 -0.86943	 25.44422	709.65997	 29.40	
 13.595	-108.042	 23.39281	  5.20745	 12.23536	 -0.28029	 19.31890	 -0.88226	 25.45062	709.77002	 29.50	
 13.607	-100.793	 23.40375	  6.45755	 10.84054	 -0.52410	 19.71745	 -0.90730	 25.43680	709.04999	 29.50	
 13.601	-93.617	 23.43557	  7.79521	  9.49054	 -0.62029	 19.92967	 -0.91789	 25.43748	709.70001	 29.50	
 13.601	-86.383	 23.47061	  9.19227	  8.12960	 -0.55867	 19.93695	 -0.92357	 25.45214	709.03998	 29.50	
 13.607	-79.207	 23.48904	 10.60013	  6.79256	 -0.46998	 19.74874	 -0.90368	 25.44836	709.15002	 29.50	
 13.595	-71.958	 23.48928	 12.01583	  5.51595	 -0.21122	 19.34198	 -0.89138	 25.43550	709.03998	 29.50	
 13.604	-64.789	 23.49740	 13.37034	  4.35605	  0.16363	 18.76099	 -0.89570	 25.43565	709.29999	 29.50	
 13.611	-57.569	 23.51143	 14.68716	  3.28877	  0.70074	 18.00064	 -0.90513	 25.43092	709.25000	 29.50	
 13.596	-50.360	 23.51401	 15.91963	  2.32136	  1.43008	 17.05968	 -0.88912	 25.42646	709.76001	 29.50	
 13.601	-43.175	 23.49793	 17.03349	  1.46464	  2.23969	 15.99560	 -0.85430	 25.42496	709.07001	 29.50	
 13.611	-36.001	 23.48742	 18.00061	  0.72117	  3.14570	 14.79344	 -0.81176	 25.40820	709.29999	 29.60	
 13.609	-28.790	 23.47408	 18.81770	  0.13944	  4.14841	 13.53336	 -0.79080	 25.40875	709.83002	 29.60	
 13.601	-21.647	 23.48624	 19.45739	 -0.29531	  5.24806	 12.22452	 -0.75935	 25.43545	709.13000	 29.60	
 13.611	-14.417	 23.45948	 19.90525	 -0.62817	  6.45479	 10.80305	 -0.73566	 25.42259	709.48999	 29.60	
 13.608	 -7.147	 23.44303	 20.15770	 -0.80501	  7.76912	  9.33442	 -0.69999	 25.41983	709.73999	 29.60	
 13.600	  0.000	 23.41486	 20.20591	 -0.88148	  9.09746	  7.93389	 -0.66678	 25.42664	709.45001	 29.60	
 13.608	  7.147	 23.39508	 20.09334	 -0.81739	 10.43857	  6.55564	 -0.65317	 25.42290	709.02002	 29.60	
 13.611	 14.417	 23.35221	 19.75485	 -0.64460	 11.85845	  5.20090	 -0.63404	 25.41401	709.03998	 29.60	
 13.601	 21.647	 23.33325	 19.22622	 -0.35160	 13.24097	  4.03011	 -0.65314	 25.43609	708.96002	 29.60	
 13.609	 28.790	 23.29800	 18.51244	  0.10798	 14.55220	  2.95785	 -0.67401	 25.43241	709.15002	 29.60	
 13.611	 36.001	 23.25725	 17.63425	  0.72815	 15.82590	  1.94360	 -0.68537	 25.44643	708.97998	 29.60	
 13.601	 43.175	 23.22109	 16.59538	  1.50063	 16.96696	  1.05720	 -0.69139	 25.44328	709.78998	 29.60	
 13.596	 50.360	 23.19472	 15.43612	  2.38415	 18.00286	  0.31906	 -0.71889	 25.45887	709.78003	 29.60	
 13.611	 57.569	 23.15515	 14.15662	  3.36008	 18.90040	 -0.33173	 -0.76323	 25.45163	709.83002	 29.60	
 13.604	 64.789	 23.12432	 12.80684	  4.41473	 19.62024	 -0.81519	 -0.79993	 25.45358	709.78998	 29.70	
 13.595	 71.958	 23.09992	 11.42972	  5.55555	 20.16856	 -1.15511	 -0.84610	 25.45959	709.72998	 29.70	
 13.607	 79.207	 23.07237	  9.99951	  6.80304	 20.54348	 -1.40544	 -0.87682	 25.44933	709.06000	 29.70	
 13.601	 86.383	 23.05356	  8.59010	  8.13434	 20.70871	 -1.49588	 -0.88346	 25.46936	709.02002	 29.70	
 13.601	 93.617	 23.02171	  7.21210	  9.45736	 20.67769	 -1.48723	 -0.88640	 25.46463	709.65997	 29.70	
 13.607	100.793	 23.00895	  5.94046	 10.80938	 20.47269	 -1.35173	 -0.88759	 25.47079	709.48999	 29.70	
 13.595	108.042	 22.98861	  4.71820	 12.20210	 20.04791	 -1.14299	 -0.91706	 25.46448	709.00000	 29.70	
 13.604	115.211	 22.96990	  3.58100	 13.55383	 19.45136	 -0.82389	 -0.95333	 25.46767	709.62000	 29.70	
 13.611	122.431	 22.94470	  2.52877	 14.88143	 18.66398	 -0.35566	 -0.99445	 25.45239	709.70001	 29.70	
 13.596	129.640	 22.94792	  1.59233	 16.11911	 17.73680	  0.28703	 -1.03085	 25.46417	709.07001	 29.70	
 13.601	136.825	 22.93785	  0.77209	 17.23508	 16.68910	  1.03967	 -1.01708	 25.46795	709.15997	 29.70	
 13.611	143.999	 22.93876	  0.08158	 18.22313	 15.50130	  1.93060	 -1.01383	 25.46051	709.06000	 29.70	
 13.609	151.210	 22.95204	 -0.46865	 19.06895	 14.21866	  2.93864	 -1.01917	 25.45950	709.09998	 29.70	
 13.601	158.353	 22.97196	 -0.84390	 19.73486	 12.90336	  4.02318	 -1.05593	 25.46576	709.00000	 29.80	
 13.611	165.583	 22.98215	 -1.09910	 20.23064	 11.54867	  5.17169	 -1.08032	 25.46614	709.08002	 29.80	
 13.608	172.853	 23.00233	 -1.25496	 20.51771	 10.17989	  6.50102	 -1.08643	 25.45600	709.09003	 29.80	
 15.298	173.587	 22.27768	 -2.72546	 21.42542	  9.62655	  5.96859	 -1.23905	 25.44975	709.08002	 29.80	
 15.291	167.167	 22.24953	 -2.60585	 21.15369	 10.95624	  4.69044	 -1.25698	 25.45525	709.15997	 29.80	
 15.307	160.676	 22.22712	 -2.38784	 20.72468	 12.31381	  3.51153	 -1.27083	 25.44977	709.00000	 29.80	
 15.300	154.261	 22.20368	 -2.09378	 20.12243	 13.64581	  2.40687	 -1.26850	 25.44404	709.09998	 29.80	
 15.288	147.854	 22.18027	 -1.65659	 19.34753	 14.95245	  1.36916	 -1.25218	 25.44416	709.09003	 29.80	
 15.293	141.428	 22.20578	 -1.05243	 18.44559	 16.21246	  0.43484	 -1.25443	 25.45914	709.15002	 29.80	
 15.299	134.985	 22.20472	 -0.31215	 17.39555	 17.37304	 -0.40703	 -1.26920	 25.44872	709.08002	 29.80	
 15.305	128.583	 22.19728	  0.52029	 16.26693	 18.41786	 -1.14927	 -1.26678	 25.45344	709.14001	 29.80	
 15.309	122.142	 22.20514	  1.43490	 15.02621	 19.34890	 -1.75164	 -1.23926	 25.45303	709.12000	 29.90	
 15.304	115.711	 22.23373	  2.46859	 13.70909	 20.13654	 -2.17123	 -1.20595	 25.46676	709.09998	 29.90	
 15.297	109.291	 22.24687	  3.56172	 12.35860	 20.73295	 -2.43927	 -1.17730	 25.44801	709.17999	 29.90	
 15.293	102.897	 22.25754	  4.74083	 10.99130	 21.17916	 -2.65311	 -1.15540	 25.44367	709.09998	 29.90	
 15.293	 96.458	 22.29204	  6.02714	  9.59184	 21.46983	 -2.80402	 -1.15079	 25.45410	709.15002	 29.90	
 15.300	 90.000	 22.30733	  7.32553	  8.25184	 21.60055	 -2.91809	 -1.16641	 25.45616	709.09003	 29.90	
 15.293	 83.542	 22.33430	  8.72645	  6.89602	 21.53329	 -2.88636	 -1.15483	 25.44685	709.21002	 29.90	
 15.293	 77.103	 22.37077	 10.14517	  5.59876	 21.31367	 -2.74199	 -1.14367	 25.46976	709.21002	 29.90	
 15.297	 70.709	 22.38561	 11.53893	  4.39970	 20.90648	 -2.49629	 -1.10317	 25.45682	709.14001	 29.90	
 15.304	 64.289	 22.42708	 12.90359	  3.32909	 20.36173	 -2.18418	 -1.08074	 25.47735	709.13000	 29.90	
 15.309	 57.858	 22.45459	 14.26407	  2.25743	 19.62241	 -1.74762	 -1.04592	 25.46741	709.07001	 30.00	
 15.305	 51.417	 22.48438	 15.55354	  1.24815	 18.73517	 -1.15048	 -1.00681	 25.46362	709.17999	 30.00	
 15.299	 45.015	 22.52680	 16.74796	  0.35733	 17.72752	 -0.41542	 -0.97741	 25.46574	709.07001	 30.00	
 15.293	 38.572	 22.57187	 17.83008	 -0.34353	 16.60981	  0.39106	 -0.95496	 25.46716	709.10999	 30.00	
 15.288	 32.146	 22.59176	 18.78518	 -0.98202	 15.37824	  1.34872	 -0.94138	 25.44721	709.12000	 30.00	
 15.300	 25.739	 22.63948	 19.60865	 -1.48137	 14.07066	  2.40677	 -0.90670	 25.45362	709.10999	 30.00	
 15.307	 19.324	 22.65516	 20.25435	 -1.86486	 12.72762	  3.47840	 -0.88985	 25.43881	709.09003	 30.00	
 15.291	 12.833	 22.70809	 20.73680	 -2.11905	 11.35087	  4.68775	 -0.87262	 25.44500	709.15002	 30.00	
 15.298	  6.413	 22.73660	 21.05013	 -2.30764	  9.94466	  6.05867	 -0.87468	 25.44708	709.17999	 30.00	
 15.300	  0.000	 22.76135	 21.16100	 -2.34614	  8.59314	  7.43704	 -0.90019	 25.44478	709.12000	 30.00	
 15.298	 -6.413	 22.81118	 21.12233	 -2.26027	  7.25712	  8.85326	 -0.91418	 25.46372	709.15002	 30.00	
 15.291	-12.833	 22.81857	 20.87965	 -2.07324	  5.96077	 10.27969	 -0.92699	 25.44988	709.17999	 30.00	
 15.307	-19.324	 22.82801	 20.49238	 -1.81568	  4.70516	 11.69361	 -0.93674	 25.45125	709.14001	 30.00	
 15.300	-25.739	 22.84922	 19.92772	 -1.42370	  3.59254	 13.06929	 -0.95655	 25.45406	709.03998	 30.00	
 15.288	-32.146	 22.86642	 19.18315	 -0.91798	  2.54189	 14.41458	 -0.96866	 25.44942	709.06000	 30.00	
 15.293	-38.572	 22.87486	 18.28097	 -0.29600	  1.56123	 15.66282	 -0.98756	 25.44975	708.94000	 30.10	
 15.299	-45.015	 22.88567	 17.26482	  0.43681	  0.69022	 16.77879	 -0.99290	 25.43495	708.98999	 30.10	
 15.305	-51.417	 22.87200	 16.12412	  1.22274	 -0.04178	 17.81055	 -1.00057	 25.43505	709.13000	 30.10	
 15.309	-57.858	 22.85116	 14.87773	  2.18266	 -0.67933	 18.73729	 -0.99008	 25.42917	709.07001	 30.10	
 15.304	-64.289	 22.84779	 13.57207	  3.23204	 -1.16739	 19.49471	 -0.98713	 25.43073	709.02002	 30.10	
 15.297	-70.709	 22.83382	 12.20716	  4.36560	 -1.57287	 20.11053	 -0.97716	 25.43674	708.96002	 30.10	
 15.293	-77.103	 22.83939	 10.82395	  5.59815	 -1.85198	 20.56290	 -0.96033	 25.45662	709.00000	 30.10	
 15.293	-83.542	 22.81573	  9.39471	  6.91296	 -2.02380	 20.80350	 -0.96428	 25.43515	709.06000	 30.10	
 15.300	-90.000	 22.79883	  7.99324	  8.26418	 -2.08347	 20.89711	 -0.95504	 25.44017	709.09998	 30.10	
 15.293	-96.458	 22.77090	  6.61382	  9.64088	 -2.04788	 20.79682	 -0.94990	 25.45041	709.07001	 30.10	
 15.293	-102.897	 22.74127	  5.32174	 10.99762	 -1.85638	 20.51724	 -0.94813	 25.43990	709.03998	 30.10	
 15.297	-109.291	 22.71078	  4.10000	 12.36214	 -1.58839	 20.07560	 -0.91868	 25.45038	709.03003	 30.10	
 15.304	-115.711	 22.64969	  2.95339	 13.70472	 -1.23777	 19.44271	 -0.91166	 25.42849	709.03003	 30.10	
 15.309	-122.142	 22.61643	  1.87822	 15.02571	 -0.80174	 18.68106	 -0.91664	 25.43987	709.02002	 30.10	
 15.305	-128.583	 22.58767	  0.91890	 16.27182	 -0.21934	 17.75560	 -0.94140	 25.45103	708.98999	 30.10	
 15.299	-134.985	 22.53765	  0.06571	 17.41598	  0.50677	 16.69291	 -0.96542	 25.43955	709.02002	 30.10	
 15.293	-141.428	 22.49720	 -0.70975	 18.47193	  1.40530	 15.52369	 -0.98539	 25.44863	709.00000	 30.20	
 15.288	-147.854	 22.45453	 -1.35788	 19.39040	  2.42477	 14.23563	 -1.00808	 25.43968	709.01001	 30.20	
 15.300	-154.261	 22.41400	 -1.87829	 20.15599	  3.42203	 12.91919	 -1.00789	 25.44525	709.10999	 30.20	
 15.307	-160.676	 22.36123	 -2.25716	 20.75073	  4.48521	 11.56359	 -1.03972	 25.44033	709.08002	 30.20	
 15.291	-167.167	 22.34528	 -2.49759	 21.18616	  5.70208	 10.12073	 -1.06974	 25.45007	709.07001	 30.20	
 15.298	-173.587	 22.31373	 -2.67561	 21.42068	  6.97868	  8.69474	 -1.13560	 25.44045	709.03003	 30.20	
 15.300	180.000	 22.28899	 -2.76013	 21.49945	  8.28282	  7.30661	 -1.19925	 25.44626	709.00000	 30.20	
 17.000	180.000	 21.47457	 -4.21537	 22.32119	  7.65951	  6.73336	 -1.25798	 25.44860	709.02002	 30.20	
 16.990	-174.179	 21.50538	 -4.11242	 22.25133	  6.38261	  8.11905	 -1.19474	 25.44404	709.01001	 30.20	
 17.009	-168.383	 21.53106	 -3.94887	 22.03567	  5.12128	  9.53313	 -1.11188	 25.45603	709.03003	 30.20	
 17.000	-162.596	 21.55855	 -3.70317	 21.64718	  3.93968	 10.91317	 -1.06745	 25.45437	709.04999	 30.20	
 16.990	-156.759	 21.59282	 -3.39416	 21.08409	  2.80338	 12.28415	 -1.02622	 25.43359	709.02002	 30.20	
 16.995	-150.919	 21.63816	 -2.98650	 20.39413	  1.67885	 13.66874	 -0.98642	 25.44237	709.03003	 30.20	
 16.988	-145.161	 21.66867	 -2.48659	 19.55986	  0.69919	 14.97010	 -0.97420	 25.44741	709.03003	 30.30	
 17.014	-139.343	 21.70367	 -1.83397	 18.62359	 -0.10230	 16.19719	 -0.95439	 25.44384	709.13000	 30.30	
 17.007	-133.546	 21.76446	 -1.03398	 17.53743	 -0.88752	 17.38085	 -0.93043	 25.45396	708.98999	 30.30	
 17.001	-127.699	 21.81984	 -0.13926	 16.35720	 -1.55910	 18.44785	 -0.91244	 25.45721	708.98999	 30.30	
 17.006	-121.937	 21.84354	  0.80536	 15.10692	 -2.09816	 19.35095	 -0.88904	 25.44529	709.03998	 30.30	
 17.002	-116.134	 21.89523	  1.85311	 13.83580	 -2.52622	 20.11906	 -0.88777	 25.44300	709.07001	 30.30	
 17.001	-110.310	 21.94023	  2.98270	 12.47628	 -2.88374	 20.75063	 -0.89200	 25.44498	709.09998	 30.30	
 16.988	-104.517	 21.96429	  4.16169	 11.09973	 -3.15938	 21.21519	 -0.89919	 25.42730	709.10999	 30.30	
 17.008	-98.662	 21.99345	  5.41904	  9.70281	 -3.40603	 21.57054	 -0.90901	 25.44242	709.04999	 30.30	
 16.996	-92.909	 22.01994	  6.76629	  8.35316	 -3.46372	 21.72946	 -0.90277	 25.44659	709.03998	 30.30	
 16.996	-87.091	 22.06383	  8.13298	  7.02745	 -3.45325	 21.74903	 -0.91703	 25.44818	709.10999	 30.30	
 17.012	-81.253	 22.05969	  9.53286	  5.66258	 -3.37670	 21.60294	 -0.92915	 25.44317	709.16998	 30.30	
 16.988	-75.483	 22.09282	 10.94640	  4.39355	 -3.15533	 21.27303	 -0.93860	 25.44538	709.07001	 30.30	
 17.001	-69.690	 22.10153	 12.32039	  3.19279	 -2.85419	 20.80795	 -0.95515	 25.44560	709.15002	 30.30	
 17.002	-63.866	 22.11528	 13.69196	  2.07182	 -2.47425	 20.18963	 -0.97135	 25.44889	709.15997	 30.30	
 17.006	-58.063	 22.13361	 14.99851	  1.09931	 -1.98871	 19.42345	 -0.99464	 25.44844	709.14001	 30.30	
 17.001	-52.301	 22.13952	 16.22893	  0.20758	 -1.38612	 18.53016	 -1.02143	 25.43879	709.09998	 30.40	
 17.007	-46.454	 22.14802	 17.40380	 -0.60200	 -0.68644	 17.51477	 -1.03931	 25.45125	709.07001	 30.40	
 17.014	-40.657	 22.12840	 18.47260	 -1.34226	  0.08843	 16.37199	 -1.04605	 25.44143	709.07001	 30.40	
 16.988	-34.839	 22.13115	 19.40946	 -1.94976	  0.93882	 15.16001	 -1.07513	 25.44257	709.07001	 30.40	
 16.995	-29.081	 22.12741	 20.22872	 -2.47808	  1.93003	 13.87543	 -1.06990	 25.45426	709.09003	 30.40	
 16.990	-23.241	 22.11284	 20.90150	 -2.89605	  3.03959	 12.46028	 -1.08410	 25.45878	709.15002	 30.40	
 17.000	-17.404	 22.09386	 21.41606	 -3.24592	  4.17091	 11.05504	 -1.07232	 25.45740	709.10999	 30.40	
 17.009	-11.617	 22.06728	 21.76951	 -3.51825	  5.35651	  9.64918	 -1.07362	 25.45457	709.09003	 30.40	
 16.990	 -5.821	 22.04569	 21.95539	 -3.66033	  6.66901	  8.23086	 -1.08484	 25.44332	709.10999	 30.40	
 17.000	  0.000	 22.01803	 22.00047	 -3.75036	  7.99226	  6.82239	 -1.07962	 25.45607	709.06000	 30.40	
 16.990	  5.821	 21.98785	 21.89237	 -3.70621	  9.37118	  5.44374	 -1.06896	 25.44549	709.06000	 30.40	
 17.009	 11.617	 21.93503	 21.60279	 -3.53752	 10.71952	  4.13913	 -1.09275	 25.43474	709.00000	 30.40	
 17.000	 17.404	 21.92673	 21.18453	 -3.32082	 12.10296	  2.98254	 -1.09522	 25.45237	708.97998	 30.40	
 16.990	 23.241	 21.89213	 20.56800	 -2.97866	 13.48731	  1.84288	 -1.14323	 25.44780	709.09998	 30.40	
 16.995	 29.081	 21.83993	 19.81486	 -2.56419	 14.82791	  0.73817	 -1.18409	 25.44746	709.09003	 30.50	
 16.988	 34.839	 21.80113	 18.92656	 -2.01950	 16.06719	 -0.23626	 -1.19955	 25.43716	709.12000	 30.50	
 17.014	 40.657	 21.74803	 17.92093	 -1.39696	 17.27134	 -1.14978	 -1.23791	 25.43693	709.03003	 30.50	
 17.007	 46.454	 21.72301	 16.79832	 -0.65559	 18.38605	 -1.93167	 -1.27136	 25.45492	709.03998	 30.50	
 17.001	 52.301	 21.68636	 15.56101	  0.18044	 19.38450	 -2.58599	 -1.31428	 25.45042	709.09998	 30.50	
 17.006	 58.063	 21.63658	 14.27099	  1.08446	 20.22491	 -3.07422	 -1.33842	 25.43546	709.06000	 30.50	
 17.002	 63.866	 21.61727	 12.94476	  2.16436	 20.94317	 -3.43035	 -1.34446	 25.43937	709.08002	 30.50	
 17.001	 69.690	 21.60489	 11.58335	  3.25540	 21.54478	 -3.73769	 -1.36730	 25.44720	709.13000	 30.50	
 16.988	 75.483	 21.58391	 10.19785	  4.42414	 21.97291	 -4.00915	 -1.39667	 25.45354	709.07001	 30.50	
 17.012	 81.253	 21.52797	  8.78578	  5.63433	 22.27007	 -4.21540	 -1.43478	 25.44903	709.09003	 30.50	
 16.996	 87.091	 21.50838	  7.37526	  6.95768	 22.38625	 -4.28376	 -1.45422	 25.44543	709.09003	 30.50	
 16.996	 92.909	 21.49374	  6.02600	  8.33590	 22.36647	 -4.25781	 -1.45371	 25.45491	709.21002	 30.50	
 17.008	 98.662	 21.44936	  4.76919	  9.66212	 22.17716	 -4.15836	 -1.44772	 25.43799	709.14001	 30.50	
 16.988	104.517	 21.44784	  3.54529	 11.07274	 21.83250	 -3.96439	 -1.43998	 25.44758	709.21002	 30.50	
 17.001	110.310	 21.42233	  2.38946	 12.44258	 21.35317	 -3.74583	 -1.43442	 25.45756	709.20001	 30.50	
 17.002	116.134	 21.40638	  1.32005	 13.79185	 20.71763	 -3.47546	 -1.45158	 25.45526	709.10999	 30.50	
 17.006	121.937	 21.36713	  0.29514	 15.07677	 19.93237	 -3.08889	 -1.49250	 25.43624	709.10999	 30.50	
 17.001	127.699	 21.35591	 -0.61360	 16.32082	 19.03856	 -2.54325	 -1.50070	 25.44707	709.16998	 30.50	
 17.007	133.546	 21.34331	 -1.46171	 17.50038	 17.99354	 -1.86619	 -1.49989	 25.42925	709.13000	 30.60	
 17.014	139.343	 21.33434	 -2.21846	 18.57874	 16.84525	 -1.09490	 -1.48607	 25.43637	709.19000	 30.60	
 16.988	145.161	 21.35500	 -2.80002	 19.51444	 15.64993	 -0.17040	 -1.46255	 25.44258	709.10999	 30.60	
 16.995	150.919	 21.35533	 -3.26215	 20.33257	 14.39468	  0.78421	 -1.45950	 25.43976	709.15002	 30.60	
 16.990	156.759	 21.37682	 -3.60416	 21.02174	 13.05093	  1.84138	 -1.44516	 25.42332	709.09998	 30.60	
 17.000	162.596	 21.39329	 -3.88277	 21.58463	 11.69702	  2.95091	 -1.42675	 25.43945	709.07001	 30.60	
 17.009	168.383	 21.40688	 -4.12574	 21.98567	 10.34898	  4.12973	 -1.38418	 25.44396	709.06000	 30.60	
 16.990	174.179	 21.44976	 -4.21555	 22.22336	  9.01701	  5.39383	 -1.33408	 25.43974	709.20001	 30.60	
 18.709	174.675	 20.54000	 -5.60967	 22.96620	  8.34976	  4.80236	 -1.33732	 25.44204	709.13000	 30.60	
 18.703	169.441	 20.50385	 -5.50948	 22.74465	  9.66697	  3.57257	 -1.39434	 25.42468	709.21002	 30.60	
 18.691	164.085	 20.51073	 -5.29003	 22.37809	 10.99089	  2.38893	 -1.46807	 25.43946	709.14001	 30.60	
 18.706	158.818	 20.46472	 -5.04676	 21.86168	 12.34354	  1.25031	 -1.51024	 25.41823	709.15997	 30.60	
 18.695	153.537	 20.46871	 -4.70614	 21.22842	 13.71226	  0.19241	 -1.54227	 25.44182	709.19000	 30.60	
 18.704	148.255	 20.45059	 -4.28511	 20.49542	 14.99835	 -0.78822	 -1.57772	 25.42773	709.06000	 30.60	
 18.698	142.952	 20.45381	 -3.86093	 19.62067	 16.23430	 -1.67664	 -1.60629	 25.43797	709.12000	 30.60	
 18.699	137.625	 20.43717	 -3.28196	 18.61554	 17.44031	 -2.47092	 -1.67109	 25.44257	709.06000	 30.70	
 18.705	132.343	 20.45414	 -2.58394	 17.53601	 18.55057	 -3.17603	 -1.69866	 25.45049	709.16998	 30.70	
 18.713	127.067	 20.46086	 -1.75366	 16.35410	 19.51734	 -3.73481	 -1.72119	 25.45163	709.10999	 30.70	
 18.700	121.794	 20.47703	 -0.85665	 15.11162	 20.41504	 -4.26260	 -1.70830	 25.44183	709.16998	 30.70	
 18.698	116.504	 20.48313	  0.10951	 13.81615	 21.19865	 -4.67702	 -1.68526	 25.44621	709.17999	 30.70	
 18.707	111.165	 20.50269	  1.17112	 12.46947	 21.87004	 -5.01437	 -1.68461	 25.44986	709.21002	 30.70	
 18.690	105.863	 20.53701	  2.30775	 11.10469	 22.38363	 -5.22988	 -1.68918	 25.44923	709.19000	 30.70	
 18.696	100.583	 20.54969	  3.49431	  9.71622	 22.75257	 -5.42048	 -1.69349	 25.43668	709.07001	 30.70	
 18.700	 95.309	 20.57490	  4.73047	  8.33869	 23.00290	 -5.54348	 -1.70631	 25.44942	709.13000	 30.70	
 18.700	 90.000	 20.59455	  6.03114	  7.01385	 23.09657	 -5.59180	 -1.71566	 25.43803	709.16998	 30.70	
 18.700	 84.691	 20.61913	  7.38857	  5.69212	 23.06431	 -5.55583	 -1.69684	 25.44297	709.12000	 30.80	
 18.696	 79.417	 20.65731	  8.78372	  4.44361	 22.87896	 -5.43317	 -1.67752	 25.45317	709.09003	 30.80	
 18.690	 74.137	 20.70113	 10.18855	  3.21927	 22.54313	 -5.19950	 -1.65396	 25.44439	709.22998	 30.80	
 18.707	 68.835	 20.72654	 11.56209	  2.07807	 22.08596	 -4.92685	 -1.62760	 25.44848	709.07001	 30.80	
 18.698	 63.496	 20.76096	 12.94751	  1.00707	 21.48584	 -4.62852	 -1.62752	 25.45572	709.09003	 30.80	
 18.700	 58.206	 20.79234	 14.28792	  0.03417	 20.75228	 -4.27222	 -1.60971	 25.45299	709.19000	 30.80	
 18.713	 52.933	 20.81211	 15.57423	 -0.83708	 19.90978	 -3.86781	 -1.58905	 25.46048	709.26001	 30.80	
 18.705	 47.657	 20.85404	 16.79407	 -1.63447	 18.96234	 -3.32509	 -1.56157	 25.46480	709.14001	 30.80	
 18.699	 42.375	 20.88774	 17.95415	 -2.37306	 17.88008	 -2.59558	 -1.51530	 25.46983	709.15997	 30.80	
 18.698	 37.048	 20.92541	 19.01343	 -3.02547	 16.69372	 -1.75795	 -1.47012	 25.45555	709.14001	 30.80	
 18.704	 31.745	 20.96107	 19.94185	 -3.56735	 15.45527	 -0.81961	 -1.42905	 25.44859	709.17999	 30.80	
 18.695	 26.463	 21.00882	 20.72849	 -4.02221	 14.17316	  0.17456	 -1.39314	 25.44479	709.04999	 30.80	
 18.706	 21.182	 21.02752	 21.41703	 -4.42145	 12.82022	  1.27170	 -1.35696	 25.43951	709.03998	 30.80	
 18.691	 15.915	 21.08420	 21.99093	 -4.70907	 11.44342	  2.39095	 -1.30545	 25.45289	709.02002	 30.80	
 18.703	 10.559	 21.10407	 22.41737	 -4.95608	 10.10335	  3.54427	 -1.26868	 25.45777	709.02002	 30.80	
 18.709	  5.325	 21.12858	 22.66829	 -5.07845	  8.70600	  4.84762	 -1.25475	 25.44091	709.09003	 30.80	
 18.700	  0.000	 21.16345	 22.77688	 -5.11793	  7.34857	  6.20713	 -1.22816	 25.45994	709.13000	 30.80	
 18.709	 -5.325	 21.18842	 22.75104	 -5.04084	  6.04266	  7.59269	 -1.22424	 25.45858	709.15997	 30.80	
 18.703	-10.559	 21.23283	 22.55692	 -4.86707	  4.78990	  8.99732	 -1.20199	 25.46567	709.07001	 30.80	
 18.691	-15.915	 21.26474	 22.23450	 -4.61288	  3.59824	 10.41501	 -1.18464	 25.46104	709.21002	 30.80	
 18.706	-21.182	 21.27715	 21.78262	 -4.32748	  2.44229	 11.79440	 -1.18037	 25.46730	709.19000	 30.80	
 18.695	-26.463	 21.29919	 21.16377	 -3.94896	  1.35471	 13.17804	 -1.15807	 25.45969	709.08002	 30.80	
 18.704	-31.745	 21.30395	 20.43276	 -3.52709	  0.40279	 14.50035	 -1.12893	 25.46953	709.17999	 30.80	
 18.698	-37.048	 21.31263	 19.56365	 -2.99794	 -0.48805	 15.78276	 -1.11362	 25.45592	709.22998	 30.80	
 18.699	-42.375	 21.31290	 18.55990	 -2.35849	 -1.32033	 17.01294	 -1.06440	 25.45732	709.03003	 30.80	
 18.705	-47.657	 21.31139	 17.49591	 -1.63261	 -2.06345	 18.15282	 -1.03789	 25.44906	709.07001	 30.90	
 18.713	-52.933	 21.30289	 16.32508	 -0.83866	 -2.72567	 19.14785	 -1.00721	 25.44787	709.14001	 30.90	
 18.700	-58.206	 21.29664	 15.07247	  0.06222	 -3.25339	 20.01194	 -0.99160	 25.44425	709.17999	 30.90	
 18.698	-63.496	 21.29627	 13.76096	  1.02436	 -3.71637	 20.78129	 -0.97564	 25.44612	709.16998	 30.90	
 18.707	-68.835	 21.26699	 12.37699	  2.08718	 -4.10982	 21.42921	 -0.96080	 25.43939	709.19000	 30.90	
 18.690	-74.137	 21.24795	 11.00247	  3.23408	 -4.38071	 21.92103	 -0.92650	 25.43832	709.09003	 30.90	
 18.696	-79.417	 21.22680	  9.60763	  4.46440	 -4.57215	 22.26909	 -0.90197	 25.43413	709.04999	 30.90	
 18.700	-84.691	 21.20792	  8.21661	  5.73784	 -4.70835	 22.48759	 -0.90475	 25.43306	709.02002	 30.90	
 18.700	-90.000	 21.19231	  6.83864	  7.07113	 -4.74449	 22.56146	 -0.89815	 25.43806	709.12000	 30.90	
 18.700	-95.309	 21.15559	  5.49292	  8.40403	 -4.69586	 22.48670	 -0.87292	 25.44819	709.15002	 30.90	
 18.696	-100.583	 21.13653	  4.21581	  9.74926	 -4.54717	 22.25966	 -0.85876	 25.45091	709.21997	 30.90	
 18.690	-105.863	 21.12008	  3.00861	 11.12948	 -4.31820	 21.87615	 -0.87300	 25.45370	709.03003	 30.90	
 18.707	-111.165	 21.07767	  1.83593	 12.50450	 -4.04832	 21.37913	 -0.87827	 25.45233	709.16998	 30.90	
 18.698	-116.504	 21.04153	  0.74343	 13.87695	 -3.68924	 20.72317	 -0.87272	 25.45383	709.09998	 30.90	
 18.700	-121.794	 20.99795	 -0.26784	 15.14968	 -3.30603	 19.93907	 -0.87237	 25.44945	709.09998	 30.90	
 18.713	-127.067	 20.91650	 -1.21605	 16.37053	 -2.90183	 19.03441	 -0.88759	 25.44346	709.15997	 30.90	
 18.705	-132.343	 20.88153	 -2.08997	 17.55423	 -2.33817	 18.01537	 -0.89028	 25.45183	709.28998	 30.90	
 18.699	-137.625	 20.85473	 -2.88803	 18.68971	 -1.56180	 16.86701	 -0.91932	 25.46635	709.08002	 30.90	
 18.698	-142.952	 20.82198	 -3.56835	 19.68586	 -0.74150	 15.63704	 -0.93571	 25.46655	709.10999	 30.90	
 18.704	-148.255	 20.78637	 -4.12756	 20.54351	  0.11816	 14.35273	 -0.96461	 25.47366	709.09003	 31.00	
 18.695	-153.537	 20.75929	 -4.52703	 21.30413	  1.05203	 13.04390	 -1.00670	 25.47192	709.16998	 30.90	
 18.706	-158.818	 20.73145	 -4.87731	 21.95950	  2.09696	 11.69065	 -1.06805	 25.49610	709.16998	 31.00	
 18.691	-164.085	 20.69750	 -5.14356	 22.44876	  3.26098	 10.30802	 -1.11305	 25.48924	709.09998	 31.00	
 18.703	-169.441	 20.65292	 -5.38988	 22.82052	  4.47957	  8.89651	 -1.18909	 25.48674	709.06000	 31.00	
 18.709	-174.675	 20.62548	 -5.55985	 23.03613	  5.73282	  7.51780	 -1.24752	 25.50116	709.15002	 31.00	
 18.700	180.000	 20.60213	 -5.62482	 23.09245	  7.01137	  6.15709	 -1.31976	 25.49967	709.10999	 31.00	
 20.400	180.000	 19.63512	 -6.87407	 23.71900	  6.32337	  5.49246	 -1.27317	 25.49290	709.04999	 31.00	
 20.401	-175.153	 19.67254	 -6.81590	 23.67332	  5.08227	  6.81604	 -1.20614	 25.50695	709.03003	 31.00	
 20.407	-170.264	 19.70194	 -6.69776	 23.49384	  3.80088	  8.19954	 -1.14091	 25.51032	709.19000	 31.00	
 20.410	-165.423	 19.73960	 -6.52160	 23.17618	  2.59863	  9.57147	 -1.09027	 25.51330	709.10999	 31.00	
 20.392	-160.496	 19.77367	 -6.25894	 22.69938	  1.45929	 10.99241	 -1.04257	 25.50994	709.12000	 31.00	
 20.401	-155.705	 19.80894	 -5.94792	 22.12996	  0.41966	 12.36404	 -0.99806	 25.51859	709.12000	 31.00	
 20.405	-150.835	 19.86724	 -5.54034	 21.44294	 -0.53437	 13.71067	 -0.96040	 25.52279	709.19000	 31.00	
 20.397	-145.903	 19.93174	 -4.99291	 20.63068	 -1.40785	 15.06032	 -0.92114	 25.53687	709.09003	 31.00	
 20.392	-141.062	 19.94631	 -4.45368	 19.69585	 -2.21835	 16.30906	 -0.87634	 25.52716	709.08002	 31.00	
 20.396	-136.227	 19.98479	 -3.82915	 18.70957	 -2.90181	 17.48390	 -0.85765	 25.53930	709.06000	 31.00	
 20.408	-131.372	 20.02492	 -3.13107	 17.62683	 -3.48248	 18.56939	 -0.85269	 25.53939	709.08002	 31.00	
 20.410	-126.511	 20.09160	 -2.30127	 16.44604	 -3.96111	 19.58781	 -0.82652	 25.54850	709.08002	 31.00	
 20.400	-121.604	 20.15142	 -1.38650	 15.20823	 -4.37953	 20.51295	 -0.85125	 25.56023	709.10999	 31.00	
 20.403	-116.741	 20.19942	 -0.40150	 13.91080	 -4.78073	 21.32416	 -0.83601	 25.57040	709.09998	 31.00	
 20.413	-111.900	 20.21591	  0.67141	 12.55237	 -5.12662	 21.97091	 -0.85340	 25.55344	709.06000	 31.00	
 20.398	-107.004	 20.25760	  1.82610	 11.16889	 -5.40290	 22.50685	 -0.84418	 25.55346	709.09998	 31.00	
 20.394	-102.132	 20.31193	  3.03291	  9.80402	 -5.65810	 22.92709	 -0.83521	 25.56651	709.03003	 31.00	
 20.403	-97.332	 20.34644	  4.26913	  8.51103	 -5.76160	 23.19337	 -0.84201	 25.57166	709.09998	 31.00	
 20.392	-92.440	 20.38103	  5.58412	  7.14936	 -5.84140	 23.34322	 -0.85248	 25.57102	709.12000	 31.00	
 20.392	-87.560	 20.40867	  6.93724	  5.77802	 -5.85938	 23.34335	 -0.85816	 25.57204	709.10999	 31.00	
 20.403	-82.668	 20.42461	  8.30830	  4.46338	 -5.79408	 23.23309	 -0.87502	 25.57679	709.12000	 31.00	
 20.394	-77.868	 20.45710	  9.69836	  3.23795	 -5.64236	 22.98411	 -0.89072	 25.59069	709.10999	 31.00	
 20.398	-72.996	 20.44797	 11.04800	  2.05394	 -5.48105	 22.58785	 -0.90833	 25.56792	709.07001	 31.00	
 20.413	-68.100	 20.47997	 12.44232	  0.96166	 -5.23560	 22.08848	 -0.93553	 25.59900	709.10999	 31.00	
 20.403	-63.259	 20.49663	 13.78079	 -0.04388	 -4.90193	 21.44327	 -0.96305	 25.58817	709.15002	 31.00	
 20.400	-58.396	 20.50191	 15.08224	 -0.99001	 -4.49441	 20.68074	 -0.94513	 25.58143	709.21002	 31.00	
 20.410	-53.489	 20.50819	 16.38300	 -1.86236	 -3.99328	 19.79369	 -0.97326	 25.58573	709.19000	 31.00	
 20.408	-48.628	 20.51053	 17.59381	 -2.65336	 -3.38567	 18.77735	 -0.98506	 25.58375	709.27002	 31.00	
 20.396	-43.773	 20.51577	 18.70141	 -3.33123	 -2.70947	 17.69238	 -1.01079	 25.57866	709.28003	 31.00	
 20.392	-38.938	 20.52141	 19.71740	 -3.91110	 -1.94529	 16.45448	 -1.05804	 25.59781	709.25000	 31.00	
 20.397	-34.097	 20.51177	 20.59357	 -4.39626	 -1.11653	 15.19860	 -1.10194	 25.57293	709.23999	 31.00	
 20.405	-29.165	 20.49437	 21.41652	 -4.86445	 -0.21354	 13.87291	 -1.16410	 25.57907	709.22998	 31.00	
 20.401	-24.295	 20.48691	 22.09272	 -5.23852	  0.75679	 12.52763	 -1.19678	 25.58557	709.16998	 31.00	
 20.392	-19.504	 20.47107	 22.64230	 -5.54074	  1.82246	 11.16482	 -1.20799	 25.57988	709.21002	 31.00	
 20.410	-14.577	 20.43140	 23.06389	 -5.82402	  2.96271	  9.77616	 -1.23923	 25.57206	709.16998	 31.00	
 20.407	 -9.736	 20.41440	 23.35539	 -6.05091	  4.16750	  8.38437	 -1.27325	 25.57928	709.09998	 31.00	
 20.401	 -4.847	 20.37377	 23.50512	 -6.22462	  5.44599	  6.94971	 -1.29857	 25.56637	709.07001	 31.00	
 20.400	  0.000	 20.34285	 23.54389	 -6.31414	  6.73270	  5.59353	 -1.32971	 25.56801	709.13000	 31.00	
 20.401	  4.847	 20.30155	 23.43262	 -6.29035	  8.08540	  4.23671	 -1.35962	 25.54944	709.16998	 31.00	
 20.407	  9.736	 20.26195	 23.20138	 -6.18990	  9.48798	  2.90253	 -1.39713	 25.56295	709.28003	 31.00	
 20.410	 14.577	 20.23846	 22.82786	 -6.01407	 10.79664	  1.74931	 -1.45197	 25.56712	709.28003	 31.00	
 20.392	 19.504	 20.19979	 22.28984	 -5.76588	 12.19533	  0.57756	 -1.51635	 25.55968	709.13000	 31.00	
 20.401	 24.295	 20.15228	 21.64654	 -5.46610	 13.52161	 -0.47718	 -1.56411	 25.55219	709.27002	 31.00	
 20.405	 29.165	 20.10611	 20.89775	 -5.05914	 14.84312	 -1.51321	 -1.61186	 25.54368	709.09998	 31.00	
 20.397	 34.097	 20.08120	 20.01773	 -4.57137	 16.14474	 -2.41139	 -1.66511	 25.56240	709.26001	 31.00	
 20.392	 38.938	 20.04284	 19.03212	 -4.01916	 17.35033	 -3.24758	 -1.71287	 25.54898	709.20001	 31.00	
 20.396	 43.773	 20.00257	 17.93475	 -3.37637	 18.49224	 -4.00203	 -1.75736	 25.55951	709.06000	 31.00	
 20.408	 48.628	 19.96772	 16.77205	 -2.65945	 19.52066	 -4.61314	 -1.80101	 25.55853	709.17999	 31.00	
 20.410	 53.489	 19.92811	 15.51311	 -1.89102	 20.44462	 -5.09162	 -1.80714	 25.54744	709.03003	 31.00	
 20.400	 58.396	 19.89956	 14.21018	 -1.04291	 21.27949	 -5.46368	 -1.82119	 25.54110	709.09003	 31.00	
 20.403	 63.259	 19.86763	 12.86949	 -0.13554	 22.02622	 -5.86880	 -1.84701	 25.54848	709.08002	 31.00	
 20.413	 68.100	 19.82624	 11.51980	  0.87402	 22.64393	 -6.19162	 -1.85626	 25.54361	709.08002	 31.00	
 20.398	 72.996	 19.79465	 10.12411	  1.96967	 23.11892	 -6.44190	 -1.86885	 25.53083	709.09003	 31.00	
 20.394	 77.868	 19.77751	  8.75267	  3.13312	 23.47629	 -6.66784	 -1.88590	 25.53613	709.09003	 31.00	
 20.403	 82.668	 19.74431	  7.37549	  4.35849	 23.71548	 -6.85574	 -1.89885	 25.53555	709.21002	 31.00	
 20.392	 87.560	 19.72500	  6.01440	  5.66837	 23.81155	 -6.89693	 -1.89525	 25.54940	709.17999	 31.00	
 20.392	 92.440	 19.69726	  4.71170	  6.97452	 23.78139	 -6.91568	 -1.89751	 25.54893	709.07001	 31.00	
 20.403	 97.332	 19.65610	  3.41060	  8.33931	 23.62884	 -6.85403	 -1.88993	 25.53763	709.15997	 31.00	
 20.394	102.132	 19.62842	  2.22630	  9.69190	 23.34460	 -6.71745	 -1.88946	 25.54379	709.12000	 31.00	
 20.398	107.004	 19.60109	  1.05235	 11.06339	 22.93743	 -6.51491	 -1.89681	 25.54682	709.20001	 31.00	
 20.413	111.900	 19.56008	 -0.07358	 12.42478	 22.38429	 -6.25840	 -1.89343	 25.53947	709.21002	 31.00	
 20.403	116.741	 19.55908	 -1.09494	 13.77656	 21.70616	 -5.87027	 -1.89646	 25.53202	709.23999	 31.00	
 20.400	121.604	 19.56152	 -2.04566	 15.08171	 20.95277	 -5.42585	 -1.90005	 25.54721	709.14001	 31.00	
 20.410	126.511	 19.54669	 -2.91905	 16.33909	 20.05267	 -4.95977	 -1.90404	 25.53636	709.21002	 31.00	
 20.408	131.372	 19.53237	 -3.61842	 17.52097	 19.05984	 -4.44929	 -1.84297	 25.52947	709.14001	 31.00	
 20.396	136.227	 19.53029	 -4.28168	 18.62834	 17.99268	 -3.82852	 -1.81632	 25.54088	709.16998	 31.00	
 20.392	141.062	 19.51354	 -4.82670	 19.63408	 16.82934	 -3.13582	 -1.76273	 25.51606	709.21997	 31.00	
 20.397	145.903	 19.51844	 -5.34320	 20.56494	 15.60053	 -2.34064	 -1.71483	 25.51969	709.17999	 31.00	
 20.405	150.835	 19.51750	 -5.80163	 21.41275	 14.29005	 -1.41891	 -1.67045	 25.52504	709.04999	 31.00	
 20.401	155.705	 19.53305	 -6.17200	 22.10947	 12.97684	 -0.43584	 -1.61979	 25.52418	709.12000	 31.00	
 20.392	160.496	 19.54565	 -6.43408	 22.66146	 11.63683	  0.64759	 -1.56358	 25.51056	709.23999	 31.00	
 20.410	165.423	 19.56654	 -6.68982	 23.14187	 10.22945	  1.80884	 -1.49208	 25.51884	709.21002	 31.00	
 20.407	170.264	 19.59787	 -6.83118	 23.47830	  8.97128	  2.97863	 -1.42248	 25.52696	709.07001	 31.00	
 20.401	175.153	 19.63466	 -6.89557	 23.67463	  7.63716	  4.22556	 -1.36893	 25.52500	709.12000	 31.00	
  0.141	 45.000	 25.57899	 10.47843	 10.86158	 11.25311	 10.08913	  0.42649	 25.51789	709.08002	 31.00	
  4.001	128.691	 25.42728	  8.14707	 12.78436	 13.51939	  7.35449	  0.22243	 25.51512	709.09003	 31.00	
  4.002	 76.995	 25.44861	 10.85845	 10.02539	 14.22112	  6.80369	  0.34748	 25.51829	709.06000	 31.00	
  4.002	 25.892	 25.49596	 13.24596	  7.99255	 12.44089	  8.55866	  0.43340	 25.51051	709.13000	 31.00	
  4.002	-25.892	 25.52973	 13.32161	  7.98077	  9.64112	 11.44221	  0.39477	 25.50686	709.10999	 31.00	
  4.002	-76.995	 25.50383	 11.03809	 10.00572	  8.06084	 13.25740	  0.26050	 25.49845	709.13000	 31.00	
  4.001	-128.691	 25.47687	  8.26919	 12.81691	  8.54733	 12.57334	  0.15640	 25.50296	709.14001	 31.00	
  4.000	180.000	 25.43951	  7.02636	 14.12660	 10.90423	  9.88591	  0.13713	 25.51756	709.15002	 31.00	
  8.000	180.000	 24.81047	  3.54328	 17.10472	 10.30741	  9.25025	 -0.34647	 25.50655	709.14001	 31.00	
  7.991	-152.370	 24.88616	  4.29002	 16.27606	  7.48839	 12.46845	 -0.30096	 25.49546	709.27002	 31.00	
  7.997	-124.550	 24.96339	  6.16591	 14.02017	  5.44171	 14.98042	 -0.28535	 25.51145	709.22998	 31.00	
  8.006	-96.837	 25.04587	  9.02984	 10.95685	  4.61311	 16.24536	 -0.27736	 25.51295	709.09998	 31.00	
  7.988	-69.228	 25.08547	 12.21331	  7.95681	  4.98912	 15.82600	 -0.20905	 25.50428	709.17999	 31.00	
  7.997	-41.563	 25.09420	 14.88668	  5.70221	  6.48671	 13.94404	 -0.11441	 25.51209	709.21002	 31.00	
  8.008	-13.821	 25.05682	 16.44431	  4.47132	  9.00801	 11.03030	 -0.00793	 25.50324	709.20001	 31.00	
  8.008	 13.821	 25.00991	 16.36508	  4.45183	 12.06406	  7.79441	  0.01579	 25.51588	709.16998	 31.00	
  7.997	 41.563	 24.94279	 14.67578	  5.66521	 14.92477	  5.18328	 -0.00557	 25.51584	709.16998	 31.00	
  7.988	 69.228	 24.85277	 11.80167	  7.97878	 16.81156	  3.62515	 -0.07976	 25.50404	709.15997	 31.00	
  8.006	 96.837	 24.78549	  8.63372	 10.88263	 17.18110	  3.28948	 -0.13568	 25.50175	709.17999	 31.00	
  7.997	124.550	 24.75711	  5.90082	 13.96043	 15.92156	  4.18646	 -0.23230	 25.50134	709.14001	 31.00	
  7.991	152.370	 24.75473	  4.14198	 16.23178	 13.38349	  6.25343	 -0.26551	 25.49174	709.06000	 31.00	
 12.009	161.059	 23.59917	  0.38151	 19.09010	 12.51045	  5.21719	 -0.91809	 25.49450	709.15002	 31.10	
 12.013	142.081	 23.57155	  1.50276	 17.36349	 15.53510	  2.77751	 -0.85317	 25.51106	709.14001	 31.10	
 12.006	123.113	 23.58277	  3.47982	 14.73109	 17.96976	  0.98290	 -0.86085	 25.50761	709.10999	 31.10	
 12.007	104.200	 23.61789	  6.10354	 11.60012	 19.46592	  0.04890	 -0.73929	 25.51428	709.12000	 31.10	
 11.989	 85.301	 23.67618	  9.18303	  8.49389	 19.79825	 -0.10233	 -0.72678	 25.50686	709.09003	 31.10	
 12.013	 66.294	 23.71564	 12.47379	  5.53390	 18.97968	  0.42929	 -0.65660	 25.48762	709.22998	 31.10	
 12.012	 47.388	 23.78340	 15.48988	  3.15127	 17.08351	  1.78856	 -0.56024	 25.48021	709.23999	 31.10	
 11.990	 28.440	 23.88942	 17.80345	  1.49990	 14.35606	  3.95025	 -0.53733	 25.48458	709.09003	 31.10	
 11.991	  9.464	 23.97543	 19.07356	  0.67874	 11.18875	  6.76346	 -0.50591	 25.47867	709.22998	 31.10	
 11.991	 -9.464	 24.03425	 19.15943	  0.68167	  8.05644	 10.10683	 -0.58892	 25.48372	709.19000	 31.10	
 11.990	-28.440	 24.08293	 18.08874	  1.52495	  5.23525	 13.32057	 -0.65885	 25.49171	709.25000	 31.10	
 12.012	-47.388	 24.08914	 15.94064	  3.07988	  3.00388	 16.10610	 -0.79266	 25.49333	709.15002	 31.10	
 12.013	-66.294	 24.06980	 13.01648	  5.48924	  1.57918	 18.08755	 -0.82850	 25.48076	709.15002	 31.10	
 11.989	-85.301	 24.05595	  9.74322	  8.49201	  1.02726	 18.96067	 -0.86736	 25.48373	709.21997	 31.10	
 12.007	-104.200	 23.98584	  6.58061	 11.65851	  1.17913	 18.65088	 -0.88130	 25.48925	709.19000	 31.10	
 12.006	-123.113	 23.88381	  3.85892	 14.76861	  2.15961	 17.16350	 -0.85268	 25.45328	709.15002	 31.10	
 12.013	-142.081	 23.77999	  1.75609	 17.39652	  3.88939	 14.68980	 -0.89825	 25.47425	709.16998	 31.10	
 12.009	-161.059	 23.69752	  0.49632	 19.11764	  6.36907	 11.67612	 -0.87491	 25.46619	709.31000	 31.10	
 16.000	180.000	 21.96075	 -3.39218	 21.84503	  8.03810	  7.09088	 -1.30468	 25.46367	709.27002	 31.10	
 15.990	-165.604	 22.01547	 -3.03926	 21.39334	  5.05962	 10.36835	 -1.15366	 25.43880	709.22998	 31.10	
 16.002	-151.165	 22.09673	 -2.23877	 20.04962	  2.47743	 13.59681	 -1.08913	 25.44920	709.25000	 31.10	
 16.002	-136.836	 22.20091	 -0.73171	 17.90034	  0.22823	 16.52354	 -1.03690	 25.44053	709.19000	 31.10	
 15.995	-122.439	 22.30944	  1.36090	 15.15178	 -1.29373	 18.91757	 -0.99108	 25.45111	709.25000	 31.10	
 15.993	-107.966	 22.40793	  3.97284	 12.00613	 -2.19421	 20.50616	 -0.98230	 25.42958	709.15997	 31.10	
 16.005	-93.629	 22.48351	  6.95391	  8.82035	 -2.64744	 21.24498	 -1.00784	 25.46004	709.22998	 31.10	
 15.992	-79.234	 22.52317	 10.21343	  5.68988	 -2.48538	 21.01620	 -1.03722	 25.44071	709.21002	 31.10	
 16.009	-64.774	 22.54073	 13.46533	  2.85829	 -1.76868	 19.88997	 -1.05129	 25.44042	709.31000	 31.10	
 15.997	-50.364	 22.57487	 16.43891	  0.60685	 -0.40345	 17.88236	 -1.10095	 25.43399	709.15002	 31.20	
 15.997	-36.045	 22.54694	 18.86997	 -1.09770	  1.43002	 15.27735	 -1.09746	 25.43336	709.26001	 31.10	
 16.000	-21.597	 22.51444	 20.59720	 -2.23922	  3.92275	 12.15367	 -1.08264	 25.42743	709.23999	 31.20	
 16.003	 -7.169	 22.46266	 21.40470	 -2.83060	  6.78969	  8.84976	 -1.07179	 25.42406	709.19000	 31.20	
 16.003	  7.169	 22.39516	 21.32274	 -2.86823	  9.92110	  5.61484	 -1.03486	 25.42285	709.25000	 31.20	
 16.000	 21.597	 22.31219	 20.29263	 -2.28857	 13.16153	  2.72833	 -1.06695	 25.41035	709.21002	 31.20	
 15.997	 36.045	 22.20244	 18.37664	 -1.14712	 16.19578	  0.27672	 -1.12915	 25.40770	709.22998	 31.20	
 15.997	 50.364	 22.12476	 15.78983	  0.55558	 18.75553	 -1.57856	 -1.19953	 25.41780	709.21997	 31.20	
 16.009	 64.774	 22.03217	 12.72038	  2.94188	 20.63554	 -2.73184	 -1.27064	 25.41226	709.32001	 31.20	
 15.992	 79.234	 21.96523	  9.47375	  5.65140	 21.67138	 -3.33867	 -1.33673	 25.39565	709.23999	 31.20	
 16.005	 93.629	 21.92772	  6.23432	  8.74527	 21.86570	 -3.43601	 -1.36450	 25.42484	709.20001	 31.20	
 15.993	107.966	 21.86924	  3.38069	 11.97406	 21.11167	 -3.03476	 -1.38292	 25.41383	709.16998	 31.20	
 15.995	122.439	 21.82755	  0.87954	 15.09338	 19.53472	 -2.27789	 -1.43050	 25.43095	709.15002	 31.20	
 16.002	136.836	 21.81843	 -1.14085	 17.87053	 17.17451	 -0.71423	 -1.43762	 25.43279	709.20001	 31.20	
 16.002	151.165	 21.83381	 -2.50914	 20.00131	 14.31106	  1.46107	 -1.41793	 25.44266	709.13000	 31.20	
 15.990	165.604	 21.88807	 -3.16297	 21.34728	 11.19306	  4.05300	 -1.40759	 25.43521	709.14001	 31.20	
 20.003	168.362	 19.77214	 -6.46620	 23.14899	  9.56874	  2.70488	 -1.47504	 25.44963	709.14001	 31.20	
 20.008	156.764	 19.71680	 -5.94325	 22.06271	 12.70305	  0.04044	 -1.61590	 25.46718	709.19000	 31.20	
 20.000	145.147	 19.70961	 -4.97398	 20.30459	 15.74976	 -2.20411	 -1.71889	 25.45967	709.25000	 31.20	
 19.995	133.545	 19.71895	 -3.69127	 17.95091	 18.49232	 -3.86449	 -1.83479	 25.46803	709.17999	 31.20	
 20.009	121.926	 19.73057	 -1.83439	 15.13753	 20.72398	 -5.11062	 -1.89546	 25.46523	709.22998	 31.20	
 20.005	110.327	 19.77400	  0.52416	 12.04038	 22.40033	 -6.01105	 -1.88580	 25.47950	709.15002	 31.30	
 19.989	 98.733	 19.84186	  3.26011	  8.84192	 23.35444	 -6.48736	 -1.87903	 25.47493	709.09998	 31.30	
 19.999	 87.075	 19.89563	  6.27571	  5.74495	 23.60136	 -6.58744	 -1.87914	 25.47145	709.14001	 31.30	
 19.992	 75.457	 19.96300	  9.50505	  2.75103	 23.12734	 -6.24295	 -1.85806	 25.46729	709.15997	 31.30	
 20.009	 63.844	 20.03836	 12.73257	  0.21640	 21.94048	 -5.60490	 -1.82395	 25.48714	709.12000	 31.30	
 19.989	 52.269	 20.13528	 15.77418	 -1.79999	 20.08284	 -4.67732	 -1.77292	 25.49369	709.17999	 31.30	
 19.999	 40.602	 20.19286	 18.55033	 -3.52843	 17.67365	 -3.25045	 -1.69080	 25.48475	709.17999	 31.30	
 20.004	 29.051	 20.29082	 20.75142	 -4.78990	 14.80215	 -1.20404	 -1.60385	 25.48536	709.21997	 31.30	
 20.005	 17.433	 20.40218	 22.34036	 -5.58615	 11.65441	  1.31213	 -1.49292	 25.50429	709.13000	 31.30	
 20.006	  5.780	 20.46890	 23.18827	 -6.00903	  8.44599	  4.15934	 -1.38729	 25.48915	709.26001	 31.30	
 20.006	 -5.780	 20.55943	 23.28832	 -5.94441	  5.37255	  7.32778	 -1.30484	 25.51883	709.22998	 31.30	
 20.005	-17.433	 20.60720	 22.62366	 -5.40827	  2.52937	 10.61279	 -1.24001	 25.49440	709.23999	 31.30	
 20.004	-29.051	 20.64459	 21.23696	 -4.60122	  0.07215	 13.81443	 -1.18047	 25.49152	709.25000	 31.30	
 19.999	-40.602	 20.66376	 19.23158	 -3.49656	 -1.92277	 16.75670	 -1.07442	 25.49088	709.09998	 31.30	
 19.989	-52.269	 20.68060	 16.60797	 -1.78608	 -3.56928	 19.38356	 -1.00341	 25.50368	709.19000	 31.30	
 20.009	-63.844	 20.63885	 13.60459	  0.30291	 -4.68092	 21.32617	 -0.96364	 25.50544	709.21002	 31.30	
 19.992	-75.457	 20.62275	 10.41737	  2.84978	 -5.30126	 22.59842	 -0.92314	 25.51306	709.10999	 31.30	
 19.999	-87.075	 20.56697	  7.17360	  5.79333	 -5.59254	 23.12147	 -0.89310	 25.49751	709.17999	 31.30	
 19.989	-98.733	 20.50900	  4.07817	  8.97070	 -5.45694	 22.92030	 -0.87128	 25.51373	709.21002	 31.30	
 20.005	-110.327	 20.43728	  1.27403	 12.13650	 -4.93720	 21.98633	 -0.87786	 25.51096	709.19000	 31.30	
 20.009	-121.926	 20.32014	 -1.19022	 15.23702	 -4.11724	 20.31040	 -0.87097	 25.50220	709.20001	 31.30	
 19.995	-133.545	 20.21156	 -3.18295	 18.03333	 -3.01693	 18.01436	 -0.88255	 25.51242	709.21002	 31.30	
 20.000	-145.147	 20.13144	 -4.67600	 20.37947	 -1.29775	 15.23228	 -0.94619	 25.50761	709.16998	 31.30	
 20.008	-156.764	 20.04382	 -5.74253	 22.15416	  0.86804	 12.11378	 -1.05412	 25.52648	709.23999	 31.30	
 20.003	-168.362	 19.95310	 -6.35328	 23.25282	  3.53300	  8.85890	 -1.17523	 25.51650	709.15997	 31.30	
 20.000	180.000	 19.89544	 -6.60546	 23.60364	  6.51375	  5.64766	 -1.32173	 25.53651	709.21997	 31.30	
