FileType=PCF
NHL=14
Date=03/07/19	10:42:33
Facility=APL
Serial=16071-12
Customer=NASA
NP=6
Mach=0.450000
Calibration=1:1
CalPts=490
TstPts=95
PortNumbering=AP Standard
Units=Torr C m/s kg/m^3 deg mm 
Theta[deg]	Phi[deg]	P1[Torr]	P2[Torr]	P3[Torr]	P4[Torr]	P5[Torr]	P6[Torr]	Pt[Torr]	Ps[Abs,Torr]	Ts[C]	
  0.000	  0.000	 92.23830	 38.47638	 41.05761	 41.55761	 37.99813	  1.10726	 92.03119	711.87000	 37.60	
  1.691	128.401	 92.22112	 35.22084	 44.00562	 45.25938	 33.88604	  0.95486	 92.06116	711.84998	 37.70	
  1.692	 77.194	 92.24242	 39.36861	 39.86010	 46.29059	 32.96890	  1.18308	 92.06892	711.96997	 37.70	
  1.699	 26.182	 92.25408	 43.15828	 36.58042	 43.73310	 35.76729	  1.30097	 92.06081	711.85999	 37.80	
  1.699	-26.182	 92.28542	 43.28295	 36.57110	 39.44690	 40.04477	  1.20404	 92.06647	711.77002	 37.80	
  1.692	-77.194	 92.33220	 39.61863	 39.88815	 36.85416	 42.64211	  1.00382	 92.12273	711.82001	 37.90	
  1.691	-128.401	 92.26498	 35.38860	 44.01630	 37.70431	 41.61528	  0.79399	 92.06336	711.91998	 37.90	
  1.700	180.000	 92.28535	 33.54974	 45.93572	 41.40736	 37.66208	  0.77611	 92.09985	711.84003	 38.00	
  3.400	180.000	 92.00510	 28.26211	 50.66659	 40.96750	 37.30624	  0.30349	 92.08253	711.91998	 38.00	
  3.388	-152.325	 92.13412	 29.52524	 49.50814	 36.61939	 41.88869	  0.30844	 92.14464	711.95001	 38.10	
  3.397	-124.529	 92.17957	 32.74706	 46.23880	 33.13707	 45.76500	  0.37433	 92.11373	711.89001	 38.10	
  3.399	-96.763	 92.27783	 37.12782	 41.77814	 31.35793	 47.75942	  0.53568	 92.16502	711.90997	 38.20	
  3.394	-69.283	 92.34449	 42.05298	 37.16643	 31.99386	 47.14706	  0.75689	 92.19513	711.91998	 38.30	
  3.400	-41.398	 92.33418	 46.12799	 33.13864	 34.90871	 44.18633	  0.98698	 92.16560	711.79999	 38.30	
  3.401	-14.021	 92.32691	 48.25860	 31.01029	 39.07740	 39.80926	  1.19823	 92.17725	711.83002	 38.40	
  3.401	 14.021	 92.30492	 48.16716	 30.99110	 43.79796	 35.02338	  1.28993	 92.20677	711.78003	 38.40	
  3.400	 41.398	 92.22367	 45.74042	 33.26746	 47.96684	 30.87773	  1.22583	 92.18948	711.78003	 38.50	
  3.394	 69.283	 92.18558	 41.56585	 37.16710	 50.61917	 28.25980	  1.09602	 92.24999	711.78003	 38.60	
  3.399	 96.763	 92.13480	 36.68732	 41.79528	 51.06646	 27.72499	  0.88900	 92.24617	711.77002	 38.60	
  3.397	124.529	 92.15218	 32.44223	 46.30781	 49.27851	 29.42619	  0.63201	 92.28621	711.82001	 38.70	
  3.388	152.325	 92.10614	 29.31509	 49.54057	 45.54235	 32.92284	  0.38652	 92.22240	711.84003	 38.70	
  5.099	161.165	 91.52682	 23.66937	 54.80027	 45.09155	 32.15240	 -0.26642	 92.25822	711.82001	 38.80	
  5.109	142.013	 91.49956	 25.74005	 52.13593	 49.60887	 27.81153	 -0.10612	 92.27072	711.81000	 38.80	
  5.095	123.033	 91.50893	 29.25849	 48.22486	 53.04619	 24.47468	  0.16436	 92.25771	711.88000	 38.90	
  5.105	104.191	 91.52124	 33.67175	 43.67087	 55.57476	 22.54722	  0.43162	 92.23951	711.90997	 38.90	
  5.093	 85.207	 91.59672	 38.43420	 38.78237	 56.10867	 22.16573	  0.59449	 92.24470	711.90002	 39.00	
  5.104	 66.290	 91.69762	 43.56246	 34.11618	 55.03617	 23.20651	  0.77981	 92.26149	711.78998	 39.10	
  5.094	 47.331	 91.77959	 47.77681	 30.03179	 51.88026	 25.97372	  0.91674	 92.23041	711.79999	 39.10	
  5.089	 28.397	 91.88874	 51.07715	 27.18778	 48.00248	 29.84262	  0.99695	 92.23571	711.87000	 39.20	
  5.096	  9.576	 91.98698	 53.00354	 25.70520	 43.33180	 34.43203	  1.01256	 92.25998	711.83002	 39.20	
  5.096	 -9.576	 92.10401	 53.14957	 25.68918	 38.47290	 39.39624	  0.88156	 92.28729	711.88000	 39.30	
  5.089	-28.397	 92.14474	 51.55194	 27.14670	 33.95072	 44.17438	  0.73869	 92.29143	711.94000	 39.30	
  5.094	-47.331	 92.16560	 48.43494	 30.00537	 29.98824	 48.46003	  0.50762	 92.29969	711.88000	 39.30	
  5.104	-66.290	 92.15066	 44.32580	 34.10653	 27.37946	 51.37395	  0.30219	 92.28230	711.88000	 39.40	
  5.093	-85.207	 92.12125	 39.18725	 38.86705	 26.26861	 52.59385	  0.07779	 92.31265	711.89001	 39.50	
  5.105	-104.191	 92.01412	 34.32286	 43.75430	 26.51967	 52.14170	 -0.13236	 92.28931	711.90997	 39.50	
  5.095	-123.033	 91.92519	 29.82151	 48.38900	 28.33880	 49.94991	 -0.20799	 92.27087	711.87000	 39.50	
  5.109	-142.013	 91.89853	 26.20747	 52.19312	 31.46362	 46.33471	 -0.30384	 92.38678	711.90997	 39.50	
  5.099	-161.165	 91.70786	 23.87894	 54.77103	 35.79070	 41.66129	 -0.34805	 92.29720	711.95001	 39.60	
  5.100	180.000	 91.63295	 23.01815	 55.72750	 40.45783	 36.81958	 -0.35406	 92.30776	711.91998	 39.70	
  6.800	180.000	 90.71942	 17.82551	 60.13638	 39.64078	 36.00695	 -1.12556	 92.30430	711.92999	 39.70	
  6.796	-166.229	 90.80489	 18.46178	 59.39156	 34.97730	 40.76271	 -1.11676	 92.30273	711.92999	 39.70	
  6.808	-152.311	 90.92094	 20.13676	 57.63943	 30.50690	 45.44124	 -1.11003	 92.30729	711.84998	 39.80	
  6.795	-138.383	 91.03803	 22.69222	 54.61015	 26.85300	 49.81804	 -1.08938	 92.29426	711.83002	 39.80	
  6.792	-124.591	 91.21433	 26.08447	 50.85399	 24.08021	 53.24401	 -0.97496	 92.31823	711.89001	 39.80	
  6.787	-110.754	 91.28166	 30.29132	 46.40847	 22.18100	 55.66505	 -0.90080	 92.26454	711.90002	 39.90	
  6.800	-96.985	 91.38107	 34.93777	 41.65990	 21.16390	 56.99007	 -0.82053	 92.27717	711.94000	 39.90	
  6.800	-83.015	 91.45036	 39.67434	 36.82555	 21.07774	 57.06848	 -0.63903	 92.25312	711.92999	 39.90	
  6.787	-69.246	 91.53438	 44.77055	 32.20272	 22.16625	 55.83337	 -0.41420	 92.27268	711.82001	 40.00	
  6.792	-55.409	 91.57587	 48.98980	 28.09191	 24.22535	 53.48354	 -0.29233	 92.31361	711.91998	 40.00	
  6.795	-41.617	 91.58717	 52.75586	 24.77130	 27.19230	 50.09523	 -0.05014	 92.32036	711.97998	 40.00	
  6.808	-27.689	 91.57632	 55.63401	 22.27160	 31.04540	 45.61334	  0.13703	 92.33331	711.91998	 40.10	
  6.796	-13.771	 91.51614	 57.33504	 20.71008	 35.76413	 40.78800	  0.31430	 92.31020	711.89001	 40.10	
  6.800	  0.000	 91.41768	 57.81849	 20.20474	 40.40873	 35.92823	  0.43497	 92.30868	711.90997	 40.10	
  6.796	 13.771	 91.29185	 57.06055	 20.65253	 45.01999	 31.22791	  0.47833	 92.26470	712.03998	 40.20	
  6.808	 27.689	 91.18309	 55.08555	 22.16338	 49.58399	 26.70552	  0.42381	 92.31676	711.89001	 40.20	
  6.795	 41.617	 91.06978	 51.88237	 24.76184	 53.83169	 22.71190	  0.35243	 92.29529	711.92999	 40.20	
  6.792	 55.409	 90.97627	 48.05367	 28.13597	 57.17303	 19.79811	  0.32160	 92.32549	711.87000	 40.30	
  6.787	 69.246	 90.80283	 43.61753	 32.09138	 59.42545	 17.79716	  0.18175	 92.25307	711.84003	 40.30	
  6.800	 83.015	 90.72177	 38.61609	 36.76945	 60.52651	 16.76417	 -0.01118	 92.26717	711.85999	 40.40	
  6.800	 96.985	 90.65046	 33.97719	 41.54101	 60.42708	 16.82484	 -0.15543	 92.29785	711.91998	 40.40	
  6.787	110.754	 90.62052	 29.38527	 46.25793	 59.10976	 17.98956	 -0.30433	 92.33074	711.90997	 40.50	
  6.792	124.591	 90.62244	 25.27264	 50.61168	 56.63718	 19.99245	 -0.55251	 92.32396	711.90997	 40.50	
  6.795	138.383	 90.58488	 22.13420	 54.60044	 52.89112	 22.83646	 -0.76748	 92.30514	711.95001	 40.50	
  6.808	152.311	 90.64059	 19.74872	 57.69230	 48.87826	 26.79166	 -0.94029	 92.35966	711.89001	 40.60	
  6.796	166.229	 90.63727	 18.27865	 59.44400	 44.24291	 31.29270	 -1.11036	 92.28133	711.89001	 40.60	
  8.491	168.704	 89.29839	 12.64276	 63.38995	 43.25149	 30.01460	 -1.96038	 92.23586	711.97998	 40.60	
  8.502	157.493	 89.23891	 13.87727	 61.94411	 47.93138	 25.24540	 -1.82835	 92.24340	711.84003	 40.60	
  8.494	146.194	 89.19611	 16.02609	 59.61784	 52.34118	 21.19630	 -1.67478	 92.21462	711.90997	 40.60	
  8.495	135.039	 89.24876	 18.65669	 56.30354	 56.63111	 18.04874	 -1.50430	 92.25825	711.96002	 40.70	
  8.487	123.723	 89.27990	 21.98631	 52.02194	 60.07172	 15.34249	 -1.32168	 92.27251	711.98999	 40.70	
  8.492	112.575	 89.30011	 25.73429	 47.66964	 62.45456	 13.32098	 -1.09985	 92.27823	711.95001	 40.70	
  8.510	101.220	 89.31221	 30.36750	 42.83679	 64.00420	 11.86101	 -0.93565	 92.25948	711.92999	 40.80	
  8.500	 90.000	 89.41309	 35.24808	 38.05603	 64.63818	 11.40487	 -0.82482	 92.27515	711.88000	 40.80	
  8.510	 78.780	 89.50830	 39.89670	 33.17622	 64.26068	 11.87457	 -0.65769	 92.28347	711.73999	 40.80	
  8.492	 67.425	 89.61437	 45.11042	 28.71695	 62.80872	 13.14924	 -0.48595	 92.26972	712.00000	 40.80	
  8.487	 56.277	 89.80560	 49.48178	 24.84318	 60.62675	 15.15959	 -0.39488	 92.32011	711.97998	 40.90	
  8.495	 44.961	 89.87894	 53.61631	 21.34488	 57.44129	 17.78800	 -0.41296	 92.27814	712.08002	 40.90	
  8.494	 33.806	 89.97057	 57.05000	 18.52172	 53.32993	 20.96063	 -0.34493	 92.27171	712.12000	 40.90	
  8.502	 22.507	 90.12501	 59.62020	 16.49712	 48.87575	 25.20761	 -0.23707	 92.27723	712.07001	 40.90	
  8.491	 11.296	 90.23514	 61.22933	 15.37507	 44.15142	 29.98543	 -0.16257	 92.27629	712.01001	 40.90	
  8.500	  0.000	 90.31908	 61.91541	 14.80780	 39.28323	 34.90113	 -0.27205	 92.26653	712.00000	 41.00	
  8.491	-11.296	 90.45952	 61.55460	 15.11594	 34.54619	 39.90073	 -0.45022	 92.29022	711.98999	 40.90	
  8.502	-22.507	 90.49541	 60.16436	 16.32273	 29.72889	 44.75636	 -0.62682	 92.27199	712.03003	 41.00	
  8.494	-33.806	 90.56317	 57.85905	 18.42434	 25.62225	 49.63938	 -0.78116	 92.27729	712.08002	 41.00	
  8.495	-44.961	 90.57685	 54.62828	 21.23161	 22.40620	 53.66968	 -0.97438	 92.25878	712.01001	 41.00	
  8.487	-56.277	 90.61169	 50.63683	 24.69691	 20.08821	 57.06054	 -1.17349	 92.30638	712.03003	 41.00	
  8.492	-67.425	 90.56977	 46.43243	 28.72421	 18.11278	 59.51960	 -1.30035	 92.31408	711.98999	 41.00	
  8.510	-78.780	 90.45943	 41.24097	 33.23994	 16.72508	 60.74205	 -1.45538	 92.24422	712.00000	 41.10	
  8.500	-90.000	 90.42352	 36.38905	 38.19144	 16.31415	 61.06423	 -1.63419	 92.29491	712.01001	 41.10	
  8.510	-101.220	 90.32844	 31.67508	 43.08939	 16.64694	 60.78031	 -1.75570	 92.29551	711.98999	 41.10	
  8.492	-112.575	 90.22814	 26.90623	 47.95883	 17.92253	 59.30681	 -1.79655	 92.28032	711.95001	 41.10	
  8.487	-123.723	 90.10858	 22.90521	 52.37720	 19.91845	 56.86056	 -1.81322	 92.29441	712.02002	 41.20	
  8.495	-135.039	 89.92500	 19.36952	 56.46862	 22.57506	 53.47727	 -1.87684	 92.26494	711.94000	 41.20	
  8.494	-146.194	 89.83067	 16.58161	 59.75540	 25.28222	 49.37951	 -1.90436	 92.30023	711.85999	 41.20	
  8.502	-157.493	 89.60870	 14.30923	 62.03767	 29.14810	 44.52666	 -1.92116	 92.24033	711.91998	 41.20	
  8.491	-168.704	 89.48414	 12.90226	 63.50348	 33.56838	 39.72497	 -1.99433	 92.24300	711.87000	 41.20	
  8.500	180.000	 89.44360	 12.33972	 64.04237	 38.57178	 34.87269	 -2.00053	 92.30386	711.82001	 41.20	
 10.200	180.000	 87.80836	  7.01502	 67.93862	 37.17070	 33.56321	 -2.89119	 92.26166	711.83002	 41.30	
 10.191	-170.497	 87.94953	  7.58862	 67.50731	 32.29187	 38.51559	 -2.86062	 92.28760	711.81000	 41.30	
 10.210	-161.034	 88.04931	  8.71562	 66.27876	 27.76487	 43.42559	 -2.61462	 92.26849	712.01001	 41.30	
 10.194	-151.526	 88.23882	 10.51816	 64.22324	 24.24788	 48.27911	 -2.57412	 92.30846	711.90002	 41.30	
 10.190	-142.105	 88.35233	 12.91945	 61.44857	 20.87111	 52.76019	 -2.55749	 92.25906	711.83002	 41.40	
 10.215	-132.646	 88.52601	 15.89161	 57.98399	 17.58457	 56.82414	 -2.57944	 92.29250	711.85999	 41.40	
 10.203	-123.092	 88.65278	 19.55839	 53.64568	 14.81871	 60.09196	 -2.46818	 92.26488	711.87000	 41.40	
 10.192	-113.678	 88.80653	 23.58687	 49.09808	 12.83941	 62.23447	 -2.59649	 92.25809	711.85999	 41.50	
 10.208	-104.249	 88.93875	 28.07891	 44.30111	 11.46615	 64.06860	 -2.48110	 92.27625	711.85999	 41.50	
 10.210	-94.801	 89.06133	 33.07276	 39.39547	 10.88601	 65.04700	 -2.54840	 92.29595	711.88000	 41.50	
 10.210	-85.199	 89.23187	 37.91621	 34.37711	 11.01091	 65.12621	 -2.39804	 92.35500	711.84998	 41.60	
 10.208	-75.751	 89.19946	 42.84626	 29.53323	 11.70246	 64.24377	 -2.28689	 92.29214	711.85999	 41.60	
 10.192	-66.322	 89.25660	 47.82929	 25.17443	 13.20095	 62.45441	 -2.18235	 92.28500	711.81000	 41.60	
 10.203	-56.908	 89.25159	 52.13733	 21.20634	 15.23175	 60.28645	 -2.09472	 92.26301	711.84998	 41.60	
 10.215	-47.354	 89.32765	 56.32067	 17.85567	 18.02260	 57.10892	 -1.90796	 92.30451	711.85999	 41.70	
 10.190	-37.895	 89.25254	 59.65829	 15.06943	 21.26499	 53.01115	 -1.67964	 92.22501	711.85999	 41.70	
 10.194	-28.474	 89.23118	 62.41105	 12.74856	 24.54139	 48.42277	 -1.49615	 92.22816	711.90997	 41.70	
 10.210	-18.966	 89.18681	 64.54357	 11.00284	 28.70564	 43.54253	 -1.38357	 92.26032	711.94000	 41.70	
 10.191	 -9.503	 89.10785	 65.70728	 10.11646	 33.44523	 38.52579	 -1.21017	 92.24394	711.94000	 41.80	
 10.200	  0.000	 88.98918	 66.06426	  9.66636	 38.28658	 33.59184	 -1.07299	 92.26403	711.95001	 41.80	
 10.191	  9.503	 88.87650	 65.42786	 10.09209	 43.17062	 28.59715	 -1.03840	 92.29382	711.90002	 41.80	
 10.210	 18.966	 88.74348	 63.96268	 11.25597	 48.01438	 23.70879	 -0.94671	 92.30375	711.89001	 41.80	
 10.194	 28.474	 88.60862	 61.56847	 13.07534	 52.56394	 19.62357	 -1.04700	 92.30857	711.92999	 41.80	
 10.190	 37.895	 88.44318	 58.64121	 15.36069	 57.09478	 15.93760	 -1.14837	 92.29163	711.95001	 41.90	
 10.215	 47.354	 88.27428	 54.88194	 18.11424	 60.96841	 12.75818	 -1.58774	 92.25692	711.84998	 41.90	
 10.203	 56.908	 88.14870	 50.53355	 21.35090	 63.99564	 10.25482	 -1.42554	 92.29647	711.88000	 41.90	
 10.192	 66.322	 88.00665	 46.08029	 25.26149	 66.30705	  8.28084	 -1.36354	 92.28193	711.92999	 41.90	
 10.208	 75.751	 87.87528	 40.97367	 29.56059	 67.74770	  6.96779	 -1.45689	 92.28134	711.78003	 41.90	
 10.210	 85.199	 87.78165	 36.24498	 34.21441	 68.53452	  6.26220	 -1.59886	 92.27307	711.84998	 41.90	
 10.210	 94.801	 87.71120	 31.21813	 39.25338	 68.41134	  6.26454	 -1.74865	 92.30967	711.84998	 42.00	
 10.208	104.249	 87.64907	 26.31740	 44.10699	 67.62305	  6.92930	 -1.87966	 92.31438	711.89001	 42.00	
 10.192	113.678	 87.54086	 22.15846	 48.73503	 65.81428	  8.27092	 -2.18368	 92.25914	711.94000	 42.00	
 10.203	123.092	 87.52573	 18.30611	 53.29119	 63.38734	 10.29328	 -2.46291	 92.26049	712.08002	 42.00	
 10.215	132.646	 87.52448	 14.85407	 57.71074	 60.12326	 12.98294	 -2.56758	 92.25831	711.96002	 42.00	
 10.190	142.105	 87.56908	 12.11626	 61.30676	 56.04259	 16.29409	 -2.46511	 92.27007	712.03003	 42.00	
 10.194	151.526	 87.61690	  9.95931	 64.05424	 51.51448	 19.83001	 -2.52609	 92.32585	711.94000	 42.00	
 10.210	161.034	 87.64445	  8.29616	 66.28976	 46.90361	 23.64782	 -2.66728	 92.28154	711.92999	 42.00	
 10.191	170.497	 87.76168	  7.34093	 67.47183	 42.16245	 28.49632	 -2.84158	 92.28651	712.04999	 42.00	
 11.899	171.783	 85.83259	  1.25825	 71.28299	 40.57798	 26.95340	 -3.81176	 92.27760	712.01001	 42.00	
 11.890	163.610	 85.76868	  2.25024	 70.04564	 45.40574	 22.36811	 -3.74019	 92.29381	712.06000	 42.00	
 11.889	155.445	 85.67196	  3.85696	 68.12636	 50.03212	 18.50713	 -3.58762	 92.27090	711.97998	 42.00	
 11.909	147.299	 85.57700	  5.90633	 65.61967	 54.49943	 14.67009	 -3.51425	 92.26873	711.94000	 42.00	
 11.902	139.148	 85.52187	  8.35654	 62.50845	 59.10806	 11.12898	 -3.54430	 92.22068	711.91998	 42.00	
 11.894	130.867	 85.55544	 11.47575	 58.77339	 62.99553	  8.07913	 -3.54379	 92.24797	711.96002	 42.00	
 11.897	122.732	 85.58884	 14.96000	 54.34130	 66.07692	  5.58487	 -3.40236	 92.25481	711.97998	 42.00	
 11.903	114.597	 85.62717	 18.62026	 49.76782	 68.63194	  3.50172	 -3.24684	 92.28812	712.09003	 42.10	
 11.893	106.346	 85.67847	 22.69992	 45.00900	 70.43817	  1.99337	 -2.95512	 92.27567	712.09003	 42.10	
 11.892	 98.155	 85.74476	 27.23979	 40.09389	 71.71502	  1.21520	 -2.96034	 92.26395	711.95001	 42.10	
 11.900	 90.000	 85.81007	 32.06695	 35.16056	 72.22535	  0.93775	 -2.60814	 92.27096	712.01001	 42.10	
 11.892	 81.845	 85.89349	 37.08456	 30.37819	 71.90608	  1.39194	 -2.60864	 92.23243	711.98999	 42.10	
 11.893	 73.654	 86.00449	 41.93891	 25.85572	 70.86214	  2.34061	 -2.91374	 92.23086	712.03003	 42.10	
 11.903	 65.403	 86.08857	 46.99403	 21.66340	 69.05477	  3.58870	 -2.81633	 92.20518	712.09003	 42.10	
 11.897	 57.268	 86.26084	 51.50979	 18.21294	 66.79314	  5.53182	 -2.77961	 92.26334	712.01001	 42.10	
 11.894	 49.133	 86.30541	 55.85599	 14.69789	 63.88514	  7.86669	 -2.69886	 92.19946	712.03003	 42.20	
 11.902	 40.852	 86.52440	 59.86332	 11.55964	 60.32321	 10.85642	 -2.14381	 92.25220	712.16998	 42.20	
 11.909	 32.701	 86.69368	 63.03138	  9.06189	 56.07174	 14.35401	 -2.43090	 92.23669	712.03998	 42.20	
 11.889	 24.555	 86.95052	 65.81852	  6.90339	 51.40789	 18.30624	 -2.64268	 92.28809	712.03998	 42.20	
 11.890	 16.390	 87.06171	 67.89219	  5.25016	 46.75567	 22.43506	 -1.90448	 92.25127	712.15002	 42.20	
 11.899	  8.217	 87.22847	 69.24007	  4.32394	 41.89543	 27.24597	 -2.09736	 92.26800	712.07001	 42.20	
 11.900	  0.000	 87.32052	 69.81717	  4.05778	 36.97654	 32.29868	 -2.06482	 92.22764	712.04999	 42.20	
 11.899	 -8.217	 87.45855	 69.61398	  4.39983	 32.09312	 37.30008	 -2.09999	 92.26633	712.04999	 42.30	
 11.890	-16.390	 87.54168	 68.53844	  5.26302	 27.45124	 42.30468	 -2.26638	 92.22775	711.97998	 42.30	
 11.889	-24.555	 87.53636	 66.70827	  6.64112	 23.76671	 47.09738	 -2.58087	 92.17133	711.94000	 42.30	
 11.909	-32.701	 87.61411	 64.30073	  8.54988	 19.87994	 51.92284	 -2.54411	 92.24026	711.96002	 42.30	
 11.902	-40.852	 87.62460	 61.20356	 11.40756	 16.18371	 56.33761	 -2.70951	 92.21798	712.01001	 42.40	
 11.894	-49.133	 87.64110	 57.62619	 14.72339	 12.98340	 60.13753	 -2.91487	 92.24130	712.04999	 42.40	
 11.897	-57.268	 87.67499	 53.46419	 18.19831	 10.34012	 62.91046	 -3.26519	 92.27424	712.08002	 42.40	
 11.903	-65.403	 87.60064	 49.00451	 21.96657	  8.04055	 65.46625	 -3.14852	 92.21299	712.04999	 42.40	
 11.893	-73.654	 87.61049	 44.18476	 26.03541	  6.57879	 67.42229	 -3.20468	 92.25188	712.01001	 42.40	
 11.892	-81.845	 87.54261	 39.04044	 30.62856	  5.66010	 68.59691	 -3.28147	 92.24762	712.04999	 42.40	
 11.900	-90.000	 87.42541	 34.36179	 35.27756	  5.15937	 68.97437	 -3.26467	 92.21533	711.95001	 42.40	
 11.892	-98.155	 87.34016	 29.29174	 40.37816	  5.38481	 68.54779	 -3.35529	 92.23277	712.03998	 42.40	
 11.893	-106.346	 87.18481	 24.55282	 45.31035	  6.15142	 67.28178	 -3.28977	 92.19463	712.06000	 42.40	
 11.903	-114.597	 87.08849	 20.18148	 50.10279	  7.41045	 65.32687	 -3.20735	 92.24651	711.96002	 42.50	
 11.897	-122.732	 86.87451	 16.20544	 54.67939	  9.24291	 62.62804	 -3.20038	 92.21015	711.96002	 42.50	
 11.894	-130.867	 86.72636	 12.63660	 59.08556	 11.88713	 59.80911	 -3.31958	 92.25159	712.06000	 42.50	
 11.902	-139.148	 86.53123	  9.38119	 62.78995	 15.50543	 55.97147	 -3.41210	 92.23101	712.06000	 42.50	
 11.909	-147.299	 86.37131	  6.72832	 65.85638	 19.00916	 51.54750	 -3.42070	 92.21503	712.08002	 42.60	
 11.889	-155.445	 86.20563	  4.62348	 68.23460	 22.82660	 46.71016	 -3.37705	 92.19003	712.09998	 42.60	
 11.890	-163.610	 86.15782	  3.05471	 70.17258	 26.54337	 42.00737	 -3.45223	 92.28056	712.01001	 42.60	
 11.899	-171.783	 85.95272	  1.83834	 71.27480	 30.83691	 36.96224	 -3.69267	 92.19195	712.03003	 42.60	
 11.900	180.000	 85.86565	  1.25245	 71.66618	 35.49368	 31.97776	 -3.85129	 92.22149	712.20001	 42.60	
 13.600	180.000	 83.54720	 -4.21157	 75.14651	 33.78948	 30.05283	 -4.44720	 92.21515	712.20001	 42.60	
 13.608	-172.853	 83.66830	 -3.86190	 74.88735	 29.23515	 35.07330	 -4.24032	 92.23295	712.04999	 42.60	
 13.611	-165.583	 83.78316	 -2.96270	 73.90204	 25.29824	 40.21740	 -4.04813	 92.19880	712.03998	 42.70	
 13.601	-158.353	 83.94071	 -1.48743	 72.20484	 21.13284	 45.05758	 -3.90746	 92.20166	712.13000	 42.70	
 13.609	-151.210	 84.12364	  0.30496	 69.82504	 17.11553	 49.98587	 -3.88057	 92.19037	712.06000	 42.70	
 13.611	-143.999	 84.20004	  2.61836	 67.05618	 12.68026	 54.68328	 -3.92874	 92.16704	712.09998	 42.70	
 13.601	-136.825	 84.38023	  5.51066	 63.72352	  9.37944	 58.87859	 -3.88515	 92.18862	712.10999	 42.70	
 13.596	-129.640	 84.58418	  8.86854	 60.01340	  6.64563	 62.20437	 -3.76150	 92.19901	711.98999	 42.70	
 13.611	-122.431	 84.78030	 12.72266	 55.42954	  4.30122	 65.56807	 -3.66290	 92.20918	712.08002	 42.70	
 13.604	-115.211	 84.95936	 16.83388	 50.77796	  2.41225	 68.26916	 -3.64245	 92.20132	712.06000	 42.70	
 13.595	-108.042	 85.10028	 20.99800	 46.05329	  1.04887	 70.36998	 -3.71551	 92.19865	712.09998	 42.80	
 13.607	-100.793	 85.18791	 25.38421	 41.06563	  0.11407	 71.84045	 -3.84221	 92.19604	712.00000	 42.80	
 13.601	-93.617	 85.29620	 30.06799	 35.94583	 -0.26920	 72.56937	 -3.81253	 92.18592	712.03003	 42.70	
 13.601	-86.383	 85.40984	 35.14878	 31.26452	 -0.00956	 72.56264	 -3.79463	 92.17638	712.09998	 42.70	
 13.607	-79.207	 85.44550	 39.82885	 26.62307	  0.49487	 71.89896	 -3.79358	 92.15814	712.06000	 42.70	
 13.595	-71.958	 85.55493	 44.99240	 22.59849	  1.51628	 70.52406	 -3.86787	 92.21330	712.15002	 42.80	
 13.604	-64.789	 85.62066	 49.82545	 18.47127	  2.94909	 68.50442	 -3.95551	 92.19086	712.03998	 42.80	
 13.611	-57.569	 85.64375	 54.38712	 14.50873	  4.87615	 65.84705	 -4.00664	 92.20570	712.15997	 42.80	
 13.596	-50.360	 85.68501	 58.65182	 10.43265	  7.44715	 62.50549	 -3.98714	 92.18677	712.08002	 42.80	
 13.601	-43.175	 85.64211	 62.32370	  7.33058	 10.31356	 59.26257	 -3.67661	 92.16478	712.08002	 42.80	
 13.611	-36.001	 85.65041	 65.71141	  4.73652	 14.11780	 55.12309	 -3.56947	 92.20278	711.96997	 42.90	
 13.609	-28.790	 85.61210	 68.46775	  2.60628	 18.16375	 50.37530	 -3.52696	 92.18189	712.03998	 42.90	
 13.601	-21.647	 85.62047	 70.72158	  0.97595	 22.32311	 45.46861	 -3.50867	 92.21551	712.08002	 42.90	
 13.611	-14.417	 85.56586	 72.43961	 -0.26513	 26.61462	 40.58716	 -3.31954	 92.28294	712.01001	 42.90	
 13.608	 -7.147	 85.42165	 73.28137	 -0.89671	 30.56400	 35.53035	 -3.26290	 92.23042	712.08002	 42.90	
 13.600	  0.000	 85.33652	 73.49866	 -1.25176	 35.18649	 30.59172	 -3.32449	 92.30287	712.01001	 42.90	
 13.608	  7.147	 85.15737	 72.93805	 -1.12198	 40.16808	 25.48298	 -3.47314	 92.24845	712.00000	 42.90	
 13.611	 14.417	 84.93021	 71.68474	 -0.38984	 45.09639	 21.11522	 -3.56553	 92.18813	712.14001	 42.90	
 13.601	 21.647	 84.85754	 69.80865	  0.82770	 49.92783	 16.79295	 -3.54222	 92.25070	711.96997	 42.90	
 13.609	 28.790	 84.65997	 67.26415	  2.40271	 54.47824	 12.68041	 -3.70355	 92.23551	712.01001	 42.90	
 13.611	 36.001	 84.44447	 64.11749	  4.31822	 59.24123	  8.87071	 -3.72630	 92.24273	712.03998	 42.90	
 13.601	 43.175	 84.33201	 60.68039	  7.05597	 63.28265	  5.59242	 -3.71208	 92.30038	712.03998	 42.90	
 13.596	 50.360	 84.16763	 56.68832	 10.74138	 66.59070	  2.78105	 -3.69783	 92.29368	712.07001	 43.00	
 13.611	 57.569	 84.00709	 52.20364	 14.36637	 69.49720	  0.22581	 -3.79553	 92.32766	712.10999	 43.00	
 13.604	 64.789	 83.94569	 47.65327	 18.27242	 72.08205	 -1.70290	 -4.01760	 92.37971	712.15002	 43.00	
 13.595	 71.958	 83.87781	 42.70375	 22.26309	 73.97383	 -3.03743	 -4.21210	 92.42068	712.06000	 43.00	
 13.607	 79.207	 83.75352	 37.76540	 26.38625	 75.20146	 -4.01925	 -4.33560	 92.37914	712.02002	 43.10	
 13.601	 86.383	 83.62226	 32.70523	 30.94887	 75.73773	 -4.56226	 -4.23893	 92.34871	712.08002	 43.10	
 13.601	 93.617	 83.52100	 27.98743	 35.67318	 75.67062	 -4.79733	 -4.20064	 92.35720	712.10999	 43.10	
 13.607	100.793	 83.48450	 23.53685	 40.80968	 74.98735	 -4.40791	 -4.01846	 92.40591	712.09003	 43.10	
 13.595	108.042	 83.38840	 19.12159	 45.71663	 73.46954	 -3.51800	 -3.99573	 92.38702	712.09998	 43.10	
 13.604	115.211	 83.42789	 15.00804	 50.52171	 71.36906	 -1.97430	 -4.11964	 92.44692	712.10999	 43.10	
 13.611	122.431	 83.38235	 11.06769	 55.16627	 68.82135	  0.17346	 -4.32994	 92.43604	712.15997	 43.10	
 13.596	129.640	 83.41073	  7.37737	 59.73903	 65.68776	  2.83136	 -4.53832	 92.45576	712.17999	 43.10	
 13.601	136.825	 83.36178	  4.01839	 63.53940	 62.02472	  5.80438	 -4.52945	 92.40259	712.03003	 43.10	
 13.611	143.999	 83.37469	  1.20114	 66.93769	 57.78702	  9.21267	 -4.45569	 92.43388	711.96997	 43.10	
 13.609	151.210	 83.45987	 -0.84612	 69.81616	 53.00970	 13.01173	 -4.49980	 92.47217	712.09003	 43.10	
 13.601	158.353	 83.53129	 -2.58827	 72.20198	 48.42501	 16.97073	 -4.58972	 92.47295	712.04999	 43.10	
 13.611	165.583	 83.59453	 -3.90876	 73.96816	 43.67004	 21.05522	 -4.69722	 92.45094	711.98999	 43.10	
 13.608	172.853	 83.71342	 -4.28945	 75.04761	 38.68616	 25.37597	 -4.68689	 92.48882	711.98999	 43.10	
 15.298	173.587	 81.23016	 -9.86988	 78.17390	 36.48478	 23.82809	 -5.26063	 92.51683	712.10999	 43.10	
 15.291	167.167	 81.10206	 -9.48984	 77.24883	 41.50974	 19.54856	 -5.35218	 92.50513	712.08002	 43.10	
 15.307	160.676	 81.02848	 -8.56240	 75.75413	 46.41499	 15.22848	 -5.31646	 92.51344	712.03003	 43.10	
 15.300	154.261	 80.97116	 -6.92165	 73.62585	 51.09732	 11.13517	 -5.31178	 92.49935	712.08002	 43.10	
 15.288	147.854	 80.95734	 -5.16949	 70.87331	 55.70373	  7.26821	 -5.25538	 92.52137	712.09003	 43.10	
 15.293	141.428	 80.99744	 -2.52176	 67.81223	 60.44502	  3.65278	 -5.27808	 92.55861	712.04999	 43.10	
 15.299	134.985	 80.97898	  0.18404	 64.23439	 64.50768	  0.20542	 -5.38067	 92.53053	712.08002	 43.20	
 15.305	128.583	 80.97936	  3.18671	 60.27287	 68.10294	 -2.76030	 -5.27978	 92.55472	712.09998	 43.20	
 15.309	122.142	 80.88404	  6.63432	 55.65930	 70.98528	 -5.27698	 -5.17278	 92.51408	712.10999	 43.20	
 15.304	115.711	 80.96246	 10.73599	 51.02749	 73.91869	 -7.25574	 -4.99823	 92.57383	712.00000	 43.20	
 15.297	109.291	 81.01338	 14.94129	 46.25141	 76.09753	 -8.68775	 -4.88363	 92.56301	712.06000	 43.20	
 15.293	102.897	 81.09364	 19.40772	 41.37343	 77.60513	 -9.59938	 -4.85843	 92.54603	712.10999	 43.20	
 15.293	 96.458	 81.19683	 24.10969	 36.25224	 78.53268	-10.16423	 -4.92834	 92.55167	712.14001	 43.20	
 15.300	 90.000	 81.32033	 28.72443	 31.47045	 78.91320	-10.19347	 -5.02823	 92.59428	712.10999	 43.20	
 15.293	 83.542	 81.41551	 33.10767	 26.93659	 78.72935	 -9.83176	 -5.16473	 92.57055	712.12000	 43.20	
 15.293	 77.103	 81.45601	 38.29337	 22.66328	 77.94047	 -9.36385	 -5.18244	 92.54887	712.15997	 43.20	
 15.297	 70.709	 81.52887	 43.05616	 18.44510	 76.59976	 -8.40455	 -5.08890	 92.53727	712.14001	 43.20	
 15.304	 64.289	 81.61410	 48.06066	 14.33779	 74.66428	 -7.05873	 -4.91048	 92.47712	712.10999	 43.20	
 15.309	 57.858	 81.73537	 52.71294	  9.94951	 72.10384	 -5.09896	 -4.79133	 92.48915	712.08002	 43.20	
 15.305	 51.417	 81.92656	 57.30567	  6.39517	 69.08568	 -2.73332	 -4.70383	 92.52077	711.96997	 43.20	
 15.299	 45.015	 82.08498	 61.42345	  3.35385	 65.79188	  0.15690	 -4.61132	 92.47380	711.96997	 43.20	
 15.293	 38.572	 82.21562	 65.04703	  0.63464	 62.02018	  3.33030	 -4.55546	 92.48022	712.03998	 43.20	
 15.288	 32.146	 82.35410	 68.37984	 -1.58450	 57.63395	  6.98576	 -4.56983	 92.43125	712.00000	 43.20	
 15.300	 25.739	 82.49888	 71.28926	 -3.48117	 52.86745	 10.97829	 -4.47211	 92.42415	712.01001	 43.20	
 15.307	 19.324	 82.67964	 73.60599	 -4.95092	 48.18953	 15.16682	 -4.40960	 92.44606	712.01001	 43.20	
 15.291	 12.833	 82.81284	 75.24753	 -5.94520	 43.32489	 19.62177	 -4.40128	 92.43298	711.96997	 43.20	
 15.298	  6.413	 82.98804	 76.34301	 -6.55460	 38.27578	 24.00695	 -4.31368	 92.43819	711.96997	 43.20	
 15.300	  0.000	 83.07426	 76.75755	 -6.56595	 33.32557	 28.57701	 -4.13257	 92.36967	711.96997	 43.20	
 15.298	 -6.413	 83.24895	 76.62730	 -6.18157	 29.16568	 33.65136	 -4.03169	 92.39804	712.10999	 43.20	
 15.291	-12.833	 83.33951	 75.85723	 -5.67211	 24.95810	 38.71294	 -3.98467	 92.38670	712.01001	 43.20	
 15.307	-19.324	 83.39911	 74.49543	 -4.78161	 20.47135	 43.64717	 -3.97272	 92.37765	712.07001	 43.20	
 15.300	-25.739	 83.43888	 72.57432	 -3.27152	 16.06997	 48.53216	 -3.95022	 92.36694	712.06000	 43.30	
 15.288	-32.146	 83.55251	 70.03091	 -1.22875	 11.71838	 53.53703	 -4.00992	 92.41548	712.12000	 43.30	
 15.293	-38.572	 83.50883	 66.89066	  0.97877	  8.16839	 57.99386	 -4.21164	 92.33751	712.06000	 43.30	
 15.299	-45.015	 83.57536	 63.38305	  3.61355	  5.06048	 61.85538	 -4.23445	 92.38365	712.09998	 43.30	
 15.305	-51.417	 83.53609	 59.53526	  6.71902	  2.30167	 65.36893	 -4.29249	 92.36864	712.00000	 43.30	
 15.309	-57.858	 83.49023	 55.12407	 10.15067	 -0.08752	 68.63788	 -4.28994	 92.36246	712.15002	 43.30	
 15.304	-64.289	 83.45765	 50.53973	 14.48014	 -2.06957	 71.33375	 -4.31040	 92.34291	712.15002	 43.30	
 15.297	-70.709	 83.32105	 45.61251	 18.81675	 -3.62080	 73.37298	 -4.23170	 92.27264	712.07001	 43.30	
 15.293	-77.103	 83.36507	 40.61879	 23.21655	 -4.63183	 75.03477	 -4.16032	 92.37186	712.13000	 43.30	
 15.293	-83.542	 83.28946	 35.76907	 27.31659	 -5.23016	 75.88503	 -4.05294	 92.34947	712.15002	 43.30	
 15.300	-90.000	 83.12262	 30.65369	 31.83729	 -5.48020	 76.09904	 -3.91399	 92.28615	712.16998	 43.20	
 15.293	-96.458	 83.00909	 26.09501	 36.48458	 -5.60902	 75.81693	 -3.88954	 92.29081	712.17999	 43.20	
 15.293	-102.897	 82.87036	 21.81574	 41.64867	 -5.03571	 74.83979	 -3.86215	 92.28330	712.19000	 43.20	
 15.297	-109.291	 82.79197	 17.28101	 46.52182	 -4.13843	 73.20162	 -3.80764	 92.30904	711.98999	 43.30	
 15.304	-115.711	 82.59220	 12.95498	 51.22694	 -2.72076	 71.03027	 -3.80335	 92.26770	712.08002	 43.30	
 15.309	-122.142	 82.46595	  8.77482	 55.84909	 -0.77020	 68.31104	 -3.85645	 92.30728	712.14001	 43.30	
 15.305	-128.583	 82.29939	  4.96491	 60.53377	  1.52321	 65.00325	 -3.94011	 92.30357	712.13000	 43.30	
 15.299	-134.985	 82.15110	  1.68500	 64.46046	  4.22547	 61.44334	 -3.99776	 92.29633	712.15997	 43.30	
 15.293	-141.428	 81.95972	 -1.21920	 67.93750	  7.25021	 57.49248	 -4.11007	 92.28086	712.21997	 43.30	
 15.288	-147.854	 81.82969	 -3.64846	 70.93110	 10.70663	 52.95537	 -4.09236	 92.26608	712.14001	 43.30	
 15.300	-154.261	 81.70596	 -5.68255	 73.72602	 14.49288	 48.05436	 -4.09865	 92.33489	712.13000	 43.30	
 15.307	-160.676	 81.47674	 -7.42976	 75.76999	 19.19060	 43.17059	 -4.17398	 92.29662	712.21997	 43.30	
 15.291	-167.167	 81.32825	 -8.58801	 77.16541	 23.57588	 38.14896	 -4.33405	 92.25559	712.14001	 43.40	
 15.298	-173.587	 81.17227	 -9.35493	 77.97980	 27.91406	 33.00254	 -4.51586	 92.22147	712.08002	 43.40	
 15.300	180.000	 81.06808	 -9.66398	 78.24059	 31.96372	 27.99455	 -4.76681	 92.24773	712.09998	 43.40	
 17.000	180.000	 78.33791	-15.02264	 81.06042	 29.71158	 26.05546	 -5.10233	 92.27673	712.21002	 43.40	
 16.990	-174.179	 78.41867	-14.85054	 80.87560	 25.98203	 30.65552	 -4.56722	 92.26945	712.10999	 43.40	
 17.009	-168.383	 78.35065	-14.23960	 80.06653	 21.39642	 35.82861	 -4.35779	 92.23045	712.26001	 43.40	
 17.000	-162.596	 78.52618	-13.02117	 78.73608	 16.48398	 40.83628	 -4.20265	 92.20179	712.12000	 43.40	
 16.990	-156.759	 78.87769	-11.62928	 76.93922	 12.44521	 45.73384	 -4.08100	 92.23547	712.25000	 43.40	
 16.995	-150.919	 78.93889	 -9.96139	 74.58131	  8.51345	 50.80499	 -4.03952	 92.24202	712.09998	 43.40	
 16.988	-145.161	 79.23241	 -7.74174	 71.62552	  5.04058	 55.54340	 -3.97708	 92.27895	712.20001	 43.40	
 17.014	-139.343	 79.20279	 -5.16772	 68.39876	  1.84466	 59.79138	 -3.96202	 92.22143	712.09998	 43.40	
 17.007	-133.546	 79.36259	 -2.20743	 64.69550	 -1.10156	 63.54374	 -3.91718	 92.23320	712.19000	 43.50	
 17.001	-127.699	 79.53258	  1.13559	 60.59732	 -3.69169	 67.35619	 -3.82978	 92.20627	712.10999	 43.50	
 17.006	-121.937	 79.64394	  4.64392	 56.06423	 -5.98526	 70.58733	 -3.78890	 92.18568	712.28003	 43.50	
 17.002	-116.134	 79.85108	  8.62687	 51.49004	 -7.73126	 73.24751	 -3.72379	 92.15661	712.15997	 43.50	
 17.001	-110.310	 80.02210	 12.80130	 46.74099	 -9.16575	 75.58008	 -3.71105	 92.17340	712.28003	 43.50	
 16.988	-104.517	 80.17848	 17.40466	 41.86703	-10.17196	 77.19819	 -3.68788	 92.21642	712.15002	 43.50	
 17.008	-98.662	 80.19995	 22.15321	 36.70364	-11.07564	 78.41560	 -3.73881	 92.19222	712.26001	 43.50	
 16.996	-92.909	 80.27495	 26.82294	 31.81469	-11.31361	 78.95073	 -3.73175	 92.14614	712.21997	 43.50	
 16.996	-87.091	 80.46174	 30.90304	 27.58980	-11.00787	 79.15454	 -3.96449	 92.20079	712.29999	 43.50	
 17.012	-81.253	 80.49443	 36.00754	 23.34724	-10.81940	 78.63992	 -4.11529	 92.18711	712.09998	 43.40	
 16.988	-75.483	 80.60650	 40.98167	 18.90951	 -9.98325	 77.42756	 -4.13113	 92.17231	712.16998	 43.50	
 17.001	-69.690	 80.69390	 45.93041	 14.03775	 -8.69523	 75.84069	 -4.20030	 92.17622	712.08002	 43.50	
 17.002	-63.866	 80.69568	 50.77980	  9.97779	 -7.14748	 73.58332	 -4.30194	 92.15187	712.13000	 43.50	
 17.006	-58.063	 80.76707	 55.45994	  6.19729	 -5.28461	 70.91621	 -4.29335	 92.23782	712.22998	 43.50	
 17.001	-52.301	 80.77884	 59.83549	  2.88090	 -2.97837	 67.68818	 -4.34410	 92.16789	712.21002	 43.50	
 17.007	-46.454	 80.79990	 63.80293	 -0.20763	 -0.38534	 64.02953	 -4.41370	 92.18966	712.16998	 43.50	
 17.014	-40.657	 80.76334	 67.56242	 -3.04077	  2.60498	 60.21835	 -4.49541	 92.18568	712.15997	 43.50	
 16.988	-34.839	 80.72204	 70.81357	 -5.30610	  5.91271	 55.93258	 -4.26622	 92.14809	712.15997	 43.50	
 16.995	-29.081	 80.73260	 73.64137	 -7.31488	  9.52986	 51.25133	 -4.25551	 92.19921	712.12000	 43.50	
 16.990	-23.241	 80.71489	 75.89713	 -9.00968	 13.54552	 46.21737	 -4.25654	 92.21287	712.13000	 43.50	
 17.000	-17.404	 80.63485	 77.60490	-10.38196	 18.32375	 41.25977	 -4.23112	 92.17683	712.21997	 43.50	
 17.009	-11.617	 80.50244	 78.76807	-11.23863	 22.87800	 36.30708	 -4.27898	 92.14162	712.08002	 43.50	
 16.990	 -5.821	 80.42171	 79.43778	-11.68399	 27.29003	 31.27740	 -4.42178	 92.16824	712.09998	 43.50	
 17.000	  0.000	 80.24800	 79.53175	-12.02273	 31.31776	 26.38480	 -4.78170	 92.12994	712.10999	 43.50	
 16.990	  5.821	 80.14663	 79.10944	-12.01736	 35.96742	 22.02771	 -4.98498	 92.15223	712.15002	 43.50	
 17.009	 11.617	 79.87917	 78.07614	-11.49166	 41.18330	 17.70173	 -5.13760	 92.10336	712.06000	 43.50	
 17.000	 17.404	 79.79051	 76.56130	-10.54490	 45.83740	 13.32603	 -5.19077	 92.13303	712.13000	 43.50	
 16.990	 23.241	 79.70098	 74.53525	 -9.20900	 50.65972	  9.06136	 -5.22183	 92.20904	712.21997	 43.50	
 16.995	 29.081	 79.46246	 71.90753	 -7.56194	 55.28270	  4.84887	 -5.29363	 92.17676	712.08002	 43.60	
 16.988	 34.839	 79.33710	 68.83200	 -5.54054	 59.93055	  1.04097	 -5.33292	 92.19415	712.01001	 43.60	
 17.014	 40.657	 79.09805	 65.24702	 -3.26573	 64.11958	 -2.55446	 -5.37618	 92.19079	712.16998	 43.60	
 17.007	 46.454	 78.94046	 61.40720	 -0.50942	 67.78961	 -5.57987	 -5.53328	 92.17780	712.14001	 43.60	
 17.001	 52.301	 78.96647	 57.17186	  2.57858	 71.05035	 -8.21108	 -5.57173	 92.23011	712.09998	 43.60	
 17.006	 58.063	 78.77876	 52.64046	  5.96191	 74.07355	-10.33929	 -5.66052	 92.18600	712.13000	 43.60	
 17.002	 63.866	 78.70422	 47.96675	  9.73339	 76.57233	-11.99327	 -5.74735	 92.20901	712.17999	 43.60	
 17.001	 69.690	 78.49269	 42.90989	 14.01520	 78.48807	-13.55992	 -5.89977	 92.16691	712.09003	 43.60	
 16.988	 75.483	 78.36388	 38.13035	 18.41890	 79.94085	-14.53556	 -6.00114	 92.15259	712.08002	 43.60	
 17.012	 81.253	 78.21003	 32.97715	 22.72448	 80.91910	-15.18953	 -6.05676	 92.12534	712.17999	 43.60	
 16.996	 87.091	 78.16105	 28.77934	 26.87578	 81.37733	-15.62150	 -5.92326	 92.15470	712.15002	 43.60	
 16.996	 92.909	 78.09068	 24.25805	 31.31550	 81.28342	-15.80255	 -5.75388	 92.16007	712.16998	 43.60	
 17.008	 98.662	 77.99335	 19.49773	 36.15781	 80.67114	-15.47496	 -5.63093	 92.17252	712.08002	 43.60	
 16.988	104.517	 77.98937	 14.86432	 41.30399	 79.46108	-14.66540	 -5.56459	 92.18167	712.17999	 43.60	
 17.001	110.310	 77.91635	 10.42604	 46.18833	 77.87280	-13.70422	 -5.62110	 92.16010	712.28003	 43.70	
 17.002	116.134	 77.85926	  6.23177	 50.96831	 75.66724	-12.24640	 -5.76359	 92.12167	712.27002	 43.70	
 17.006	121.937	 77.81113	  2.41542	 55.64215	 72.85799	-10.33240	 -5.90967	 92.12634	712.15002	 43.60	
 17.001	127.699	 77.78269	 -0.91717	 60.05311	 69.80360	 -8.05821	 -6.04427	 92.12183	712.17999	 43.70	
 17.007	133.546	 77.83549	 -3.95266	 64.25965	 66.38575	 -5.32031	 -6.07089	 92.15414	712.21997	 43.70	
 17.014	139.343	 77.74435	 -6.74654	 67.89600	 62.33022	 -2.40096	 -6.05876	 92.04814	712.08002	 43.70	
 16.988	145.161	 77.76604	 -8.96149	 71.20058	 57.76072	  1.14555	 -5.91895	 92.06817	712.20001	 43.70	
 16.995	150.919	 77.77479	-10.92412	 74.14977	 53.31212	  4.97252	 -5.88553	 92.07084	712.21002	 43.70	
 16.990	156.759	 77.84856	-12.47551	 76.57507	 48.62428	  9.04067	 -5.87050	 92.05332	712.09998	 43.70	
 17.000	162.596	 77.86253	-13.79216	 78.46060	 43.78910	 13.18600	 -5.79205	 92.07845	712.13000	 43.70	
 17.009	168.383	 77.91852	-14.73343	 79.78909	 39.02074	 17.48981	 -5.67447	 92.06230	712.13000	 43.70	
 16.990	174.179	 78.05452	-15.11124	 80.64034	 33.92876	 21.94810	 -5.51570	 92.07958	712.10999	 43.70	
 18.709	174.675	 74.70714	-20.58577	 83.23444	 31.70111	 19.80962	 -5.34773	 92.05799	712.15997	 43.70	
 18.703	169.441	 74.62881	-20.15597	 82.47000	 36.27590	 15.44554	 -5.60577	 92.05445	712.14001	 43.80	
 18.691	164.085	 74.57796	-19.32840	 81.15384	 41.41837	 11.07758	 -5.79836	 92.03981	712.09003	 43.80	
 18.706	158.818	 74.49867	-18.17655	 79.40415	 46.03903	  6.76774	 -6.01510	 92.01937	712.09003	 43.80	
 18.695	153.537	 74.48886	-16.66652	 77.25666	 50.76423	  2.61031	 -6.19638	 92.00944	712.07001	 43.80	
 18.704	148.255	 74.46721	-14.96455	 74.61557	 55.29715	 -1.19164	 -6.29568	 92.00494	712.10999	 43.80	
 18.698	142.952	 74.49788	-12.85591	 71.42117	 59.84053	 -4.61609	 -6.30882	 91.99684	712.21002	 43.80	
 18.699	137.625	 74.52956	-10.52159	 68.02811	 64.27689	 -7.71413	 -6.32178	 92.04242	712.19000	 43.80	
 18.705	132.343	 74.51397	 -7.86652	 64.22209	 68.10951	-10.49817	 -6.46218	 92.05205	712.25000	 43.80	
 18.713	127.067	 74.47350	 -4.99872	 59.98008	 71.28677	-13.10768	 -6.39837	 91.98582	712.14001	 43.90	
 18.700	121.794	 74.55643	 -1.72013	 55.49359	 74.55373	-15.20661	 -6.37144	 92.00823	712.17999	 43.90	
 18.698	116.504	 74.57913	  1.85172	 50.95145	 77.35194	-17.10077	 -6.22669	 92.04768	712.13000	 43.90	
 18.707	111.165	 74.59823	  5.87357	 46.06500	 79.57358	-18.60568	 -6.09808	 92.07618	712.13000	 43.90	
 18.690	105.863	 74.62630	 10.18235	 41.07590	 81.31912	-19.64367	 -6.06388	 92.04223	712.20001	 43.90	
 18.696	100.583	 74.65546	 14.70814	 36.12883	 82.68962	-20.49459	 -6.13178	 92.05297	712.22998	 43.90	
 18.700	 95.309	 74.75395	 19.39900	 31.29094	 83.57194	-20.99424	 -6.20026	 92.11486	712.25000	 43.90	
 18.700	 90.000	 74.83548	 24.15776	 26.69379	 83.86105	-21.12941	 -6.34532	 92.08847	712.21002	 43.90	
 18.700	 84.691	 74.90953	 28.59445	 22.46425	 83.70760	-20.21822	 -6.58921	 92.09064	712.20001	 43.90	
 18.696	 79.417	 75.04232	 32.81404	 18.29240	 83.13261	-19.63060	 -6.70425	 92.10229	712.15002	 43.90	
 18.690	 74.137	 75.20586	 37.78956	 13.64155	 82.00765	-18.72914	 -6.59979	 92.09696	712.13000	 43.90	
 18.707	 68.835	 75.32830	 42.73571	  9.51498	 80.36691	-17.63243	 -6.52393	 92.10870	712.16998	 43.90	
 18.698	 63.496	 75.54839	 47.81684	  5.69049	 78.35845	-16.18232	 -6.46628	 92.15987	712.09998	 44.00	
 18.700	 58.206	 75.72315	 52.61124	  2.05119	 75.89237	-14.53262	 -6.34650	 92.18272	712.20001	 44.00	
 18.713	 52.933	 75.80421	 57.10369	 -1.32946	 72.82225	-12.54135	 -6.24547	 92.13740	712.21997	 44.00	
 18.705	 47.657	 75.95557	 61.41817	 -4.37244	 69.63673	-10.20219	 -6.16104	 92.13319	712.26001	 44.00	
 18.699	 42.375	 76.16999	 65.44009	 -7.10464	 66.06070	 -7.52649	 -6.02870	 92.20433	712.33002	 44.00	
 18.698	 37.048	 76.32340	 69.12513	 -9.54426	 61.96553	 -4.64598	 -5.96556	 92.16982	712.35999	 44.00	
 18.704	 31.745	 76.50083	 72.45536	-11.68723	 57.42114	 -1.28068	 -5.98240	 92.19926	712.35999	 44.00	
 18.695	 26.463	 76.66155	 75.27904	-13.49222	 53.00151	  2.46719	 -5.89618	 92.21746	712.27002	 44.00	
 18.706	 21.182	 76.82590	 77.70496	-14.95870	 48.33615	  6.66343	 -5.69262	 92.27338	712.16998	 44.00	
 18.691	 15.915	 77.02780	 79.61884	-16.09991	 43.48562	 11.20622	 -5.55853	 92.26008	712.20001	 44.00	
 18.703	 10.559	 77.03020	 81.05621	-17.13951	 38.79118	 15.65010	 -5.40064	 92.24935	712.29999	 44.00	
 18.709	  5.325	 77.28931	 81.99190	-17.61598	 33.91032	 20.11607	 -5.31088	 92.26079	712.23999	 44.00	
 18.700	  0.000	 77.53715	 82.40809	-17.64958	 29.25127	 24.23532	 -5.10790	 92.29063	712.35999	 44.00	
 18.709	 -5.325	 77.67035	 82.30473	-17.27923	 25.10542	 28.66715	 -4.50342	 92.27472	712.28003	 44.00	
 18.703	-10.559	 77.79381	 81.70799	-16.77969	 20.61667	 33.79051	 -4.32037	 92.27734	712.27002	 44.00	
 18.691	-15.915	 77.96738	 80.62611	-15.72640	 15.78833	 38.80378	 -4.24213	 92.29216	712.15002	 44.00	
 18.706	-21.182	 78.03685	 79.09707	-14.67207	 11.56620	 43.74158	 -4.21573	 92.28117	712.37000	 44.10	
 18.695	-26.463	 78.10872	 77.02248	-13.11791	  7.59027	 48.61424	 -4.21961	 92.29475	712.25000	 44.10	
 18.704	-31.745	 78.16808	 74.57368	-11.30088	  3.91286	 53.54636	 -4.17892	 92.33617	712.28998	 44.10	
 18.698	-37.048	 78.22064	 71.56154	 -9.15899	  0.50729	 58.10474	 -4.07338	 92.33170	712.28003	 44.10	
 18.699	-42.375	 78.20579	 68.03468	 -6.77804	 -2.72131	 62.32761	 -4.20278	 92.33157	712.29999	 44.10	
 18.705	-47.657	 78.20283	 64.23642	 -4.02968	 -5.58171	 66.28594	 -4.03999	 92.37501	712.26001	 44.10	
 18.713	-52.933	 78.18243	 60.17096	 -0.97775	 -8.04778	 69.89285	 -4.02467	 92.34097	712.33002	 44.10	
 18.700	-58.206	 78.18012	 55.74327	  2.31870	-10.21699	 72.96325	 -3.98874	 92.34099	712.28998	 44.10	
 18.698	-63.496	 78.14203	 51.16436	  5.97289	-12.10742	 75.73538	 -4.03884	 92.36089	712.34003	 44.10	
 18.707	-68.835	 78.03107	 46.12826	  9.96633	-13.68974	 77.98872	 -3.89407	 92.32923	712.28998	 44.10	
 18.690	-74.137	 78.03673	 41.21404	 14.14584	-14.94291	 79.81681	 -3.79934	 92.37629	712.31000	 44.10	
 18.696	-79.417	 77.89330	 36.16823	 18.78645	-16.04223	 81.01984	 -3.78684	 92.35661	712.33002	 44.10	
 18.700	-84.691	 77.82387	 31.24231	 23.50959	-16.60231	 81.93633	 -3.67122	 92.41527	712.35999	 44.10	
 18.700	-90.000	 77.73681	 27.09639	 27.44428	-16.87586	 82.17109	 -3.50667	 92.42474	712.27002	 44.10	
 18.700	-95.309	 77.62553	 22.54332	 31.88301	-16.86086	 81.88357	 -3.39687	 92.42403	712.35999	 44.10	
 18.696	-100.583	 77.51964	 17.73721	 36.85937	-16.28656	 81.07988	 -3.38284	 92.40018	712.22998	 44.10	
 18.690	-105.863	 77.47915	 13.07312	 41.86953	-15.30530	 79.69163	 -3.41017	 92.44299	712.34003	 44.10	
 18.707	-111.165	 77.30647	  8.72506	 46.81928	-14.25495	 77.81850	 -3.39917	 92.41563	712.34998	 44.10	
 18.698	-116.504	 77.16019	  4.55598	 51.66307	-12.74991	 75.50138	 -3.41707	 92.36916	712.32001	 44.10	
 18.700	-121.794	 76.99928	  0.66393	 56.24549	-10.97653	 72.65437	 -3.48110	 92.34466	712.28003	 44.10	
 18.713	-127.067	 76.89530	 -2.85215	 60.73873	 -8.88577	 69.57747	 -3.55284	 92.41470	712.26001	 44.10	
 18.705	-132.343	 76.56990	 -6.02444	 64.89553	 -6.46438	 65.87606	 -3.58065	 92.36634	712.26001	 44.10	
 18.699	-137.625	 76.47833	 -8.90858	 68.69175	 -3.68616	 62.03456	 -3.59028	 92.42509	712.28998	 44.10	
 18.698	-142.952	 76.37337	-11.45805	 72.15416	 -0.56743	 57.81421	 -3.62793	 92.45192	712.28003	 44.10	
 18.704	-148.255	 76.14911	-13.78557	 75.25704	  2.70500	 53.22195	 -3.70315	 92.41443	712.34003	 44.10	
 18.695	-153.537	 75.97919	-15.71586	 77.91737	  6.31712	 48.24185	 -3.76529	 92.44038	712.29999	 44.10	
 18.706	-158.818	 75.80143	-17.30194	 80.05020	 10.20915	 43.40244	 -3.86379	 92.46245	712.21997	 44.10	
 18.691	-164.085	 75.58743	-18.56885	 81.67084	 14.26631	 38.41465	 -3.99240	 92.42842	712.29999	 44.10	
 18.703	-169.441	 75.42850	-19.59901	 82.96281	 18.56171	 33.21893	 -4.19505	 92.44425	712.34003	 44.10	
 18.709	-174.675	 75.25854	-20.18156	 83.67885	 23.58462	 28.02661	 -4.38431	 92.43518	712.23999	 44.00	
 18.700	180.000	 75.20625	-20.49895	 83.86868	 27.86039	 23.77759	 -4.74811	 92.48025	712.29999	 44.00	
 20.400	180.000	 71.68407	-26.34396	 86.08603	 25.43743	 21.07069	 -4.38044	 92.45832	712.26001	 44.00	
 20.401	-175.153	 71.88532	-25.37520	 85.95049	 20.68466	 25.52497	 -4.16013	 92.45036	712.20001	 44.00	
 20.407	-170.264	 71.86450	-24.85150	 85.30652	 16.12526	 30.45381	 -3.95764	 92.46262	712.21997	 44.00	
 20.410	-165.423	 71.98547	-24.03551	 84.16005	 11.87739	 35.57439	 -3.86106	 92.42384	712.27002	 44.00	
 20.392	-160.496	 72.19790	-22.84191	 82.60531	  7.79217	 40.72975	 -3.67634	 92.45720	711.65002	 44.00	
 20.401	-155.705	 72.38377	-21.41021	 80.69169	  3.93048	 45.60969	 -3.57179	 92.44173	711.51001	 43.90	
 20.405	-150.835	 72.64838	-19.72739	 78.36472	  0.21672	 50.43444	 -3.46277	 92.49910	712.25000	 43.90	
 20.397	-145.903	 72.88160	-17.57128	 75.48138	 -3.14155	 55.37521	 -3.37616	 92.48257	711.50000	 43.90	
 20.392	-141.062	 73.01926	-15.27916	 72.10681	 -6.26240	 59.81120	 -3.32454	 92.44914	712.22998	 43.90	
 20.396	-136.227	 73.17223	-12.75081	 68.70462	 -9.13104	 63.91548	 -3.32628	 92.48941	712.02002	 43.90	
 20.408	-131.372	 73.37312	 -9.92546	 64.94434	-11.68604	 67.77458	 -3.36080	 92.53073	711.57001	 43.90	
 20.410	-126.511	 73.54205	 -6.83280	 60.60156	-14.00763	 71.42290	 -3.26628	 92.52370	711.65997	 43.90	
 20.400	-121.604	 73.72492	 -3.33010	 56.09316	-16.00817	 74.70585	 -3.28551	 92.54827	712.40997	 43.90	
 20.403	-116.741	 73.82038	  0.33841	 51.44138	-17.73322	 77.36626	 -3.19545	 92.51435	711.59998	 43.90	
 20.413	-111.900	 73.94041	  4.31117	 46.63675	-19.21981	 79.77762	 -3.22531	 92.52417	711.59998	 43.90	
 20.398	-107.004	 74.04797	  8.62819	 41.53942	-20.43435	 81.68262	 -3.14667	 92.50888	712.40002	 43.90	
 20.394	-102.132	 74.15624	 13.12861	 36.63997	-21.40808	 83.02785	 -3.17672	 92.53046	712.34003	 43.90	
 20.403	-97.332	 74.24158	 17.77198	 31.74445	-22.04834	 83.96201	 -3.14400	 92.49479	711.82001	 43.90	
 20.392	-92.440	 74.39252	 22.62081	 27.05634	-22.36702	 84.51681	 -3.16036	 92.52480	712.37000	 43.90	
 20.392	-87.560	 74.50738	 26.78277	 23.01803	-22.22686	 84.59941	 -3.35938	 92.54160	712.40002	 43.90	
 20.403	-82.668	 74.60236	 31.25841	 18.44750	-21.71519	 84.11797	 -3.55055	 92.52916	712.38000	 43.90	
 20.394	-77.868	 74.66714	 35.96663	 14.03600	-21.02240	 83.19810	 -3.60685	 92.47475	712.31000	 43.90	
 20.398	-72.996	 74.74348	 41.11563	  9.76818	-20.10762	 81.87612	 -3.60570	 92.49584	711.98999	 43.90	
 20.413	-68.100	 74.75231	 46.02314	  5.70055	-18.88708	 80.05867	 -3.69397	 92.47509	712.03998	 43.90	
 20.403	-63.259	 74.86290	 51.00907	  1.88599	-17.29156	 77.70020	 -3.74355	 92.49805	712.33002	 43.90	
 20.400	-58.396	 74.91533	 55.62461	 -1.68257	-15.43978	 75.00935	 -3.80930	 92.46600	712.00000	 43.90	
 20.410	-53.489	 74.92275	 60.16436	 -5.01494	-13.36082	 71.85358	 -3.82645	 92.49128	711.59003	 43.90	
 20.408	-48.628	 75.01834	 64.41093	 -8.04770	-10.92910	 68.30786	 -3.84490	 92.54451	711.63000	 43.90	
 20.396	-43.773	 75.01151	 68.25395	-10.76023	 -8.29126	 64.27077	 -3.85981	 92.53018	712.32001	 43.90	
 20.392	-38.938	 75.09435	 71.87453	-13.18315	 -5.26029	 60.36620	 -3.91196	 92.56763	711.59003	 43.90	
 20.397	-34.097	 75.01730	 75.07933	-15.44525	 -2.03266	 55.81064	 -4.01665	 92.53055	711.54999	 43.90	
 20.405	-29.165	 74.95864	 77.83345	-17.42464	  1.45344	 50.93320	 -4.06756	 92.50837	711.56000	 43.90	
 20.401	-24.295	 74.90275	 80.21098	-19.11630	  5.21545	 46.11892	 -4.09842	 92.54317	711.63000	 43.90	
 20.392	-19.504	 74.88451	 82.06352	-20.26725	  9.21682	 41.27351	 -4.13692	 92.55270	712.34998	 43.90	
 20.410	-14.577	 74.79806	 83.53485	-21.28734	 13.53113	 36.05217	 -4.17450	 92.56025	712.28998	 43.90	
 20.407	 -9.736	 74.67913	 84.47939	-22.12938	 17.83370	 30.83729	 -4.26835	 92.57513	712.25000	 43.90	
 20.401	 -4.847	 74.58131	 85.03307	-22.77202	 22.93914	 25.96983	 -4.40914	 92.61928	712.37000	 43.90	
 20.400	  0.000	 74.41766	 85.07977	-23.08023	 27.09108	 21.65390	 -4.99026	 92.59121	712.33002	 43.90	
 20.401	  4.847	 74.24300	 84.70000	-23.06171	 31.47258	 17.36772	 -5.39812	 92.56892	711.90997	 43.80	
 20.407	  9.736	 74.06422	 83.84170	-22.60135	 36.31022	 13.09165	 -5.48563	 92.59319	711.59998	 43.80	
 20.410	 14.577	 73.93599	 82.56017	-21.82120	 41.10243	  8.54747	 -5.62732	 92.61089	711.56000	 43.80	
 20.392	 19.504	 73.84759	 80.74938	-20.56281	 45.86947	  4.14341	 -5.90145	 92.58620	711.66998	 43.80	
 20.401	 24.295	 73.65527	 78.52461	-19.29136	 50.59364	  0.08114	 -6.03272	 92.60644	711.64001	 43.90	
 20.405	 29.165	 73.50597	 75.88396	-17.66835	 55.12634	 -3.46613	 -6.18755	 92.59102	711.65002	 43.90	
 20.397	 34.097	 73.36598	 72.74959	-15.62706	 59.69163	 -6.70725	 -6.33224	 92.60191	712.22998	 43.90	
 20.392	 38.938	 73.25063	 69.31195	-13.46797	 64.14355	 -9.75959	 -6.42777	 92.63303	712.08002	 43.90	
 20.396	 43.773	 73.07725	 65.55566	-11.05342	 68.03185	-12.65045	 -6.53718	 92.65533	712.25000	 43.90	
 20.408	 48.628	 72.88229	 61.50205	 -8.37710	 71.46413	-15.35412	 -6.63913	 92.59694	712.15002	 43.80	
 20.410	 53.489	 72.71009	 57.03500	 -5.34535	 74.86795	-17.73013	 -6.86338	 92.61075	711.48999	 43.80	
 20.400	 58.396	 72.56169	 52.43869	 -1.99757	 77.93053	-19.78473	 -6.99042	 92.63334	711.67999	 43.80	
 20.403	 63.259	 72.37875	 47.59477	  1.52778	 80.36695	-21.54436	 -7.08714	 92.64937	711.58002	 43.80	
 20.413	 68.100	 72.17953	 42.64226	  5.26130	 82.51566	-23.09605	 -7.03829	 92.61176	711.62000	 43.80	
 20.398	 72.996	 72.14019	 37.50037	  9.29982	 84.15655	-24.23567	 -7.12709	 92.56748	711.58002	 43.80	
 20.394	 77.868	 71.96801	 32.71147	 13.50902	 85.35545	-25.10810	 -7.17796	 92.57906	711.96997	 43.80	
 20.403	 82.668	 71.94147	 28.18209	 17.64198	 86.14494	-25.81987	 -7.18211	 92.61134	711.97998	 43.80	
 20.392	 87.560	 71.70498	 24.02619	 21.58636	 86.44337	-26.48023	 -6.75281	 92.58954	712.09003	 43.80	
 20.392	 92.440	 71.59069	 19.14758	 26.40745	 86.38769	-26.58119	 -6.65076	 92.58927	711.59998	 43.80	
 20.403	 97.332	 71.50714	 14.35874	 31.19325	 85.89059	-26.36503	 -6.60135	 92.58873	711.59998	 43.80	
 20.394	102.132	 71.51208	  9.87352	 36.00073	 84.89040	-25.65327	 -6.54890	 92.58624	711.59998	 43.80	
 20.398	107.004	 71.61864	  5.61158	 40.91627	 83.53439	-24.72513	 -6.52986	 92.67199	712.06000	 43.70	
 20.413	111.900	 71.51459	  1.52548	 45.92816	 81.56694	-23.59710	 -6.52191	 92.61991	711.63000	 43.70	
 20.403	116.741	 71.53007	 -2.23868	 50.79910	 79.35616	-22.09108	 -6.53679	 92.63468	711.57001	 43.70	
 20.400	121.604	 71.57909	 -5.72737	 55.43589	 76.66422	-20.23370	 -6.60081	 92.65712	711.60999	 43.70	
 20.410	126.511	 71.53977	 -9.01111	 59.89663	 73.36210	-18.04532	 -6.59403	 92.61956	711.58002	 43.70	
 20.408	131.372	 71.53990	-11.93666	 64.41357	 69.99796	-15.51881	 -6.50049	 92.63794	711.59003	 43.70	
 20.396	136.227	 71.56057	-14.56209	 68.28161	 66.30956	-12.89386	 -6.44826	 92.66582	711.56000	 43.70	
 20.392	141.062	 71.54378	-16.90376	 71.76856	 62.10629	 -9.83313	 -6.41885	 92.67963	711.66998	 43.70	
 20.397	145.903	 71.57198	-19.00705	 75.19539	 57.64016	 -6.73847	 -6.35057	 92.68530	711.67999	 43.70	
 20.405	150.835	 71.54479	-21.91884	 78.11773	 52.99537	 -3.51093	 -6.16751	 92.62559	711.71997	 43.70	
 20.401	155.705	 71.55786	-23.53193	 80.53922	 48.35224	  0.08725	 -5.97208	 92.65005	711.57001	 43.70	
 20.392	160.496	 71.55499	-23.85254	 82.51435	 43.77189	  4.07674	 -5.73947	 92.63448	711.59998	 43.70	
 20.410	165.423	 71.56533	-24.94564	 84.18044	 38.77792	  8.57795	 -5.48600	 92.62785	711.65002	 43.70	
 20.407	170.264	 71.56832	-25.70484	 85.34845	 34.04003	 13.23578	 -5.27135	 92.65795	711.65002	 43.70	
 20.401	175.153	 71.74034	-26.01771	 86.02145	 29.16371	 17.80029	 -5.00771	 92.63615	711.58002	 43.70	
  0.141	 45.000	 92.89281	 39.00675	 41.13796	 42.40671	 37.75510	  1.05277	 92.67649	711.64001	 43.70	
  4.001	128.691	 92.35806	 30.60348	 48.10055	 50.59374	 28.08556	  0.33995	 92.70905	711.52002	 43.70	
  4.002	 76.995	 92.39923	 40.38278	 38.04477	 53.39132	 25.66772	  0.81229	 92.67385	711.59998	 43.70	
  4.002	 25.892	 92.64518	 48.97715	 30.22799	 46.95393	 31.96669	  1.13521	 92.70673	711.63000	 43.70	
  4.002	-25.892	 92.74397	 49.30229	 30.20700	 36.72584	 42.27832	  0.96071	 92.65076	711.58002	 43.70	
  4.002	-76.995	 92.71449	 41.09931	 38.11088	 30.18017	 49.25806	  0.45735	 92.64307	711.67999	 43.70	
  4.001	-128.691	 92.57153	 31.04309	 48.14952	 32.18085	 46.68063	  0.08757	 92.65128	711.53003	 43.70	
  4.000	180.000	 92.37759	 26.49536	 52.75555	 41.17513	 37.14411	 -0.01643	 92.66061	711.62000	 43.70	
  8.000	180.000	 90.16965	 13.96087	 63.07085	 39.16447	 35.17781	 -1.81306	 92.64461	711.60999	 43.70	
  7.991	-152.370	 90.48712	 16.82582	 60.28209	 28.60832	 46.34044	 -1.70519	 92.66100	711.59003	 43.70	
  7.997	-124.550	 90.85563	 23.70318	 52.44911	 21.64104	 55.73477	 -1.60825	 92.69247	711.62000	 43.70	
  8.006	-96.837	 91.13128	 34.26098	 41.53528	 18.26237	 60.12918	 -1.47479	 92.69880	711.69000	 43.60	
  7.988	-69.228	 91.22397	 45.67315	 30.31111	 19.47947	 58.78806	 -1.04608	 92.62189	711.71997	 43.60	
  7.997	-41.563	 91.30000	 55.13084	 21.76551	 24.66046	 51.90057	 -0.67032	 92.67567	711.64001	 43.60	
  8.008	-13.821	 91.15668	 60.39692	 16.98465	 34.36943	 41.01756	 -0.27917	 92.64001	711.71002	 43.60	
  8.008	 13.821	 90.89600	 60.07834	 16.99238	 45.74277	 29.36319	  0.00602	 92.67893	711.64001	 43.60	
  7.997	 41.563	 90.58248	 54.09839	 21.73588	 56.19603	 19.53097	 -0.21632	 92.68005	711.71002	 43.60	
  7.988	 69.228	 90.30484	 44.19135	 30.32393	 62.70794	 13.98679	 -0.38250	 92.71933	711.65997	 43.60	
  8.006	 96.837	 90.02084	 32.80360	 41.28396	 63.76991	 12.80263	 -0.76879	 92.65468	711.65997	 43.60	
  7.997	124.550	 89.94523	 22.76984	 52.04021	 59.41880	 16.59195	 -1.15606	 92.64037	711.71002	 43.60	
  7.991	152.370	 90.00252	 16.31649	 60.34460	 50.10677	 24.16509	 -1.55154	 92.64487	711.65002	 43.60	
 12.009	161.059	 85.90797	  2.01840	 70.01800	 47.08014	 21.01324	 -3.82865	 92.66298	711.54999	 43.60	
 12.013	142.081	 85.72545	  7.06211	 64.03071	 57.94455	 12.05404	 -3.63993	 92.62896	711.64001	 43.50	
 12.006	123.113	 85.77624	 14.61706	 54.79668	 66.44926	  5.25270	 -3.55948	 92.67186	711.71997	 43.50	
 12.007	104.200	 85.89197	 23.74693	 43.86370	 71.44427	  1.22666	 -3.14773	 92.71128	711.62000	 43.50	
 11.989	 85.301	 86.10851	 35.02880	 32.32178	 72.74255	  0.66452	 -2.65192	 92.69763	711.59998	 43.50	
 12.013	 66.294	 86.35082	 46.67514	 22.03294	 69.91122	  2.98985	 -3.02547	 92.71153	711.53998	 43.50	
 12.012	 47.388	 86.61587	 57.11338	 13.77602	 63.74774	  8.27736	 -2.77491	 92.68306	711.58002	 43.50	
 11.990	 28.440	 87.09787	 64.97440	  7.48773	 53.89650	 16.47095	 -2.74900	 92.66088	711.71997	 43.50	
 11.991	  9.464	 87.48460	 69.57095	  4.12532	 42.88991	 26.46760	 -2.13155	 92.69856	711.60999	 43.50	
 11.991	 -9.464	 87.75622	 70.00011	  4.19475	 31.43381	 38.28490	 -2.17770	 92.66111	711.60999	 43.50	
 11.990	-28.440	 87.91251	 66.18657	  7.18860	 21.92962	 49.57961	 -2.49292	 92.66129	711.63000	 43.50	
 12.012	-47.388	 87.97885	 58.89960	 13.75378	 13.37413	 59.82337	 -3.24466	 92.71784	711.83002	 43.60	
 12.013	-66.294	 87.92223	 48.85308	 22.39102	  7.51619	 66.14952	 -3.18040	 92.65676	711.71002	 43.60	
 11.989	-85.301	 87.85281	 37.20875	 32.68157	  5.13068	 69.32069	 -3.28455	 92.70441	711.67999	 43.50	
 12.007	-104.200	 87.57805	 25.70948	 44.26829	  5.62403	 68.18528	 -3.37753	 92.69971	711.62000	 43.50	
 12.006	-123.113	 87.19068	 15.94414	 55.20333	  9.10379	 62.87350	 -3.24795	 92.65862	711.69000	 43.50	
 12.013	-142.081	 86.75397	  8.12151	 64.34792	 16.54446	 54.71772	 -3.47885	 92.65259	711.73999	 43.50	
 12.009	-161.059	 86.43953	  3.04469	 70.15543	 25.53877	 43.53650	 -3.45961	 92.66895	711.71002	 43.50	
 16.000	180.000	 80.36277	-11.99483	 79.75351	 31.22257	 27.27116	 -4.93265	 92.70683	711.67999	 43.50	
 15.990	-165.604	 80.60777	-10.75571	 78.32361	 21.35112	 39.02299	 -4.31113	 92.67507	711.72998	 43.60	
 16.002	-151.165	 81.01585	 -6.98557	 73.70618	 11.07287	 50.67089	 -4.09908	 92.67561	711.63000	 43.50	
 16.002	-136.836	 81.32981	 -1.12667	 66.30453	  3.24472	 61.03315	 -3.97846	 92.65646	711.67999	 43.50	
 15.995	-122.439	 81.73215	  6.87223	 56.51350	 -2.75627	 69.33060	 -3.82647	 92.65762	711.69000	 43.60	
 15.993	-107.966	 82.14011	 16.93806	 45.44970	 -6.53885	 75.06167	 -3.73898	 92.68264	711.70001	 43.60	
 16.005	-93.629	 82.39634	 27.46131	 33.72974	 -8.10144	 77.63477	 -3.78912	 92.73422	711.65002	 43.60	
 15.992	-79.234	 82.52614	 38.85092	 23.58080	 -7.28821	 76.76240	 -4.14179	 92.63700	711.70001	 43.60	
 16.009	-64.774	 82.68771	 50.45625	 12.73992	 -4.35994	 72.82429	 -4.31978	 92.65520	711.71002	 43.60	
 15.997	-50.364	 82.77649	 60.96346	  4.34310	  0.71174	 65.76179	 -4.27452	 92.69415	711.71002	 43.60	
 15.997	-36.045	 82.71734	 69.38426	 -2.09942	  7.68230	 56.73615	 -4.17231	 92.66805	711.67999	 43.60	
 16.000	-21.597	 82.61618	 75.29897	 -6.54364	 17.35688	 45.17731	 -4.14536	 92.63290	711.71002	 43.60	
 16.003	 -7.169	 82.48996	 78.14633	 -8.48003	 27.95922	 33.57095	 -4.21767	 92.73148	711.71002	 43.50	
 16.003	  7.169	 82.09931	 77.74030	 -8.90655	 38.50671	 22.93847	 -4.70253	 92.68902	711.72998	 43.50	
 16.000	 21.597	 81.74632	 74.12026	 -6.64998	 49.89214	 12.41367	 -4.76319	 92.66562	711.58002	 43.50	
 15.997	 36.045	 81.35987	 67.39739	 -2.30211	 60.85045	  2.83298	 -4.88736	 92.68938	711.70001	 43.50	
 15.997	 50.364	 81.06160	 58.52216	  4.13210	 69.55289	 -4.34788	 -5.07259	 92.79405	711.63000	 43.50	
 16.009	 64.774	 80.62821	 47.61777	 12.76517	 76.07207	 -9.26635	 -5.28997	 92.70963	711.64001	 43.50	
 15.992	 79.234	 80.41391	 36.04520	 22.99927	 79.56680	-11.34416	 -5.50619	 92.74847	711.62000	 43.50	
 16.005	 93.629	 80.14225	 25.22290	 33.28886	 80.12296	-12.01876	 -5.30918	 92.73201	711.65997	 43.40	
 15.993	107.966	 79.94693	 14.36801	 44.95285	 77.64384	-10.74175	 -5.16573	 92.67846	711.64001	 43.40	
 15.995	122.439	 79.85842	  4.68997	 56.09437	 71.87962	 -7.19278	 -5.47698	 92.67716	711.65002	 43.40	
 16.002	136.836	 79.83590	 -2.73006	 65.90575	 63.97216	 -1.06186	 -5.69280	 92.63460	711.63000	 43.40	
 16.002	151.165	 79.90019	 -8.38457	 73.47440	 53.49830	  7.62781	 -5.57837	 92.68160	711.71002	 43.40	
 15.990	165.604	 80.15497	-11.48036	 78.24853	 42.37568	 17.41340	 -5.56488	 92.73849	711.73999	 43.40	
 20.003	168.362	 72.39366	-24.24520	 84.47122	 36.33819	 12.27465	 -5.50995	 92.66251	711.75000	 43.40	
 20.008	156.764	 72.30402	-21.65162	 80.61687	 47.54363	  1.82895	 -6.04311	 92.66707	711.70001	 43.40	
 20.000	145.147	 72.41315	-17.55575	 74.35444	 58.31833	 -6.26092	 -6.42199	 92.63889	711.64001	 43.40	
 19.995	133.545	 72.31769	-12.10181	 66.08192	 68.27968	-13.26502	 -6.54249	 92.68298	711.59003	 43.40	
 20.009	121.926	 72.31606	 -5.01142	 55.84629	 76.15543	-18.90849	 -6.59830	 92.70193	711.76001	 43.40	
 20.005	110.327	 72.33102	  3.67103	 44.68125	 81.81660	-22.71685	 -6.46868	 92.65217	711.73999	 43.40	
 19.989	 98.733	 72.47679	 13.79396	 33.18193	 85.23775	-24.84421	 -6.55532	 92.70195	711.83002	 43.40	
 19.999	 87.075	 72.60828	 24.99705	 21.97618	 85.99091	-25.13502	 -6.78305	 92.64908	711.78003	 43.40	
 19.992	 75.457	 72.92935	 35.32486	 12.18626	 84.42064	-23.44667	 -7.13617	 92.65650	711.72998	 43.40	
 20.009	 63.844	 73.24763	 47.19117	  2.86756	 80.30717	-20.55770	 -7.01609	 92.70273	711.81000	 43.40	
 19.989	 52.269	 73.74876	 58.21785	 -5.03777	 73.80681	-15.96987	 -6.72929	 92.71368	711.71997	 43.40	
 19.999	 40.602	 74.10005	 67.89017	-11.56462	 65.47003	 -9.69592	 -6.43444	 92.71984	711.81000	 43.40	
 20.004	 29.051	 74.46362	 75.62871	-16.51830	 55.25733	 -2.46460	 -6.19511	 92.70068	711.89001	 43.40	
 20.005	 17.433	 74.77023	 81.11804	-19.88743	 44.11154	  6.91320	 -5.84860	 92.63839	711.78003	 43.40	
 20.006	  5.780	 75.05637	 84.08899	-21.78845	 32.92463	 17.58224	 -5.43151	 92.64404	711.76001	 43.40	
 20.006	 -5.780	 75.42212	 84.42426	-21.43708	 22.76151	 27.53516	 -4.43849	 92.64407	711.76001	 43.40	
 20.005	-17.433	 75.77187	 82.33402	-19.48090	 11.94208	 39.46684	 -4.22292	 92.68540	711.77002	 43.40	
 20.004	-29.051	 75.91956	 77.56112	-16.21013	  2.62894	 51.00540	 -4.19532	 92.64325	711.79999	 43.40	
 19.999	-40.602	 75.93674	 70.46004	-11.27303	 -5.17925	 61.67328	 -3.97265	 92.62881	711.66998	 43.40	
 19.989	-52.269	 75.93811	 61.25610	 -4.65621	-11.44978	 70.72476	 -3.91378	 92.60204	711.59998	 43.40	
 20.009	-63.844	 75.75365	 50.60392	  3.24148	-16.25905	 77.59270	 -3.77500	 92.58937	711.59003	 43.40	
 19.992	-75.457	 75.63068	 38.94217	 12.74125	-19.31875	 82.14590	 -3.60692	 92.58906	711.69000	 43.40	
 19.999	-87.075	 75.34332	 27.71421	 23.32765	-20.95679	 84.05668	 -3.43486	 92.55792	711.66998	 43.40	
 19.989	-98.733	 75.10471	 17.14391	 33.67293	-20.64847	 83.21996	 -3.20092	 92.56324	711.67999	 43.40	
 20.005	-110.327	 74.90926	  6.66645	 45.27432	-18.39805	 79.99845	 -3.26171	 92.59227	711.60999	 43.40	
 20.009	-121.926	 74.56290	 -2.63703	 56.45525	-14.77709	 74.15189	 -3.37780	 92.59999	711.78003	 43.40	
 19.995	-133.545	 74.18253	-10.17000	 66.53387	 -9.47897	 65.81750	 -3.44468	 92.59306	711.65997	 43.40	
 20.000	-145.147	 73.77146	-16.14360	 74.68889	 -2.64629	 56.08648	 -3.46229	 92.51907	711.83002	 43.40	
 20.008	-156.764	 73.26687	-20.61078	 80.78365	  5.64854	 44.80487	 -3.67317	 92.55254	711.65002	 43.40	
 20.003	-168.362	 72.82026	-23.37875	 84.44027	 15.18152	 32.98904	 -4.03928	 92.50135	711.71002	 43.40	
 20.000	180.000	 72.56378	-24.51999	 85.64957	 26.09302	 21.73881	 -4.48044	 92.55701	711.65997	 43.50	
