FileType=PCF
NHL=14
Date=05/29/19	15:37:26
Facility=APL
Serial=16071-12
Customer=NASA
NP=6
Mach=0.550000
Calibration=1:1
CalPts=490
TstPts=95
PortNumbering=AP Standard
Units=Torr C m/s kg/m^3 deg mm 
Theta[deg]	Phi[deg]	P1[Torr]	P2[Torr]	P3[Torr]	P4[Torr]	P5[Torr]	P6[Torr]	Pt[Torr]	Ps[Abs,Torr]	Ts[C]	
  0.000	  0.000	159.91708	 72.26029	 77.47411	 72.34945	 74.10032	  4.27922	159.78627	701.32001	 43.60	
  1.691	128.401	160.00406	 67.23355	 82.05061	 78.37799	 67.77097	  4.09318	159.91852	701.21002	 43.70	
  1.692	 77.194	160.11249	 73.88596	 75.81519	 80.17760	 66.22520	  4.26293	159.99333	701.21997	 43.80	
  1.699	 26.182	160.13870	 79.49584	 70.05327	 76.28895	 70.30975	  4.34912	160.00873	701.10999	 43.80	
  1.699	-26.182	160.07616	 79.57962	 69.83382	 68.80836	 77.38659	  4.22727	159.96225	701.21997	 43.90	
  1.692	-77.194	160.07938	 74.06125	 75.38483	 64.21696	 81.82796	  4.08414	159.96162	701.14001	 43.90	
  1.691	-128.401	160.09497	 67.33235	 81.86009	 65.47771	 80.40888	  3.96835	160.01898	701.20001	 44.10	
  1.700	180.000	160.08508	 64.19103	 84.87624	 72.11828	 74.06618	  3.94401	160.01025	701.13000	 44.10	
  3.400	180.000	159.75807	 56.28141	 92.28828	 71.07041	 73.61737	  3.34180	160.05365	701.20001	 44.10	
  3.388	-152.325	159.75685	 58.06832	 90.29293	 63.65945	 81.20529	  3.32744	160.05838	701.13000	 44.10	
  3.397	-124.529	159.83733	 62.96463	 85.03942	 58.46375	 86.95878	  3.41683	160.10817	701.06000	 44.10	
  3.399	-96.763	159.92221	 70.02351	 78.27921	 56.17434	 89.55424	  3.51468	160.10245	701.16998	 44.20	
  3.394	-69.283	160.06110	 77.81778	 70.51514	 57.22853	 88.50423	  3.66315	160.17198	701.15002	 44.20	
  3.400	-41.398	160.05414	 84.18449	 64.54673	 61.51838	 84.12318	  3.76993	160.12531	701.16998	 44.20	
  3.401	-14.021	160.16974	 87.74548	 61.47625	 68.39290	 77.11025	  3.94720	160.16681	701.17999	 44.20	
  3.401	 14.021	160.17390	 87.65746	 61.61180	 76.51307	 69.31234	  4.05520	160.15257	701.12000	 44.20	
  3.400	 41.398	160.16328	 84.07347	 64.98843	 82.78878	 62.65730	  4.12738	160.15350	701.06000	 44.20	
  3.394	 69.283	160.14601	 77.54115	 71.15592	 86.91128	 58.60480	  4.06340	160.16667	701.03998	 44.20	
  3.399	 96.763	160.10217	 69.66711	 79.04515	 87.61391	 57.94048	  3.90913	160.19997	701.08002	 44.20	
  3.397	124.529	160.08781	 62.82877	 85.65305	 84.59433	 60.69039	  3.71336	160.22440	701.06000	 44.20	
  3.388	152.325	160.00092	 58.03768	 90.62728	 79.01910	 66.33234	  3.47586	160.22369	701.13000	 44.20	
  5.099	161.165	159.16928	 49.35349	 98.41311	 78.27751	 65.27715	  2.72359	160.25407	701.19000	 44.20	
  5.109	142.013	159.26462	 52.79968	 94.65388	 85.00643	 58.42464	  2.93031	160.25899	701.13000	 44.30	
  5.095	123.033	159.40643	 58.26227	 88.79427	 90.67622	 53.35647	  3.04510	160.26779	701.15002	 44.30	
  5.105	104.191	159.51015	 64.93014	 82.07922	 94.18633	 50.33074	  3.23334	160.27312	701.17999	 44.30	
  5.093	 85.207	159.64207	 72.86737	 74.24620	 95.13536	 49.54369	  3.38979	160.29851	701.17999	 44.30	
  5.104	 66.290	159.70020	 80.94545	 66.40881	 93.40633	 51.06503	  3.55000	160.29985	701.23999	 44.40	
  5.094	 47.331	159.81978	 87.49711	 60.34842	 89.24963	 55.08316	  3.59732	160.35956	701.17999	 44.50	
  5.089	 28.397	159.85515	 92.45374	 55.85763	 83.13805	 60.90489	  3.56907	160.32573	701.19000	 44.60	
  5.096	  9.576	159.88319	 95.05711	 53.45547	 76.19698	 68.40039	  3.52611	160.33228	701.21002	 44.60	
  5.096	 -9.576	159.83507	 95.32070	 53.27053	 67.58195	 76.48327	  3.37212	160.33395	701.08002	 44.60	
  5.089	-28.397	159.79100	 92.69945	 55.46480	 60.25674	 84.13374	  3.28157	160.37666	701.15997	 44.60	
  5.094	-47.331	159.70547	 87.98261	 59.71304	 54.18735	 90.42496	  3.14509	160.40706	701.12000	 44.50	
  5.104	-66.290	159.61122	 81.15497	 65.81137	 49.92285	 95.02709	  3.05115	160.37921	701.14001	 44.60	
  5.093	-85.207	159.55389	 73.25143	 73.26505	 48.10807	 97.14040	  2.92957	160.43330	701.15002	 44.60	
  5.105	-104.191	159.44963	 65.55859	 81.33105	 48.67982	 96.51814	  2.76529	160.45564	701.27002	 44.60	
  5.095	-123.033	159.36382	 58.64563	 88.18279	 51.39879	 93.22270	  2.72733	160.46199	701.10999	 44.60	
  5.109	-142.013	159.27625	 53.18278	 94.20855	 55.98371	 87.88013	  2.62987	160.45576	701.14001	 44.60	
  5.099	-161.165	159.28300	 49.59360	 98.18089	 62.57517	 80.86810	  2.61201	160.45860	701.10999	 44.60	
  5.100	180.000	159.35130	 48.40121	 99.70303	 70.02136	 73.08674	  2.63158	160.49263	701.14001	 44.60	
  6.800	180.000	157.91650	 40.22128	106.64795	 68.68390	 72.05573	  2.06969	160.47758	701.09998	 44.60	
  6.796	-166.229	157.88985	 41.20634	105.46491	 61.31016	 79.70003	  2.07637	160.47894	701.15002	 44.60	
  6.808	-152.311	157.87997	 43.67856	102.47889	 54.52077	 86.97312	  2.02630	160.48434	701.10999	 44.70	
  6.795	-138.383	157.95537	 47.87996	 97.67594	 48.73277	 93.27183	  2.03546	160.49976	701.14001	 44.70	
  6.792	-124.591	158.03447	 53.00563	 91.86018	 44.42166	 98.46394	  2.11448	160.52377	701.03998	 44.80	
  6.787	-110.754	158.15868	 59.43264	 85.11552	 41.69343	102.22851	  2.20578	160.52151	701.09998	 44.80	
  6.800	-96.985	158.25465	 66.61738	 77.85053	 40.10149	104.18451	  2.24307	160.53024	701.12000	 44.80	
  6.800	-83.015	158.41595	 74.32009	 69.92237	 40.18333	104.16090	  2.40487	160.54134	701.09003	 44.90	
  6.787	-69.246	158.48753	 81.76383	 62.92822	 41.82640	102.16811	  2.53001	160.50980	701.20001	 44.90	
  6.792	-55.409	158.63672	 88.75490	 56.64051	 45.16784	 98.39970	  2.56619	160.54764	701.12000	 44.90	
  6.795	-41.617	158.77817	 94.61560	 51.47592	 50.00746	 92.97498	  2.64970	160.56529	701.06000	 44.80	
  6.808	-27.689	158.88017	 99.18761	 47.58881	 56.09928	 86.33058	  2.79663	160.55960	701.21002	 44.90	
  6.796	-13.771	159.00966	101.97901	 45.35615	 63.20204	 78.96574	  2.86283	160.57834	701.09998	 44.90	
  6.800	  0.000	159.12157	102.88383	 44.77974	 70.93108	 71.25717	  2.92389	160.60023	701.12000	 45.00	
  6.796	 13.771	159.08197	101.86148	 45.68659	 78.98471	 63.22847	  3.00160	160.57082	701.19000	 45.00	
  6.808	 27.689	159.09338	 98.88469	 48.38684	 85.79830	 56.37639	  3.03171	160.59389	701.15002	 45.10	
  6.795	 41.617	159.02240	 94.21671	 52.39625	 92.09371	 50.53229	  2.95536	160.59064	701.13000	 45.10	
  6.792	 55.409	158.94241	 88.32213	 57.70458	 97.16212	 46.09085	  2.94515	160.56316	701.09998	 45.10	
  6.787	 69.246	158.84875	 81.39808	 64.03791	100.70692	 42.92427	  2.84809	160.57443	701.09003	 45.10	
  6.800	 83.015	158.79070	 73.67473	 71.02269	102.43886	 41.43185	  2.76789	160.58737	701.12000	 45.10	
  6.800	 96.985	158.73181	 66.10464	 79.27980	102.16481	 41.72420	  2.68159	160.60786	701.06000	 45.00	
  6.787	110.754	158.62631	 58.88670	 86.19797	 99.96702	 43.62456	  2.57769	160.60661	701.21997	 45.00	
  6.792	124.591	158.53198	 52.59571	 92.97082	 95.92312	 46.81118	  2.47363	160.62321	701.16998	 45.10	
  6.795	138.383	158.43080	 47.42812	 98.68879	 90.49421	 51.60883	  2.44337	160.66196	701.16998	 45.10	
  6.808	152.311	158.25401	 43.40799	103.20062	 84.20137	 57.46219	  2.33074	160.62645	701.21002	 45.10	
  6.796	166.229	158.19937	 41.12876	105.89619	 76.83378	 64.50439	  2.15794	160.65712	701.16998	 45.10	
  8.491	168.704	156.31555	 32.78268	112.68459	 74.91235	 62.86896	  2.00513	160.67052	701.13000	 45.10	
  8.502	157.493	156.39453	 34.55193	110.50477	 83.07273	 55.74957	  2.23488	160.67511	701.21997	 45.10	
  8.494	146.194	156.59924	 38.04617	106.66949	 89.61679	 49.43201	  2.40409	160.67744	701.28998	 45.10	
  8.495	135.039	156.76805	 42.46471	101.66084	 96.05257	 43.98778	  2.29868	160.68340	701.21997	 45.10	
  8.487	123.723	156.88455	 47.68344	 95.48132	101.65060	 39.53911	  2.20311	160.70428	701.09998	 45.20	
  8.492	112.575	157.02753	 53.85204	 88.75671	105.64512	 36.31655	  2.21479	160.73042	701.10999	 45.20	
  8.510	101.220	157.14078	 60.93434	 81.65937	108.43208	 34.09095	  2.23424	160.70007	701.19000	 45.10	
  8.500	 90.000	157.34451	 68.70994	 73.62730	109.41617	 33.56359	  2.29706	160.76923	701.16998	 45.10	
  8.510	 78.780	157.44974	 76.46635	 66.25467	108.91572	 34.15369	  2.33183	160.80505	701.07001	 45.20	
  8.492	 67.425	157.51237	 84.12574	 59.19373	106.69054	 35.92899	  2.43538	160.81671	701.14001	 45.20	
  8.487	 56.277	157.59236	 90.86222	 53.00367	103.06172	 39.11182	  2.50761	160.78705	701.10999	 45.10	
  8.495	 44.961	157.68938	 97.22928	 47.58017	 97.78583	 43.44736	  2.59061	160.78368	701.21002	 45.10	
  8.494	 33.806	157.79465	102.44395	 43.20412	 91.74995	 48.67044	  2.67378	160.79424	701.10999	 45.10	
  8.502	 22.507	157.80449	106.42955	 39.71583	 85.02485	 54.96697	  2.72046	160.79839	701.15002	 45.10	
  8.491	 11.296	157.77496	109.04332	 37.53521	 77.89117	 61.92249	  2.72746	160.74542	701.09003	 45.10	
  8.500	  0.000	157.76984	110.12896	 36.52475	 69.51859	 69.92152	  2.69559	160.79980	701.16998	 45.10	
  8.491	-11.296	157.68776	109.26437	 37.12473	 61.86533	 77.81475	  2.66660	160.79909	701.16998	 45.10	
  8.502	-22.507	157.55814	106.65594	 38.96717	 54.75376	 85.27905	  2.65817	160.78580	701.17999	 45.10	
  8.494	-33.806	157.50195	102.84812	 42.16583	 48.17568	 92.46355	  2.61115	160.83220	701.12000	 45.20	
  8.495	-44.961	157.34700	 97.86329	 46.43454	 42.57500	 98.77733	  2.45818	160.85675	701.03998	 45.20	
  8.487	-56.277	157.21597	 91.37450	 51.78065	 38.44656	104.19974	  2.43993	160.80492	701.03003	 45.30	
  8.492	-67.425	157.09122	 84.49121	 57.86747	 35.28299	108.05579	  2.41311	160.81676	701.15002	 45.30	
  8.510	-78.780	156.95804	 77.04020	 64.86797	 33.17904	110.60369	  2.35165	160.83211	701.15997	 45.30	
  8.500	-90.000	156.77200	 69.29372	 72.07156	 32.43225	111.39946	  2.18720	160.79802	701.19000	 45.30	
  8.510	-101.220	156.67633	 61.78387	 80.17289	 32.89031	110.57993	  2.08024	160.82501	701.10999	 45.30	
  8.492	-112.575	156.52888	 54.36206	 87.43951	 34.91644	108.07522	  2.02262	160.79639	701.16998	 45.40	
  8.487	-123.723	156.45628	 48.15514	 94.21946	 37.93814	104.31741	  1.94964	160.81641	701.04999	 45.40	
  8.495	-135.039	156.35327	 42.61619	100.51469	 41.29442	 99.12397	  1.87575	160.84169	701.15997	 45.40	
  8.494	-146.194	156.31560	 38.18594	105.94317	 46.49798	 92.97550	  1.85623	160.83379	701.09003	 45.40	
  8.502	-157.493	156.22800	 34.82352	109.98679	 52.75982	 86.03918	  1.92945	160.86923	701.03003	 45.30	
  8.491	-168.704	156.29692	 32.87420	112.56242	 59.82198	 78.56084	  1.98881	160.89572	701.03998	 45.30	
  8.500	180.000	156.35930	 32.19280	113.54164	 67.35329	 70.70950	  1.94740	160.88510	701.09003	 45.30	
 10.200	180.000	153.93506	 23.78171	119.90743	 65.32337	 68.75722	  2.29792	160.86400	700.92999	 45.30	
 10.191	-170.497	153.83333	 24.28555	118.93938	 57.67936	 76.91380	  2.32538	160.88266	701.03003	 45.30	
 10.210	-161.034	153.69922	 25.85961	116.74821	 50.53563	 84.43098	  2.22654	160.87433	701.06000	 45.30	
 10.194	-151.526	153.66953	 28.64796	113.20302	 44.06158	 91.70604	  2.14948	160.85541	701.01001	 45.30	
 10.190	-142.105	153.74881	 32.30782	108.58854	 39.26974	 98.53763	  2.11482	160.86940	701.08002	 45.30	
 10.215	-132.646	153.92058	 37.23302	102.87445	 34.29308	104.56190	  2.16108	160.94168	701.13000	 45.30	
 10.203	-123.092	154.04065	 42.88593	 96.14793	 30.23880	109.61394	  2.25030	160.89983	701.04999	 45.30	
 10.192	-113.678	154.16956	 49.29683	 89.16273	 26.97932	113.79556	  2.38445	160.91154	701.13000	 45.30	
 10.208	-104.249	154.32533	 56.21717	 82.04247	 24.59477	116.71285	  2.45632	160.91473	700.97998	 45.20	
 10.210	-94.801	154.42453	 63.81421	 73.68604	 23.65213	118.15095	  2.48203	160.89673	701.03998	 45.30	
 10.210	-85.199	154.62558	 71.60583	 66.39247	 24.29086	118.19309	  2.56288	160.93791	701.08002	 45.20	
 10.208	-75.751	154.75154	 79.41405	 59.23057	 25.40012	116.70823	  2.61556	160.93207	701.04999	 45.20	
 10.192	-66.322	154.87514	 86.85139	 52.41594	 27.83734	113.66138	  2.66454	160.91692	701.13000	 45.20	
 10.203	-56.908	155.06572	 93.75496	 46.41956	 31.40369	109.58810	  2.68641	160.93547	701.09998	 45.20	
 10.215	-47.354	155.17857	100.42744	 41.22390	 35.71750	104.40678	  2.74849	160.93115	701.13000	 45.20	
 10.190	-37.895	155.41643	105.91013	 36.94593	 40.48706	 98.06202	  2.75788	160.95622	701.04999	 45.20	
 10.194	-28.474	155.53448	110.52150	 33.25621	 46.27253	 91.21525	  2.80895	160.93550	701.04999	 45.20	
 10.210	-18.966	155.65735	114.06626	 30.40673	 53.16164	 83.69473	  2.84376	160.95441	701.13000	 45.20	
 10.191	 -9.503	155.80086	115.92745	 29.11808	 60.47289	 76.10411	  2.85551	160.93535	701.10999	 45.30	
 10.200	  0.000	155.92580	116.51199	 28.83772	 68.07308	 68.22063	  2.82092	160.96301	701.10999	 45.30	
 10.191	  9.503	155.89999	115.76792	 29.48284	 76.30004	 60.18945	  2.85239	160.93396	701.06000	 45.40	
 10.210	 18.966	155.90541	113.71190	 31.25370	 84.08526	 52.85923	  2.81907	160.95509	701.15997	 45.40	
 10.194	 28.474	155.89882	110.25090	 34.28951	 90.93771	 46.27563	  2.74757	160.95966	701.26001	 45.40	
 10.190	 37.895	155.84769	105.36485	 38.15012	 97.51623	 40.63397	  2.67824	160.96112	701.17999	 45.50	
 10.215	 47.354	155.74228	 99.77312	 42.50064	103.71710	 35.68055	  2.58304	160.98874	701.10999	 45.50	
 10.203	 56.908	155.64688	 93.08358	 47.96474	108.62656	 31.74877	  2.48776	160.94382	701.16998	 45.50	
 10.192	 66.322	155.56097	 86.02793	 54.19970	112.38267	 28.79899	  2.38724	160.95102	701.15002	 45.60	
 10.208	 75.751	155.45689	 78.74133	 61.02394	114.93543	 26.69734	  2.29876	160.96381	701.13000	 45.60	
 10.210	 85.199	155.45114	 70.88198	 68.22327	116.09674	 25.73060	  2.27251	161.02361	701.07001	 45.70	
 10.210	 94.801	155.38716	 62.95445	 76.17737	115.88041	 25.58423	  2.28203	161.03381	701.20001	 45.70	
 10.208	104.249	155.19012	 55.42353	 84.10542	114.32976	 26.53247	  2.30754	161.01509	701.03998	 45.70	
 10.192	113.678	155.04277	 48.57624	 91.03847	111.23808	 28.82148	  2.23330	160.99709	701.08002	 45.70	
 10.203	123.092	154.93378	 42.51739	 97.91844	107.02835	 32.15242	  2.27305	161.00621	701.06000	 45.80	
 10.215	132.646	154.80087	 36.87515	104.41519	101.80016	 36.25138	  2.49251	160.99022	701.09998	 45.90	
 10.190	142.105	154.62839	 32.28126	109.86354	 95.32014	 41.30801	  2.69159	161.00060	701.04999	 45.90	
 10.194	151.526	154.48999	 28.55704	114.22385	 88.57547	 47.30473	  2.74105	160.99458	701.10999	 45.90	
 10.210	161.034	154.34630	 25.80068	117.45536	 81.31944	 53.90586	  2.55290	161.01842	701.08002	 45.90	
 10.191	170.497	154.25378	 24.42239	119.41792	 73.04885	 61.08162	  2.32024	160.99863	701.09003	 45.80	
 11.899	171.783	151.33176	 15.57791	125.81237	 70.66332	 59.00165	  2.83644	161.03004	701.01001	 45.80	
 11.890	163.610	151.45422	 16.79548	124.12896	 78.36581	 51.88195	  2.98300	161.03200	701.09003	 45.80	
 11.889	155.445	151.58955	 19.08274	121.15908	 86.70342	 45.12074	  3.29271	161.03310	701.10999	 45.80	
 11.909	147.299	151.71252	 22.19056	117.15995	 93.55369	 38.68848	  3.37409	161.03891	701.12000	 45.80	
 11.902	139.148	151.89288	 26.18013	112.39503	100.34023	 33.19010	  3.09581	161.06889	701.14001	 45.90	
 11.894	130.867	152.06981	 31.13660	106.49300	106.79559	 28.44200	  2.68308	161.06171	701.17999	 45.90	
 11.897	122.732	152.18983	 36.76359	 99.84050	111.93711	 24.47216	  2.52332	161.04243	701.07001	 45.90	
 11.903	114.597	152.31993	 42.91866	 92.82120	116.27037	 21.04466	  2.55388	161.05725	701.01001	 45.90	
 11.893	106.346	152.43378	 49.75014	 85.87512	119.41168	 18.73019	  2.66437	161.02730	701.01001	 45.90	
 11.892	 98.155	152.69374	 57.09115	 77.96119	121.92997	 17.39574	  2.66801	161.08984	701.03003	 45.90	
 11.900	 90.000	152.77669	 64.80814	 69.80355	122.78690	 17.09264	  2.64190	161.06941	701.00000	 45.90	
 11.892	 81.845	152.88406	 72.45173	 62.66812	122.44378	 17.93708	  2.57350	161.09918	701.08002	 45.80	
 11.893	 73.654	152.91295	 80.46893	 55.47005	120.65662	 19.04927	  2.59128	161.01990	700.92999	 45.80	
 11.903	 65.403	153.07419	 87.99149	 48.69989	117.63005	 21.13480	  2.65466	161.09714	700.92999	 45.80	
 11.897	 57.268	153.16243	 95.07668	 42.72663	113.76066	 24.24581	  2.78517	161.11752	700.95001	 45.90	
 11.894	 49.133	153.27180	101.78116	 37.65253	108.80508	 28.13561	  2.88744	161.10672	700.96997	 45.90	
 11.902	 40.852	153.40475	107.73930	 32.77359	102.91767	 32.86534	  3.01391	161.07021	700.95001	 45.90	
 11.909	 32.701	153.48013	113.24063	 28.32198	 96.34972	 38.11233	  3.03815	161.08250	700.96002	 46.00	
 11.889	 24.555	153.54913	117.07904	 24.96495	 89.43597	 44.28920	  3.05693	161.04619	700.87000	 46.10	
 11.890	 16.390	153.49525	120.27340	 22.23139	 82.25926	 50.83101	  3.06434	161.04596	700.92999	 46.10	
 11.899	  8.217	153.51846	122.25455	 20.84226	 74.07620	 58.16537	  3.13337	161.10400	701.02002	 46.20	
 11.900	  0.000	153.48846	122.92567	 20.50890	 66.37139	 65.93748	  3.23268	161.09804	700.90002	 46.20	
 11.899	 -8.217	153.40846	122.44253	 20.30086	 58.70086	 74.04339	  3.26416	161.08922	700.92999	 46.20	
 11.890	-16.390	153.26613	120.60262	 21.35080	 51.16464	 81.75282	  3.12669	161.01610	700.98999	 46.10	
 11.889	-24.555	153.15669	117.53667	 23.43082	 44.25643	 89.28699	  3.17761	161.02609	701.00000	 46.10	
 11.909	-32.701	152.97778	113.79988	 26.64763	 38.63810	 96.53764	  3.14613	161.06584	701.00000	 46.10	
 11.902	-40.852	152.79793	108.42123	 30.90574	 33.16940	103.28146	  3.19359	161.06511	700.81000	 46.10	
 11.894	-49.133	152.63747	102.55479	 35.92841	 27.74025	109.42674	  3.14050	161.08917	700.92999	 46.00	
 11.897	-57.268	152.52724	 95.90326	 41.42716	 23.20119	114.57766	  3.20887	161.05980	701.03003	 46.00	
 11.903	-65.403	152.27141	 88.65370	 46.88516	 19.22361	119.05044	  3.05206	161.05954	700.97998	 46.00	
 11.893	-73.654	152.10133	 81.14066	 53.57057	 16.53755	122.12355	  3.07793	161.11989	700.97998	 46.00	
 11.892	-81.845	152.03520	 73.07210	 60.90174	 15.15681	123.97614	  2.98042	161.10959	700.92999	 46.00	
 11.900	-90.000	151.74309	 65.56819	 67.66217	 13.93345	124.74434	  2.93425	161.17824	701.03003	 46.10	
 11.892	-98.155	151.64371	 57.91471	 75.07005	 14.33087	124.16772	  3.03542	161.10776	700.98999	 46.10	
 11.893	-106.346	151.53313	 50.69489	 83.59680	 15.77710	122.20778	  3.02363	161.11392	700.94000	 46.10	
 11.903	-114.597	151.29570	 43.64178	 90.71889	 17.94138	119.15626	  2.96786	161.05254	701.09998	 46.10	
 11.897	-122.732	151.31110	 37.40942	 97.86301	 21.26721	114.90800	  2.88336	161.14513	700.96997	 46.10	
 11.894	-130.867	151.17493	 31.50322	104.67387	 25.58730	109.60054	  2.70598	161.07333	701.00000	 46.20	
 11.902	-139.148	151.05313	 26.46208	110.83909	 30.73833	103.65476	  2.66435	161.07367	701.02002	 46.20	
 11.909	-147.299	151.04730	 22.21814	115.96878	 36.49614	 97.12154	  2.64429	161.14786	701.03003	 46.30	
 11.889	-155.445	151.01685	 19.10278	120.05000	 42.76653	 89.96309	  2.70011	161.15033	700.95001	 46.30	
 11.890	-163.610	151.10568	 16.73842	123.40898	 48.30938	 82.56673	  2.73936	161.10086	700.89001	 46.30	
 11.899	-171.783	151.07890	 14.96283	125.53172	 55.58169	 74.84823	  2.81439	161.13461	700.94000	 46.30	
 11.900	180.000	151.25676	 14.85645	126.33199	 63.19566	 66.52504	  2.84363	161.11285	700.90002	 46.40	
 13.600	180.000	147.70486	  6.03453	131.60368	 60.54027	 63.85064	  3.33258	161.12082	700.98999	 46.40	
 13.608	-172.853	147.56366	  5.98614	130.94568	 52.97099	 71.86185	  3.38203	161.14601	700.89001	 46.50	
 13.611	-165.583	147.56725	  7.44538	129.57668	 46.88200	 80.11377	  3.30845	161.12408	700.91998	 46.50	
 13.601	-158.353	147.58289	  9.68151	126.63187	 40.12025	 87.75184	  3.12132	161.15346	700.92999	 46.50	
 13.609	-151.210	147.54616	 12.51443	122.64284	 33.04826	 94.94433	  2.99987	161.17586	700.90002	 46.40	
 13.611	-143.999	147.55197	 16.07958	117.77429	 26.78895	101.89545	  3.10155	161.15686	700.88000	 46.40	
 13.601	-136.825	147.67966	 20.58054	112.34409	 21.49845	108.45495	  3.11887	161.08746	700.94000	 46.40	
 13.596	-129.640	147.78719	 25.56038	106.15812	 16.85777	114.39808	  3.26211	161.17117	701.02002	 46.40	
 13.611	-122.431	147.87726	 31.49228	 99.09412	 12.77614	119.74113	  3.40682	161.21007	700.90997	 46.40	
 13.604	-115.211	147.98376	 37.81833	 91.84000	  9.74759	123.95979	  3.47310	161.15634	700.96997	 46.40	
 13.595	-108.042	148.07695	 44.48495	 84.73875	  7.49307	127.02141	  3.54337	161.14653	701.03998	 46.40	
 13.607	-100.793	148.21873	 51.92229	 76.12872	  5.91364	128.97787	  3.48827	161.14555	700.94000	 46.40	
 13.601	-93.617	148.36171	 59.43378	 68.46496	  5.14524	129.88623	  3.45599	161.14471	700.84998	 46.40	
 13.601	-86.383	148.60872	 66.70671	 61.53611	  5.80801	129.91864	  3.40063	161.17574	700.91998	 46.40	
 13.607	-79.207	148.67862	 74.32314	 54.45541	  6.48688	128.93803	  3.37732	161.09589	700.94000	 46.40	
 13.595	-71.958	148.88188	 82.62396	 47.75866	  8.37413	126.93727	  3.38885	161.10754	700.88000	 46.40	
 13.604	-64.789	149.08127	 90.00278	 41.87828	 10.95911	123.88123	  3.45138	161.12949	700.84998	 46.40	
 13.611	-57.569	149.20454	 97.37752	 35.42800	 14.32395	119.57947	  3.50623	161.12003	700.90997	 46.30	
 13.596	-50.360	149.44682	104.11498	 29.72957	 18.80293	114.24276	  3.49760	161.11655	700.98999	 46.20	
 13.601	-43.175	149.68076	110.36874	 24.79343	 24.18450	108.18864	  3.50178	161.14717	700.95001	 46.20	
 13.611	-36.001	149.87144	115.92548	 20.22875	 30.14524	101.63507	  3.46442	161.14293	700.88000	 46.20	
 13.609	-28.790	150.01971	120.45535	 16.08773	 36.31126	 94.47746	  3.44016	161.16629	700.94000	 46.20	
 13.601	-21.647	150.14745	124.14801	 13.13868	 42.63839	 86.86514	  3.41227	161.08020	700.84003	 46.20	
 13.611	-14.417	150.29956	126.80924	 11.32507	 49.02173	 79.25096	  3.49237	161.16899	700.84003	 46.20	
 13.608	 -7.147	150.36293	128.20422	 10.46450	 56.63825	 71.16892	  3.51660	161.13232	700.92999	 46.20	
 13.600	  0.000	150.48271	128.61761	 10.73925	 64.24959	 63.06298	  3.51417	161.12833	701.00000	 46.30	
 13.608	  7.147	150.51355	128.05650	 10.83414	 71.59981	 55.75027	  3.40333	161.16594	700.94000	 46.20	
 13.611	 14.417	150.47450	126.59544	 11.82643	 79.91043	 48.30087	  3.39237	161.18208	700.97998	 46.20	
 13.601	 21.647	150.47714	123.73360	 14.05408	 87.83020	 41.50981	  3.39782	161.10512	700.94000	 46.20	
 13.609	 28.790	150.49022	120.03161	 17.79581	 94.60023	 35.27398	  3.35501	161.18161	700.96002	 46.20	
 13.611	 36.001	150.41843	115.39858	 22.03409	101.51010	 29.48798	  3.39376	161.14000	700.90997	 46.20	
 13.601	 43.175	150.37206	109.75664	 26.60920	107.98022	 24.41000	  3.33501	161.17351	701.08002	 46.20	
 13.596	 50.360	150.26807	103.41783	 31.81499	113.63196	 19.80984	  3.24668	161.14005	701.02002	 46.20	
 13.611	 57.569	150.17090	 96.56486	 37.62920	118.59613	 15.91321	  3.14617	161.16779	701.01001	 46.20	
 13.604	 64.789	150.04720	 89.22071	 43.56817	122.93439	 12.91551	  3.03454	161.13405	701.04999	 46.20	
 13.595	 71.958	149.99471	 81.90278	 49.62916	125.90457	 10.83772	  2.97728	161.12845	700.95001	 46.20	
 13.607	 79.207	149.86423	 73.73031	 56.70527	127.76185	  9.34496	  2.98090	161.14230	701.02002	 46.20	
 13.601	 86.383	149.70151	 66.01429	 63.73319	128.39122	  8.58917	  3.06988	161.08408	701.03003	 46.20	
 13.601	 93.617	149.59303	 58.36795	 71.10699	128.18643	  8.12031	  3.13533	161.10728	701.06000	 46.20	
 13.607	100.793	149.45058	 50.81244	 79.27831	127.13908	  8.96515	  3.18910	161.12039	700.94000	 46.20	
 13.595	108.042	149.23859	 43.46687	 87.34571	124.76038	 10.61652	  3.16623	161.05905	700.83002	 46.10	
 13.604	115.211	149.10764	 36.79902	 94.26778	120.88287	 12.97103	  2.99284	161.06740	700.98999	 46.20	
 13.611	122.431	148.92073	 30.47595	101.40600	116.52901	 16.31272	  2.89854	161.05089	701.07001	 46.20	
 13.596	129.640	148.83965	 24.92898	108.27039	111.30274	 20.39818	  2.97668	161.10056	700.98999	 46.30	
 13.601	136.825	148.72058	 19.96693	114.20525	105.25497	 24.88202	  3.27104	161.07986	700.95001	 46.20	
 13.611	143.999	148.51582	 15.77477	119.47087	 98.43269	 30.14415	  3.66781	161.10579	700.97998	 46.30	
 13.609	151.210	148.33380	 12.41106	124.06074	 91.59269	 36.03479	  3.80469	161.07225	701.06000	 46.30	
 13.601	158.353	148.20772	  9.77512	127.63129	 84.11165	 42.48323	  3.71825	161.07945	701.15002	 46.40	
 13.611	165.583	148.02222	  7.71677	130.00711	 75.62503	 49.44982	  3.42305	161.13835	701.03003	 46.30	
 13.608	172.853	147.83344	  6.73325	131.27441	 67.91910	 56.58822	  3.31470	161.10660	701.03003	 46.30	
 15.298	173.587	143.99640	 -2.44121	136.42639	 64.86239	 53.81233	  3.54522	161.12340	701.03998	 46.30	
 15.291	167.167	144.12643	 -1.59065	135.39426	 72.42053	 46.86886	  3.62499	161.14967	700.97998	 46.40	
 15.307	160.676	144.29485	  0.11862	133.12454	 80.34801	 39.80702	  3.88841	161.13162	700.96997	 46.40	
 15.300	154.261	144.50409	  2.60803	130.27330	 88.68158	 33.40076	  4.15738	161.14426	700.91998	 46.50	
 15.288	147.854	144.83290	  5.92213	126.33381	 95.81776	 27.33779	  4.11630	161.21083	700.90002	 46.60	
 15.293	141.428	145.01900	  9.73357	121.23136	102.83320	 21.70119	  3.77052	161.21475	700.92999	 46.70	
 15.299	134.985	145.13670	 14.03131	115.65228	109.70049	 16.54013	  3.31280	161.22495	701.01001	 46.70	
 15.305	128.583	145.20686	 18.97853	109.57035	115.54470	 11.99055	  3.05526	161.20929	700.95001	 46.60	
 15.309	122.142	145.35860	 24.58057	102.62360	120.72739	  7.98976	  3.07945	161.19467	700.98999	 46.60	
 15.304	115.711	145.55063	 30.72428	 95.50431	125.55408	  4.88663	  3.32960	161.16417	701.00000	 46.50	
 15.297	109.291	145.72186	 37.42210	 88.40252	129.08636	  2.46325	  3.56392	161.16263	700.92999	 46.50	
 15.293	102.897	145.84033	 44.37982	 80.17838	131.49411	  0.59343	  3.74349	161.21030	701.01001	 46.50	
 15.293	 96.458	145.95642	 51.87290	 72.16455	133.04706	 -0.59825	  3.67447	161.14526	700.94000	 46.50	
 15.300	 90.000	146.13193	 59.45296	 64.48179	133.88841	 -0.75331	  3.53290	161.15465	700.88000	 46.60	
 15.293	 83.542	146.32790	 66.82832	 57.65756	133.60460	 -0.00405	  3.41600	161.20079	700.94000	 46.60	
 15.293	 77.103	146.43553	 74.57042	 50.45493	132.32773	  0.90069	  3.34488	161.16562	700.91998	 46.70	
 15.297	 70.709	146.49046	 82.69006	 44.40842	130.20978	  2.47643	  3.32192	161.10822	700.96997	 46.70	
 15.304	 64.289	146.65598	 90.32233	 38.15624	127.43026	  4.75223	  3.40059	161.16679	700.90997	 46.70	
 15.309	 57.858	146.75786	 97.46453	 31.63931	123.31010	  7.70318	  3.47548	161.17984	700.95001	 46.60	
 15.305	 51.417	146.82393	104.48594	 25.70378	118.10462	 11.50452	  3.54803	161.15332	700.98999	 46.60	
 15.299	 45.015	146.97375	110.82136	 20.51398	112.57885	 16.04665	  3.63896	161.15128	700.90002	 46.60	
 15.293	 38.572	147.03691	116.93765	 14.70293	106.23807	 20.96625	  3.65857	161.17072	700.92999	 46.70	
 15.288	 32.146	147.06612	121.97549	 10.47395	 99.23843	 26.55829	  3.65311	161.14270	700.90002	 46.70	
 15.300	 25.739	147.04156	126.31741	  7.31190	 92.18142	 32.48473	  3.60184	161.18155	700.94000	 46.80	
 15.307	 19.324	146.97574	129.42001	  4.75480	 85.00732	 38.83578	  3.58596	161.15483	700.91998	 46.80	
 15.291	 12.833	147.01671	131.88010	  2.99910	 76.47142	 45.72984	  3.55180	161.18741	701.03003	 46.90	
 15.298	  6.413	146.99678	133.45265	  1.97258	 68.68510	 52.98364	  3.62617	161.15376	701.06000	 46.90	
 15.300	  0.000	147.06958	133.98857	  1.99743	 61.62065	 60.09488	  3.75833	161.19037	700.89001	 46.80	
 15.298	 -6.413	147.01199	133.59618	  2.06091	 54.09284	 67.92584	  3.74735	161.16618	700.83002	 46.80	
 15.291	-12.833	146.96564	132.20442	  2.90822	 47.01325	 76.15168	  3.71316	161.17938	700.90997	 46.80	
 15.307	-19.324	146.79097	129.87794	  4.20192	 40.67341	 84.17977	  3.63384	161.19746	700.96997	 46.80	
 15.300	-25.739	146.54482	126.82640	  6.39704	 33.57296	 91.72118	  3.61200	161.14690	700.83002	 46.70	
 15.288	-32.146	146.44020	122.53635	  9.55010	 26.91923	 99.07010	  3.63910	161.17734	700.81000	 46.70	
 15.293	-38.572	146.31369	117.60546	 13.23701	 20.80459	106.00714	  3.66452	161.18637	700.92999	 46.70	
 15.299	-45.015	146.07793	111.76637	 17.68944	 15.06581	112.49056	  3.71017	161.14874	700.84003	 46.70	
 15.305	-51.417	145.88252	105.33086	 23.40801	 10.26330	118.65932	  3.75909	161.18581	700.89001	 46.80	
 15.309	-57.858	145.59564	 98.42841	 29.29056	  6.23231	123.87106	  3.68315	161.18385	700.95001	 46.80	
 15.304	-64.289	145.42665	 91.15168	 35.77854	  2.94237	128.06870	  3.64609	161.17107	700.90997	 46.90	
 15.297	-70.709	145.15872	 83.54706	 42.44491	  0.22860	131.03357	  3.60087	161.16489	700.87000	 46.90	
 15.293	-77.103	145.02985	 75.43342	 48.83638	 -1.62721	133.37643	  3.55516	161.18704	700.89001	 46.90	
 15.293	-83.542	144.87187	 67.51631	 55.23328	 -2.66503	134.84760	  3.57243	161.19318	700.97998	 47.00	
 15.300	-90.000	144.65958	 60.59003	 61.54353	 -3.57205	135.39354	  3.65404	161.20192	700.79999	 47.00	
 15.293	-96.458	144.49962	 52.89600	 69.21677	 -3.46394	134.90363	  3.65351	161.20634	700.89001	 46.90	
 15.293	-102.897	144.32341	 45.41631	 77.05482	 -2.44991	133.42914	  3.66433	161.16513	700.83002	 46.90	
 15.297	-109.291	144.20567	 38.63639	 85.20068	 -0.82197	131.14638	  3.76709	161.19553	700.83002	 46.90	
 15.304	-115.711	144.02046	 31.69854	 92.69055	  1.46350	128.21121	  3.69999	161.17712	700.89001	 46.90	
 15.309	-122.142	143.98885	 25.58422	 99.89206	  4.52195	124.01306	  3.65894	161.17903	700.87000	 46.90	
 15.305	-128.583	143.90327	 19.83731	106.97466	  8.27988	118.76588	  3.52918	161.19292	700.78998	 46.90	
 15.299	-134.985	143.88777	 14.62169	113.39967	 12.69838	112.81863	  3.43348	161.19783	700.85999	 46.90	
 15.293	-141.428	143.78439	  9.88695	119.16749	 17.81902	106.47852	  3.33406	161.19759	700.90002	 47.00	
 15.288	-147.854	143.74500	  5.90172	124.40945	 23.47726	 99.57707	  3.21687	161.17520	700.81000	 47.00	
 15.300	-154.261	143.72884	  2.60464	129.12549	 29.79263	 92.36673	  3.26871	161.24500	700.82001	 47.00	
 15.307	-160.676	143.69496	 -0.00972	132.12416	 36.86369	 85.04292	  3.38935	161.19894	700.76001	 47.00	
 15.291	-167.167	143.72499	 -2.26041	134.63820	 44.54871	 77.02253	  3.56305	161.17282	700.76001	 46.90	
 15.298	-173.587	143.87366	 -3.38607	136.28056	 51.44986	 68.84949	  3.67456	161.19695	700.87000	 46.90	
 15.300	180.000	143.88118	 -2.99849	136.76115	 57.77861	 60.77962	  3.64897	161.16370	700.79999	 47.00	
 17.000	180.000	139.41513	-12.80219	141.71024	 55.61269	 57.55383	  3.81715	161.20715	700.70001	 47.00	
 16.990	-174.179	139.30602	-12.95217	141.04175	 48.75050	 65.45356	  3.84042	161.19867	700.87000	 47.00	
 17.009	-168.383	139.22072	-11.94895	139.46986	 40.80906	 73.59523	  3.73974	161.17152	700.77002	 47.00	
 17.000	-162.596	139.18536	 -9.91261	137.21658	 33.27024	 81.76823	  3.59774	161.15425	700.83002	 47.00	
 16.990	-156.759	139.26492	 -7.41827	134.08798	 26.65372	 89.59726	  3.44447	161.21025	700.84998	 47.00	
 16.995	-150.919	139.20421	 -4.39219	130.45094	 20.31366	 96.72763	  3.32340	161.21416	700.75000	 47.00	
 16.988	-145.161	139.23842	 -0.75017	125.51347	 14.38525	103.82661	  3.41173	161.21841	700.82001	 47.00	
 17.014	-139.343	139.21979	  3.51545	119.92061	  8.82802	110.53613	  3.54207	161.18329	700.92999	 46.90	
 17.007	-133.546	139.35869	  8.34136	114.02492	  4.12526	116.88322	  3.62815	161.24530	700.84998	 46.90	
 17.001	-127.699	139.38437	 13.59808	107.26027	 -0.16300	122.67609	  3.60571	161.17403	700.88000	 46.80	
 17.006	-121.937	139.50284	 19.44616	100.33046	 -3.67788	127.70788	  3.78678	161.18118	700.84998	 46.80	
 17.002	-116.134	139.58751	 25.72014	 93.16864	 -6.64043	131.56721	  3.79348	161.13622	700.90997	 46.90	
 17.001	-110.310	139.66841	 32.31744	 85.11445	 -8.99953	135.05927	  3.77714	161.20209	700.94000	 46.90	
 16.988	-104.517	139.79565	 39.04838	 77.33842	-10.79598	137.68311	  3.68722	161.22659	700.88000	 46.90	
 17.008	-98.662	139.88922	 46.41925	 69.30569	-12.21202	139.42126	  3.66861	161.20279	700.84998	 46.90	
 16.996	-92.909	140.06697	 53.83139	 61.61392	-12.57727	140.25708	  3.69466	161.17023	700.79999	 46.90	
 16.996	-87.091	140.25371	 60.97231	 55.03175	-12.25576	140.26743	  3.70739	161.17378	700.84003	 46.90	
 17.012	-81.253	140.37267	 68.10928	 49.65810	-11.68604	139.39592	  3.66205	161.18475	700.89001	 47.00	
 16.988	-75.483	140.68854	 75.98648	 42.79096	-10.15080	137.50410	  3.62380	161.19275	700.89001	 47.00	
 17.001	-69.690	140.80280	 84.09092	 35.76350	 -8.13505	134.99181	  3.65171	161.20604	700.85999	 46.90	
 17.002	-63.866	141.07137	 91.91228	 29.11194	 -5.40073	131.64655	  3.72636	161.25533	700.81000	 46.90	
 17.006	-58.063	141.28520	 99.14661	 22.80958	 -2.05715	127.65054	  3.72453	161.22792	700.79999	 47.00	
 17.001	-52.301	141.49825	106.19319	 16.17090	  1.79009	122.54606	  3.76807	161.20726	700.78003	 46.90	
 17.007	-46.454	141.76804	112.71657	 11.07382	  6.28719	116.64056	  3.73955	161.22514	700.77002	 46.90	
 17.014	-40.657	141.96004	118.80185	  6.78095	 11.40615	110.16999	  3.78276	161.25398	700.90002	 46.90	
 16.988	-34.839	142.12932	124.04871	  3.10824	 17.16540	103.22569	  3.72561	161.19174	700.88000	 46.90	
 16.995	-29.081	142.34427	128.63083	 -0.05297	 23.52419	 96.05064	  3.72359	161.22768	700.78998	 46.90	
 16.990	-23.241	142.61453	132.30339	 -2.52042	 30.66181	 88.74448	  3.68757	161.24886	700.81000	 46.90	
 17.000	-17.404	142.77704	135.30913	 -4.42952	 38.13793	 80.72742	  3.69780	161.23933	700.75000	 47.00	
 17.009	-11.617	142.89917	137.43430	 -5.95660	 45.44852	 72.51564	  3.74866	161.24890	700.77002	 47.10	
 16.990	 -5.821	143.02187	138.71352	 -6.71744	 51.31766	 64.30710	  3.84437	161.26073	700.84003	 47.10	
 17.000	  0.000	143.07057	139.02339	 -6.89143	 58.79346	 56.71663	  3.85701	161.23259	700.96002	 47.10	
 16.990	  5.821	143.06067	138.51590	 -6.84224	 65.74509	 49.78437	  3.69903	161.22670	700.82001	 47.20	
 17.009	 11.617	142.99228	137.14384	 -5.98039	 73.38188	 42.69243	  3.65141	161.20107	700.85999	 47.20	
 17.000	 17.404	142.96855	134.87581	 -4.40147	 81.33544	 35.82445	  3.64200	161.18135	700.85999	 47.30	
 16.990	 23.241	143.05519	131.84210	 -2.07950	 89.49941	 29.25234	  3.70562	161.24858	700.76001	 47.20	
 16.995	 29.081	142.99971	128.23120	  0.73190	 96.63787	 23.12091	  3.79124	161.23547	700.78998	 47.20	
 16.988	 34.839	142.99286	123.34821	  4.26115	103.69531	 17.49042	  3.78122	161.22475	700.81000	 47.20	
 17.014	 40.657	142.91003	118.03905	  8.18026	110.61843	 12.11226	  3.80138	161.26215	700.75000	 47.10	
 17.007	 46.454	142.81601	111.65311	 12.99340	116.84164	  7.25753	  3.76942	161.25192	700.81000	 47.20	
 17.001	 52.301	142.69763	105.17158	 19.28287	122.22853	  2.97057	  3.70352	161.23755	700.75000	 47.10	
 17.006	 58.063	142.58334	 98.11408	 25.32999	127.48485	 -0.64053	  3.61484	161.26382	700.71997	 47.10	
 17.002	 63.866	142.50070	 90.86662	 31.73683	131.49687	 -3.52531	  3.53592	161.28531	700.67999	 47.10	
 17.001	 69.690	142.31111	 82.86584	 38.51936	134.59314	 -5.95321	  3.53318	161.23424	700.65997	 47.10	
 16.988	 75.483	142.26100	 74.89322	 45.38975	136.75595	 -7.65910	  3.51119	161.23499	700.77002	 47.10	
 17.012	 81.253	142.05302	 67.05624	 51.40561	138.30107	 -8.90263	  3.59588	161.23531	700.78003	 47.00	
 16.996	 87.091	141.94781	 59.66988	 58.00386	138.98909	 -9.30397	  3.78138	161.24452	700.84003	 47.00	
 16.996	 92.909	141.81520	 52.59616	 65.02248	138.70317	 -9.91499	  3.91145	161.26717	700.82001	 47.00	
 17.008	 98.662	141.66534	 45.17154	 72.73688	137.62273	 -9.41605	  3.92168	161.24171	700.77002	 47.00	
 16.988	104.517	141.62518	 37.91982	 80.83514	135.86058	 -7.85185	  3.96671	161.26849	700.76001	 47.00	
 17.001	110.310	141.51254	 31.03624	 89.06121	133.06467	 -5.90290	  3.86632	161.28526	700.82001	 47.00	
 17.002	116.134	141.36601	 24.50413	 96.35905	129.52406	 -3.39204	  3.62787	161.26765	700.72998	 47.00	
 17.006	121.937	141.19537	 18.32266	103.49580	124.76469	 -0.18425	  3.40644	161.28110	700.81000	 46.90	
 17.001	127.699	141.07484	 12.74043	110.40464	119.39032	  3.69113	  3.25991	161.30423	700.69000	 46.90	
 17.007	133.546	140.83636	  7.47924	116.73732	113.52697	  7.96724	  3.31496	161.26158	700.71997	 46.90	
 17.014	139.343	140.64291	  2.74171	122.50843	107.13983	 12.74539	  3.66864	161.25623	700.78998	 46.90	
 16.988	145.161	140.58034	 -1.08628	127.91117	 99.99367	 18.29865	  4.12500	161.31311	700.77002	 46.90	
 16.995	150.919	140.36943	 -4.59167	132.11572	 92.96416	 24.19453	  4.32823	161.26854	700.78998	 46.90	
 16.990	156.759	140.13069	 -7.49168	135.64502	 84.82339	 30.55990	  4.24763	161.25807	700.78998	 46.80	
 17.000	162.596	139.93178	 -9.82134	138.39374	 76.80431	 37.13409	  3.99510	161.26457	700.76001	 46.80	
 17.009	168.383	139.75063	-11.54939	140.45088	 68.86124	 44.04453	  3.76507	161.30641	700.79999	 46.80	
 16.990	174.179	139.68893	-12.27874	141.50726	 61.49497	 50.81889	  3.74066	161.31714	700.71002	 46.90	
 18.709	174.675	134.57062	-21.61278	145.85432	 58.84689	 47.61438	  3.87233	161.26913	700.90002	 46.90	
 18.703	169.441	134.70976	-20.94553	144.97321	 64.85905	 40.91109	  3.81994	161.31291	700.88000	 46.90	
 18.691	164.085	135.02075	-19.38770	143.10889	 73.04741	 33.84536	  3.93586	161.28398	700.77002	 46.80	
 18.706	158.818	135.21333	-18.03198	140.50838	 80.84725	 27.24506	  4.19818	161.26305	700.82001	 46.80	
 18.695	153.537	135.51059	-15.58281	137.25378	 88.96214	 20.95679	  4.37492	161.30351	700.83002	 46.80	
 18.704	148.255	135.66710	-12.28813	133.31987	 96.72073	 14.93371	  4.26292	161.25987	700.79999	 46.90	
 18.698	142.952	135.86086	 -8.20978	128.69913	103.68263	  9.29949	  3.92693	161.29988	700.78003	 47.00	
 18.699	137.625	136.02711	 -3.93231	123.16294	110.67745	  4.07388	  3.56783	161.32162	700.87000	 47.00	
 18.705	132.343	136.18100	  0.94322	117.17907	117.03094	 -0.64373	  3.36142	161.29453	700.81000	 47.00	
 18.713	127.067	136.31178	  6.08503	110.72134	122.75014	 -4.83095	  3.43162	161.27255	700.76001	 46.90	
 18.700	121.794	136.42929	 11.75083	103.80416	128.31970	 -8.45798	  3.63251	161.27463	700.78998	 46.90	
 18.698	116.504	136.53909	 17.87458	 96.73466	132.77374	-11.60061	  3.81386	161.23920	700.76001	 47.00	
 18.707	111.165	136.76302	 24.37544	 89.22218	136.55629	-14.18214	  3.99788	161.30342	700.83002	 47.00	
 18.690	105.863	136.90628	 31.24458	 81.07150	139.25511	-16.19187	  4.10193	161.28304	700.78003	 47.10	
 18.696	100.583	136.98830	 38.04691	 73.28069	141.58215	-17.71827	  4.12994	161.28607	700.71997	 47.10	
 18.700	 95.309	137.05853	 45.34103	 65.30544	142.97240	-18.67739	  4.06005	161.25392	700.81000	 47.30	
 18.700	 90.000	137.18327	 52.83824	 57.60548	143.55090	-18.81089	  3.98955	161.27409	700.84003	 47.40	
 18.700	 84.691	137.38661	 59.41468	 52.34594	143.33209	-18.04910	  3.76128	161.26701	700.90997	 47.40	
 18.696	 79.417	137.45815	 66.90895	 45.55610	142.45473	-17.43171	  3.66354	161.25035	700.70001	 47.40	
 18.690	 74.137	137.64243	 74.80715	 38.48993	140.67294	-16.07476	  3.68360	161.24504	700.84998	 47.40	
 18.707	 68.835	137.70992	 82.82982	 31.56782	138.14047	-14.30363	  3.65035	161.25998	700.92999	 47.40	
 18.698	 63.496	137.86243	 90.94181	 25.01607	134.83806	-11.87394	  3.69713	161.26114	700.85999	 47.40	
 18.700	 58.206	137.96973	 98.23097	 18.68175	130.96584	 -8.89760	  3.67572	161.21140	700.72998	 47.30	
 18.713	 52.933	138.14017	105.21761	 12.00752	126.12277	 -5.36983	  3.71603	161.24286	700.73999	 47.30	
 18.705	 47.657	138.15837	111.98544	  6.70620	120.30212	 -1.41158	  3.76982	161.19249	700.70001	 47.30	
 18.699	 42.375	138.38062	118.42976	  2.22166	114.33639	  3.37871	  3.80650	161.20038	700.67999	 47.20	
 18.698	 37.048	138.45052	124.04263	 -1.98462	107.86684	  8.47968	  3.84005	161.26094	700.84003	 47.20	
 18.704	 31.745	138.42540	129.27615	 -5.74445	100.60854	 13.96237	  3.79151	161.23997	700.84003	 47.20	
 18.695	 26.463	138.45461	133.43114	 -8.83764	 93.52016	 19.92026	  3.72500	161.20709	700.83002	 47.20	
 18.706	 21.182	138.39229	137.01117	-11.62662	 85.79140	 26.01150	  3.67784	161.18321	700.76001	 47.20	
 18.691	 15.915	138.43295	139.80295	-13.59619	 77.64590	 32.57303	  3.70093	161.18773	700.75000	 47.30	
 18.703	 10.559	138.40199	141.94246	-15.13055	 69.69701	 39.57083	  3.73829	161.22272	700.73999	 47.30	
 18.709	  5.325	138.35338	143.13657	-15.96265	 62.06924	 46.40347	  3.72741	161.20181	700.72998	 47.20	
 18.700	  0.000	138.38153	143.49895	-15.91218	 55.54364	 52.83045	  3.84639	161.18892	700.66998	 47.20	
 18.709	 -5.325	138.22362	143.30481	-15.96248	 49.60395	 60.43490	  3.86768	161.20164	700.78998	 47.20	
 18.703	-10.559	138.21831	142.14569	-15.07763	 42.43784	 68.31557	  3.79998	161.18143	700.72998	 47.20	
 18.691	-15.915	138.09753	140.27406	-13.66506	 34.63939	 76.64082	  3.74010	161.17279	700.67999	 47.30	
 18.706	-21.182	137.96527	137.57137	-11.99275	 27.15657	 84.85180	  3.75326	161.23016	700.78998	 47.30	
 18.695	-26.463	137.78006	134.01459	 -9.66158	 20.23942	 92.50722	  3.77084	161.19893	700.73999	 47.30	
 18.704	-31.745	137.47803	130.00580	 -6.96147	 13.68656	 99.56154	  3.78497	161.18842	700.67999	 47.20	
 18.698	-37.048	137.35706	124.90276	 -3.46243	  7.98783	106.89011	  3.80313	161.17581	700.77002	 47.20	
 18.699	-42.375	137.16896	119.40810	  0.48430	  2.63707	113.66821	  3.76885	161.17583	700.76001	 47.20	
 18.705	-47.657	137.01239	113.13425	  4.93706	 -2.16984	119.96773	  3.79025	161.21089	700.78998	 47.20	
 18.713	-52.933	136.75066	106.52775	  9.97560	 -6.49410	125.83726	  3.81203	161.22124	700.78003	 47.20	
 18.700	-58.206	136.57498	 99.47418	 15.83969	-10.10210	130.73531	  3.76174	161.19304	700.67999	 47.20	
 18.698	-63.496	136.27499	 92.41711	 22.02087	-13.59154	134.69464	  3.73511	161.16151	700.78998	 47.10	
 18.707	-68.835	136.05304	 84.23182	 28.64322	-16.46284	138.42397	  3.67373	161.21719	700.78003	 47.10	
 18.690	-74.137	135.89339	 76.18747	 35.52272	-18.60114	141.21049	  3.63470	161.18973	700.73999	 47.00	
 18.696	-79.417	135.68140	 68.33757	 42.52858	-20.18762	143.21948	  3.69262	161.19203	700.77002	 47.00	
 18.700	-84.691	135.46031	 60.92789	 49.07913	-21.26674	144.46751	  3.74264	161.21130	700.65997	 47.00	
 18.700	-90.000	135.21214	 54.27230	 54.97326	-21.94676	144.90392	  3.72776	161.21707	700.79999	 47.00	
 18.700	-95.309	135.09164	 46.93354	 61.50356	-21.64188	144.47394	  3.69439	161.17030	700.75000	 47.10	
 18.696	-100.583	134.91647	 39.52828	 69.43631	-21.06918	143.34262	  3.70305	161.21919	700.84003	 47.20	
 18.690	-105.863	134.81905	 32.55597	 77.25523	-19.53645	141.38921	  3.68904	161.22049	700.90002	 47.20	
 18.707	-111.165	134.64462	 25.67795	 85.02147	-17.68128	138.60367	  3.78039	161.23117	700.94000	 47.20	
 18.698	-116.504	134.55446	 19.15695	 93.21951	-15.31984	134.97188	  3.77968	161.21652	700.90002	 47.30	
 18.700	-121.794	134.42830	 12.91895	100.37865	-12.61973	130.83453	  3.78669	161.22742	700.89001	 47.30	
 18.713	-127.067	134.26627	  6.89024	107.33479	 -9.13295	126.14194	  3.68950	161.21782	700.91998	 47.30	
 18.705	-132.343	134.28337	  1.73119	114.09244	 -4.76314	120.43463	  3.66003	161.22502	700.79999	 47.30	
 18.699	-137.625	134.16122	 -3.08121	120.24329	 -0.00966	114.16308	  3.62284	161.20001	700.76001	 47.30	
 18.698	-142.952	134.15598	 -7.42868	125.93577	  5.10895	107.59122	  3.55218	161.23886	700.85999	 47.30	
 18.704	-148.255	134.11240	-11.18317	131.25107	 10.70581	100.49830	  3.48889	161.21867	700.78003	 47.30	
 18.695	-153.537	134.18987	-14.36355	135.33479	 16.97406	 93.58863	  3.43495	161.22581	700.77002	 47.30	
 18.706	-158.818	134.21390	-16.92643	138.87785	 23.49198	 86.08926	  3.45056	161.26778	700.82001	 47.20	
 18.691	-164.085	134.21034	-18.75592	141.89223	 30.22425	 78.00298	  3.61005	161.24261	700.72998	 47.20	
 18.703	-169.441	134.27110	-20.34603	144.09175	 36.88496	 69.67344	  3.90178	161.23744	700.82001	 47.10	
 18.709	-174.675	134.23320	-21.46789	145.45609	 44.44857	 61.71564	  3.94532	161.22964	700.67999	 47.10	
 18.700	180.000	134.43680	-21.51614	146.00394	 52.66315	 53.86635	  3.87474	161.20914	700.69000	 47.10	
 20.400	180.000	128.89842	-30.18937	149.57877	 47.90619	 50.03940	  4.06158	161.24678	700.79999	 47.10	
 20.401	-175.153	128.74133	-30.15733	149.09000	 40.31719	 57.56655	  4.00543	161.22627	700.64001	 47.10	
 20.407	-170.264	128.70674	-29.62621	147.88364	 33.68956	 65.41586	  3.97993	161.23459	700.71002	 47.10	
 20.410	-165.423	128.57178	-28.42072	145.97070	 26.56837	 73.48309	  3.86839	161.21017	700.66998	 47.10	
 20.392	-160.496	128.58473	-26.54528	143.24968	 19.47536	 81.81327	  3.70702	161.20592	700.72998	 47.20	
 20.401	-155.705	128.60712	-24.41582	139.85434	 12.93383	 89.50241	  3.58858	161.24586	700.67999	 47.20	
 20.405	-150.835	128.57828	-20.97795	135.85754	  6.72691	 96.84268	  3.58209	161.20589	700.79999	 47.20	
 20.397	-145.903	128.63144	-17.55562	131.20703	  0.79631	104.03695	  3.60159	161.19936	700.73999	 47.10	
 20.392	-141.062	128.65964	-13.74717	125.85977	 -4.59825	110.75132	  3.65833	161.18761	700.75000	 47.10	
 20.396	-136.227	128.62199	 -9.54941	120.10127	 -9.60597	117.31697	  3.66866	161.17177	700.82001	 47.10	
 20.408	-131.372	128.70270	 -4.75730	113.80132	-14.19488	123.40647	  3.74353	161.20645	700.77002	 47.00	
 20.410	-126.511	128.70959	  0.23831	106.90480	-18.08946	128.90697	  3.80741	161.19612	700.76001	 47.00	
 20.400	-121.604	128.88258	  6.17387	 99.87558	-21.09385	133.67006	  3.78030	161.20891	700.71997	 47.10	
 20.403	-116.741	129.03995	 12.47689	 92.63468	-23.79248	137.84341	  3.80644	161.18614	700.81000	 47.10	
 20.413	-111.900	129.05547	 18.80756	 84.68466	-26.20499	141.54100	  3.78208	161.16920	700.79999	 47.10	
 20.398	-107.004	129.22711	 25.57387	 76.83536	-28.07138	144.42766	  3.72612	161.22145	700.70001	 47.20	
 20.394	-102.132	129.31879	 32.38356	 68.98048	-29.52867	146.53973	  3.70134	161.20767	700.70001	 47.20	
 20.403	-97.332	129.43398	 39.56684	 61.11248	-30.59372	147.96089	  3.74995	161.20766	700.72998	 47.20	
 20.392	-92.440	129.60056	 46.92871	 54.45063	-30.99285	148.65663	  3.75144	161.22459	700.82001	 47.30	
 20.392	-87.560	129.74306	 53.93671	 47.28478	-30.70901	148.64415	  3.81321	161.20367	700.78998	 47.30	
 20.403	-82.668	129.94456	 60.37788	 41.60686	-29.88166	147.90501	  3.79258	161.21181	700.82001	 47.40	
 20.394	-77.868	130.22734	 68.04752	 34.84835	-28.61575	146.45474	  3.81828	161.21278	700.73999	 47.40	
 20.398	-72.996	130.40166	 76.08193	 27.99650	-27.04447	144.30704	  3.75494	161.21342	700.71002	 47.40	
 20.413	-68.100	130.56364	 84.02003	 21.24169	-25.01019	141.47070	  3.75766	161.19507	700.71002	 47.40	
 20.403	-63.259	130.94952	 92.01217	 14.97593	-22.25168	137.75404	  3.80932	161.22679	700.71997	 47.50	
 20.400	-58.396	131.18141	 99.46082	  9.08000	-19.09651	133.44542	  3.80079	161.21541	700.64001	 47.50	
 20.410	-53.489	131.30818	106.30571	  3.37935	-15.37197	128.62604	  3.84442	161.17125	700.66998	 47.50	
 20.408	-48.628	131.53011	113.05276	 -1.76866	-11.23660	122.96188	  3.86439	161.17390	700.71997	 47.50	
 20.396	-43.773	131.86067	119.51704	 -6.21682	 -6.32527	116.87151	  3.82015	161.19859	700.69000	 47.50	
 20.392	-38.938	132.05493	125.14741	-10.11675	 -1.09083	110.29207	  3.82597	161.22136	700.71002	 47.50	
 20.397	-34.097	132.21883	130.36298	-13.63925	  4.53066	103.20795	  3.84237	161.19066	700.63000	 47.50	
 20.405	-29.165	132.40981	134.93237	-16.59010	 10.87229	 96.02386	  3.84814	161.16393	700.72998	 47.50	
 20.401	-24.295	132.64240	138.95294	-18.94115	 17.21747	 88.50357	  3.83039	161.19383	700.71997	 47.40	
 20.392	-19.504	132.83841	142.14186	-20.93871	 23.72048	 80.46385	  3.79180	161.16423	700.64001	 47.40	
 20.410	-14.577	133.03424	144.57675	-22.65244	 30.75946	 72.13657	  3.82848	161.15511	700.71002	 47.40	
 20.407	 -9.736	133.12260	146.21602	-23.92428	 38.36780	 64.07067	  3.88714	161.15779	700.71002	 47.30	
 20.401	 -4.847	133.17380	147.23477	-24.73994	 46.33336	 56.15501	  3.92723	161.19131	700.75000	 47.30	
 20.400	  0.000	133.31859	147.43243	-24.95252	 53.09651	 49.37545	  3.93031	161.19455	700.71002	 47.30	
 20.401	  4.847	133.22786	146.99379	-24.80804	 58.24752	 42.84390	  3.86418	161.11890	700.77002	 47.30	
 20.407	  9.736	133.29671	145.93672	-23.98613	 65.78557	 36.01943	  3.84616	161.16856	700.70001	 47.30	
 20.410	 14.577	133.34319	144.08220	-22.62846	 73.62789	 29.21720	  3.81284	161.16232	700.76001	 47.30	
 20.392	 19.504	133.38472	141.52798	-20.75131	 81.56454	 22.64926	  3.81104	161.15158	700.67999	 47.30	
 20.401	 24.295	133.33824	138.27354	-18.66975	 89.61747	 16.37063	  3.77678	161.16954	700.71002	 47.30	
 20.405	 29.165	133.23634	134.18149	-15.80118	 97.20607	 10.28796	  3.87838	161.16736	700.65997	 47.40	
 20.397	 34.097	133.25031	129.48015	-12.39012	104.24815	  4.55900	  3.84313	161.15353	700.71002	 47.50	
 20.392	 38.938	133.28227	124.07362	 -8.50160	111.16494	 -0.65597	  3.87519	161.19838	700.70001	 47.50	
 20.396	 43.773	133.14412	118.30136	 -4.21445	117.54768	 -5.60340	  3.80870	161.19748	700.78003	 47.60	
 20.408	 48.628	132.92250	111.83764	  0.47066	123.42916	-10.18305	  3.80015	161.15498	700.77002	 47.60	
 20.410	 53.489	132.91272	105.00395	  5.64570	129.21021	-13.92032	  3.79209	161.21817	700.75000	 47.60	
 20.400	 58.396	132.82787	 97.71725	 11.42248	133.89253	-17.24628	  3.77894	161.20490	700.77002	 47.50	
 20.403	 63.259	132.69048	 90.25484	 17.77158	137.78101	-20.26065	  3.76712	161.21063	700.64001	 47.60	
 20.413	 68.100	132.43932	 82.38387	 24.26797	141.27573	-22.75105	  3.76305	161.18880	700.62000	 47.60	
 20.398	 72.996	132.38835	 74.43925	 31.09419	143.89311	-24.57206	  3.74281	161.15189	700.65002	 47.50	
 20.394	 77.868	132.18344	 66.36912	 38.08155	145.92458	-26.06104	  3.78989	161.19667	700.69000	 47.50	
 20.403	 82.668	132.09351	 58.92175	 45.09782	147.03333	-26.85826	  3.83008	161.22818	700.65997	 47.50	
 20.392	 87.560	131.87877	 52.13404	 51.39111	147.49655	-27.79081	  3.91084	161.22151	700.70001	 47.40	
 20.392	 92.440	131.75380	 45.13578	 57.97078	147.27136	-28.16015	  3.99380	161.17932	700.71997	 47.30	
 20.403	 97.332	131.61070	 38.03307	 65.11320	146.41907	-27.77750	  4.11629	161.14813	700.70001	 47.40	
 20.394	102.132	131.60410	 30.90688	 73.04966	144.83333	-26.59966	  4.19866	161.18709	700.78003	 47.40	
 20.398	107.004	131.53716	 24.17644	 80.86505	142.31825	-24.85322	  4.11891	161.15067	700.67999	 47.40	
 20.413	111.900	131.43855	 17.46048	 88.84227	139.12585	-22.70471	  4.10463	161.22722	700.79999	 47.30	
 20.403	116.741	131.24451	 11.06500	 96.54255	135.54358	-20.08720	  3.97753	161.18680	700.84003	 47.30	
 20.400	121.604	131.07393	  4.97225	103.50841	131.11784	-17.00011	  3.73495	161.12276	700.76001	 47.40	
 20.410	126.511	130.91057	 -0.58954	110.52330	125.53194	-13.48957	  3.64401	161.15685	700.87000	 47.40	
 20.408	131.372	130.78906	 -5.85707	117.20002	119.84539	 -9.39806	  3.57102	161.19453	700.83002	 47.30	
 20.396	136.227	130.73822	-10.45043	123.19950	113.63577	 -4.75211	  3.59304	161.19986	700.77002	 47.30	
 20.392	141.062	130.64743	-14.84677	128.84503	106.95129	  0.23888	  3.73323	161.20355	700.82001	 47.30	
 20.397	145.903	130.40730	-18.82084	133.73398	100.14474	  5.41708	  4.10227	161.17937	700.82001	 47.30	
 20.405	150.835	130.22267	-22.48851	138.12680	 92.60003	 11.21155	  4.37471	161.21274	700.84003	 47.30	
 20.401	155.705	130.05174	-25.38775	141.90028	 84.36884	 17.43093	  4.32975	161.23198	700.90997	 47.30	
 20.392	160.496	129.79883	-27.41923	144.87434	 76.58184	 23.69017	  4.15218	161.21878	700.84998	 47.40	
 20.410	165.423	129.57069	-28.67045	147.09808	 68.43601	 30.35340	  3.99770	161.20009	700.91998	 47.40	
 20.407	170.264	129.36427	-30.09356	148.64021	 62.06152	 37.32728	  3.87377	161.26283	700.79999	 47.40	
 20.401	175.153	129.22687	-30.29196	149.41916	 54.71635	 44.02512	  3.92415	161.21375	700.84003	 47.50	
  0.141	 45.000	161.33234	 73.53402	 77.67583	 73.61448	 74.31269	  4.30960	161.17146	700.77002	 47.50	
  4.001	128.691	160.82277	 60.48201	 88.64868	 86.34830	 59.39362	  3.44339	161.16780	700.87000	 47.60	
  4.002	 76.995	160.96501	 76.41898	 72.79859	 90.68749	 55.48441	  3.84118	161.16302	700.85999	 47.60	
  4.002	 25.892	161.08105	 89.39938	 60.49269	 81.18269	 65.13520	  3.96981	161.17073	700.85999	 47.70	
  4.002	-25.892	161.00632	 89.53400	 60.21189	 64.05885	 81.98117	  3.66424	161.14838	700.79999	 47.60	
  4.002	-76.995	160.87785	 76.57478	 72.09608	 54.19851	 92.33389	  3.39904	161.16214	700.78998	 47.60	
  4.001	-128.691	160.68106	 60.67552	 88.07838	 57.28963	 88.68961	  3.15045	161.17097	700.78003	 47.60	
  4.000	180.000	160.63788	 53.84929	 95.51711	 71.13094	 73.89977	  3.08360	161.15469	700.73999	 47.60	
  8.000	180.000	157.30698	 34.69605	111.87980	 68.06935	 71.24079	  1.94572	161.15797	700.65997	 47.70	
  7.991	-152.370	157.28281	 38.60268	106.89795	 51.41634	 88.79687	  1.85449	161.18570	700.78998	 47.70	
  7.997	-124.550	157.40596	 49.46704	 94.19331	 40.00801	102.72609	  1.92320	161.19489	700.90002	 47.60	
  8.006	-96.837	157.64287	 65.54162	 77.38274	 34.99294	109.34040	  2.08626	161.15683	700.66998	 47.60	
  7.988	-69.228	157.98167	 83.26009	 60.23075	 37.21424	106.89896	  2.36109	161.14658	700.73999	 47.60	
  7.997	-41.563	158.27887	 98.30103	 47.03781	 46.01613	 96.08654	  2.49085	161.13644	700.78998	 47.60	
  8.008	-13.821	158.59259	107.17921	 39.72743	 61.48080	 79.51604	  2.68806	161.21608	700.71997	 47.70	
  8.008	 13.821	158.65971	106.90563	 40.23483	 79.94601	 61.25546	  2.77667	161.18025	700.67999	 47.70	
  7.997	 41.563	158.56120	 97.92578	 48.14442	 95.28646	 46.59534	  2.67477	161.15526	700.87000	 47.70	
  7.988	 69.228	158.41425	 82.78300	 61.68160	105.60305	 37.78062	  2.48953	161.20110	700.73999	 47.70	
  8.006	 96.837	158.16754	 64.79271	 79.17730	107.42668	 36.06646	  2.31965	161.16434	700.73999	 47.70	
  7.997	124.550	157.85107	 49.00861	 95.40278	100.14645	 41.95517	  2.23256	161.15918	700.81000	 47.70	
  7.991	152.370	157.57602	 38.45354	107.52471	 85.84007	 54.29536	  2.21159	161.17238	700.79999	 47.70	
 12.009	161.059	151.43817	 17.02800	123.80109	 81.32598	 49.42849	  3.08014	161.21605	700.78998	 47.60	
 12.013	142.081	151.76306	 24.17353	114.56363	 98.20316	 34.66308	  3.22850	161.20766	700.88000	 47.60	
 12.006	123.113	152.07405	 36.07256	100.27004	112.12809	 24.10109	  2.48583	161.16623	700.94000	 47.60	
 12.007	104.200	152.43385	 51.40186	 83.89568	120.71107	 17.73118	  2.68150	161.16370	701.03003	 47.70	
 11.989	 85.301	152.84467	 69.12157	 65.54126	123.11396	 17.02428	  2.60206	161.19037	700.91998	 47.70	
 12.013	 66.294	153.01042	 87.42448	 48.99221	118.30611	 20.28824	  2.67548	161.16461	700.96002	 47.60	
 12.012	 47.388	153.25224	103.35635	 36.20781	107.89245	 28.63918	  2.94788	161.17096	700.88000	 47.60	
 11.990	 28.440	153.40961	115.83743	 25.97367	 92.72391	 40.92538	  3.04996	161.15517	700.96002	 47.60	
 11.991	  9.464	153.44882	122.31534	 20.52342	 75.31269	 56.84293	  3.11267	161.14474	700.96002	 47.50	
 11.991	 -9.464	153.31953	122.61149	 19.93915	 57.36548	 75.27491	  3.21053	161.18044	701.03998	 47.50	
 11.990	-28.440	153.01836	116.18719	 24.48051	 41.32838	 93.02747	  3.16761	161.22499	700.94000	 47.40	
 12.012	-47.388	152.59689	104.06181	 34.43195	 28.46718	108.58337	  3.17182	161.19194	700.98999	 47.40	
 12.013	-66.294	152.19534	 88.00127	 47.33752	 18.37269	119.86848	  3.12608	161.17055	700.85999	 47.50	
 11.989	-85.301	151.77260	 69.79198	 63.58126	 14.13532	124.78384	  2.95980	161.11975	700.92999	 47.50	
 12.007	-104.200	151.38095	 52.20490	 81.48861	 14.63695	123.27802	  3.06476	161.17340	701.03003	 47.50	
 12.006	-123.113	151.15891	 36.63160	 98.36241	 20.95577	114.96375	  2.86642	161.17867	701.06000	 47.50	
 12.013	-142.081	150.92949	 24.34002	113.07216	 32.24300	101.50974	  2.65921	161.16008	700.89001	 47.50	
 12.009	-161.059	150.92250	 16.76887	122.97147	 46.20799	 84.97153	  2.75643	161.18336	700.89001	 47.60	
 16.000	180.000	142.09204	 -7.11112	138.84871	 56.42771	 59.49601	  3.72329	161.18323	700.90997	 47.70	
 15.990	-165.604	141.92084	 -5.72574	136.05487	 40.51343	 78.47742	  3.60340	161.15594	700.94000	 47.70	
 16.002	-151.165	141.87289	  0.50386	128.56885	 23.96308	 96.07031	  3.26936	161.18431	700.95001	 47.70	
 16.002	-136.836	141.99242	 10.18090	116.01624	 10.96481	112.00112	  3.45953	161.15990	701.01001	 47.70	
 15.995	-122.439	142.14186	 22.63214	100.54900	  1.25727	125.30433	  3.67035	161.15915	701.06000	 47.60	
 15.993	-107.966	142.47496	 37.95300	 82.72181	 -4.79082	133.54262	  3.78367	161.19719	701.04999	 47.60	
 16.005	-93.629	142.74199	 54.96353	 64.37852	 -7.50092	137.37679	  3.67124	161.20378	700.98999	 47.60	
 15.992	-79.234	143.18988	 72.03741	 49.53366	 -5.93456	136.00221	  3.57378	161.16357	700.94000	 47.70	
 16.009	-64.774	143.63902	 90.78222	 33.72142	 -0.91833	129.97943	  3.60391	161.20480	701.07001	 47.60	
 15.997	-50.364	144.13748	107.21949	 18.94030	  7.65647	118.99557	  3.75604	161.18927	700.98999	 47.70	
 15.997	-36.045	144.57579	120.95224	  8.43239	 20.01790	103.96058	  3.66727	161.16583	700.94000	 47.70	
 16.000	-21.597	145.00198	130.62856	  1.52073	 35.95277	 86.85710	  3.62386	161.18092	701.04999	 47.70	
 16.003	 -7.169	145.42909	135.59123	 -1.36554	 51.74273	 67.75620	  3.78211	161.22298	700.96997	 47.70	
 16.003	  7.169	145.41403	135.33765	 -1.60412	 68.83794	 50.45510	  3.66081	161.16714	701.06000	 47.70	
 16.000	 21.597	145.41272	130.28372	  2.10009	 87.62180	 34.23438	  3.62534	161.19116	700.97998	 47.70	
 15.997	 36.045	145.39781	120.40952	  9.49280	104.22113	 20.22964	  3.71843	161.19131	701.03003	 47.70	
 15.997	 50.364	145.20650	106.24043	 21.87558	118.62657	  8.99680	  3.62474	161.19513	701.03003	 47.70	
 16.009	 64.774	144.80264	 89.85307	 36.19479	129.50200	  0.87307	  3.44125	161.17485	700.98999	 47.80	
 15.992	 79.234	144.64359	 71.07143	 51.15937	135.19847	 -3.34973	  3.52631	161.25531	700.96002	 47.80	
 16.005	 93.629	144.24077	 53.62241	 67.65436	135.76193	 -4.70653	  3.75725	161.19647	700.95001	 47.80	
 15.993	107.966	144.04077	 36.75679	 86.47443	131.57599	 -1.67507	  3.74436	161.18391	700.97998	 47.80	
 15.995	122.439	143.68872	 21.54371	103.48430	121.91630	  4.92076	  3.22422	161.16472	701.03998	 47.80	
 16.002	136.836	143.39705	  9.40120	118.53369	108.74178	 14.90629	  3.43329	161.24907	701.00000	 47.80	
 16.002	151.165	142.95593	  0.36372	130.24089	 92.42771	 27.92376	  4.27836	161.19716	700.98999	 47.80	
 15.990	165.604	142.61140	 -4.96941	136.78635	 73.67935	 43.32489	  3.74493	161.21089	700.97998	 47.80	
 20.003	168.362	130.77147	-27.19934	147.28986	 64.29677	 35.75863	  3.82569	161.17731	700.98999	 47.90	
 20.008	156.764	131.27185	-23.94670	141.90060	 82.90808	 20.17206	  4.26290	161.20154	700.98999	 47.90	
 20.000	145.147	131.80917	-16.23233	132.55602	101.17135	  6.24299	  4.04648	161.22644	700.97998	 47.90	
 19.995	133.545	132.07677	 -6.21219	119.67902	116.83474	 -5.51286	  3.47078	161.24744	701.00000	 47.90	
 20.009	121.926	132.41600	  6.34749	103.99867	130.32475	-14.91881	  3.70667	161.23880	700.98999	 47.80	
 20.005	110.327	132.75720	 21.08085	 86.52802	139.41597	-21.29392	  4.10967	161.21370	700.96997	 47.80	
 19.989	 98.733	132.99474	 37.03754	 68.23499	145.18924	-25.20369	  4.08798	161.22357	701.02002	 47.90	
 19.999	 87.075	133.20657	 53.86626	 51.66259	146.52846	-25.60156	  3.90114	161.19276	700.92999	 48.00	
 19.992	 75.457	133.58849	 71.10085	 35.88872	144.18550	-23.32066	  3.73072	161.24498	700.92999	 48.00	
 20.009	 63.844	133.92686	 89.59190	 20.24051	137.54135	-18.65544	  3.73681	161.25722	700.88000	 48.10	
 19.989	 52.269	134.30013	106.56265	  6.00065	127.27776	-10.92015	  3.76709	161.22081	701.00000	 48.00	
 19.999	 40.602	134.49643	121.82719	 -5.25824	113.14182	 -0.66648	  3.85446	161.23444	701.01001	 48.00	
 20.004	 29.051	134.60664	133.78053	-13.87597	 97.02642	 12.05936	  3.86439	161.23244	700.98999	 48.00	
 20.005	 17.433	134.64482	141.97285	-19.68437	 78.57207	 26.69429	  3.74834	161.22241	701.02002	 48.00	
 20.006	  5.780	134.59016	145.98364	-22.68604	 60.40458	 42.70559	  3.80197	161.20686	700.98999	 47.90	
 20.006	 -5.780	134.38196	146.21263	-22.67473	 45.80147	 58.57911	  3.88221	161.18813	700.91998	 47.90	
 20.005	-17.433	134.14915	142.51414	-19.77400	 27.78056	 77.55576	  3.78195	161.25323	701.01001	 47.80	
 20.004	-29.051	133.66537	134.55020	-14.83179	 12.39172	 95.81166	  3.81997	161.24509	700.90002	 47.80	
 19.999	-40.602	133.27145	122.75633	 -7.06236	 -1.15287	112.32904	  3.80065	161.19887	701.01001	 47.70	
 19.989	-52.269	132.80525	108.02413	  3.94817	-12.19789	126.69338	  3.80510	161.19167	700.95001	 47.70	
 20.009	-63.844	132.19118	 91.31458	 17.27357	-20.64619	137.45433	  3.70973	161.23306	700.95001	 47.70	
 19.992	-75.457	131.73758	 72.65181	 32.85828	-25.77205	144.63985	  3.69984	161.25096	700.94000	 47.70	
 19.999	-87.075	131.09763	 55.21135	 48.06458	-28.56969	147.70018	  3.79934	161.22089	701.02002	 47.60	
 19.989	-98.733	130.82288	 38.53294	 64.27837	-28.14293	146.68594	  3.70380	161.21272	701.06000	 47.60	
 20.005	-110.327	130.50780	 22.34327	 82.63049	-24.87141	141.82741	  3.71360	161.23792	701.09003	 47.60	
 20.009	-121.926	130.19478	  7.42106	100.42361	-19.00868	132.77063	  3.77010	161.20985	701.02002	 47.60	
 19.995	-133.545	130.07928	 -5.26150	116.51082	-10.23149	120.35294	  3.70276	161.23027	701.00000	 47.60	
 20.000	-145.147	129.99361	-15.09968	129.94250	  1.81117	105.06253	  3.61959	161.20993	701.02002	 47.70	
 20.008	-156.764	129.95103	-22.77862	139.95480	 15.88825	 88.10794	  3.55138	161.20619	700.90002	 47.70	
 20.003	-168.362	130.12068	-26.78100	146.44649	 32.00956	 69.27512	  3.89225	161.24226	701.01001	 47.70	
 20.000	180.000	130.27791	-28.01790	148.73347	 49.06918	 50.94152	  3.96690	161.19617	701.03003	 47.70	
