FileType=PCF
NHL=14
Date=03/07/19	09:30:56
Facility=APL
Serial=16071-12
Customer=NASA
NP=6
Mach=0.300000
Calibration=1:1
CalPts=490
TstPts=95
PortNumbering=AP Standard
Units=Torr C m/s kg/m^3 deg mm 
Theta[deg]	Phi[deg]	P1[Torr]	P2[Torr]	P3[Torr]	P4[Torr]	P5[Torr]	P6[Torr]	Pt[Torr]	Ps[Abs,Torr]	Ts[C]	
  0.000	  0.000	 42.72960	 17.57467	 18.52116	 18.79770	 17.15595	  0.68586	 42.66023	712.09003	 19.20	
  1.691	128.401	 42.69323	 15.97895	 19.98157	 20.60925	 15.22105	  0.59836	 42.65114	712.21997	 19.20	
  1.692	 77.194	 42.70906	 17.97612	 17.89234	 21.13362	 14.77983	  0.70333	 42.66998	712.09998	 19.20	
  1.699	 26.182	 42.74952	 19.66515	 16.40867	 19.83831	 16.04932	  0.76446	 42.69346	712.21002	 19.20	
  1.699	-26.182	 42.75575	 19.72518	 16.40383	 17.73788	 18.14078	  0.74319	 42.69131	712.19000	 19.20	
  1.692	-77.194	 42.76401	 18.11943	 17.92339	 16.68135	 19.44999	  0.63389	 42.69986	712.06000	 19.20	
  1.691	-128.401	 42.73198	 16.09687	 19.96341	 17.01544	 18.94337	  0.53772	 42.67472	712.08002	 19.20	
  1.700	180.000	 42.73345	 15.15672	 20.90493	 18.71211	 17.06537	  0.52324	 42.69223	712.19000	 19.30	
  3.400	180.000	 42.63003	 12.65621	 23.20469	 18.50163	 16.84263	  0.29663	 42.70794	712.06000	 19.30	
  3.388	-152.325	 42.65215	 13.25349	 22.62438	 16.57526	 19.10121	  0.29830	 42.68831	712.01001	 19.30	
  3.397	-124.529	 42.70387	 14.78053	 21.06352	 15.00508	 20.93625	  0.34539	 42.72749	712.09998	 19.30	
  3.399	-96.763	 42.71838	 16.92534	 18.83970	 14.29502	 21.78633	  0.42193	 42.70977	712.06000	 19.30	
  3.394	-69.283	 42.74973	 19.19121	 16.68450	 14.57823	 21.53152	  0.52628	 42.72878	712.19000	 19.30	
  3.400	-41.398	 42.76255	 21.13055	 14.82450	 15.76919	 20.18453	  0.63438	 42.72886	712.16998	 19.40	
  3.401	-14.021	 42.75721	 22.19326	 13.83432	 17.45119	 18.09824	  0.71850	 42.73808	712.15002	 19.40	
  3.401	 14.021	 42.71098	 22.11882	 13.83548	 19.80110	 15.76095	  0.76079	 42.70805	712.06000	 19.40	
  3.400	 41.398	 42.71753	 20.97985	 14.83598	 21.91965	 13.80310	  0.73481	 42.74395	712.09003	 19.40	
  3.394	 69.283	 42.66853	 18.97174	 16.67504	 23.24518	 12.53413	  0.66512	 42.72971	712.12000	 19.40	
  3.399	 96.763	 42.65674	 16.68627	 18.83581	 23.49180	 12.27087	  0.56832	 42.73490	712.13000	 19.40	
  3.397	124.529	 42.65593	 14.61781	 21.06049	 22.62645	 13.04309	  0.45537	 42.73835	712.15002	 19.50	
  3.388	152.325	 42.65635	 13.16291	 22.65398	 20.77594	 14.71120	  0.34849	 42.74150	712.06000	 19.50	
  5.099	161.165	 42.39613	 10.50650	 25.03501	 20.51319	 14.32672	  0.05151	 42.75968	712.12000	 19.50	
  5.109	142.013	 42.35508	 11.47297	 23.86640	 22.75037	 12.28410	  0.11810	 42.73941	711.97998	 19.50	
  5.095	123.033	 42.39502	 13.11365	 22.03781	 24.44973	 10.74211	  0.22334	 42.78291	712.09003	 19.50	
  5.105	104.191	 42.38348	 15.17088	 19.75821	 25.44680	  9.92358	  0.34606	 42.75927	712.09998	 19.60	
  5.093	 85.207	 42.40428	 17.50281	 17.32913	 25.66463	  9.79647	  0.42379	 42.75446	712.13000	 19.60	
  5.104	 66.290	 42.48759	 19.89702	 15.25015	 25.18342	 10.24897	  0.51467	 42.79897	712.15997	 19.60	
  5.094	 47.331	 42.51396	 21.97616	 13.38860	 23.82959	 11.45112	  0.56001	 42.76812	712.15997	 19.60	
  5.089	 28.397	 42.53582	 23.52650	 12.05051	 21.89097	 13.27159	  0.61472	 42.76524	712.15997	 19.60	
  5.096	  9.576	 42.61347	 24.39691	 11.38911	 19.62376	 15.47280	  0.62910	 42.78859	712.14001	 19.70	
  5.096	 -9.576	 42.64553	 24.44542	 11.38514	 17.32492	 17.85763	  0.59649	 42.78297	712.06000	 19.70	
  5.089	-28.397	 42.65901	 23.71779	 12.02453	 15.28509	 20.16464	  0.51774	 42.78802	712.09003	 19.70	
  5.094	-47.331	 42.66212	 22.26437	 13.33481	 13.62675	 22.11713	  0.40526	 42.78329	712.19000	 19.70	
  5.104	-66.290	 42.65675	 20.21472	 15.21814	 12.45855	 23.58147	  0.29452	 42.78463	712.15002	 19.80	
  5.093	-85.207	 42.60933	 17.90844	 17.42711	 11.95299	 24.17833	  0.19506	 42.73909	712.12000	 19.80	
  5.105	-104.191	 42.59155	 15.50335	 19.79676	 12.07814	 23.93049	  0.09715	 42.77081	712.22998	 19.80	
  5.095	-123.033	 42.56279	 13.39478	 22.02203	 12.92697	 22.77713	  0.06010	 42.78404	712.14001	 19.80	
  5.109	-142.013	 42.54119	 11.71632	 23.86085	 14.32813	 21.12537	  0.01253	 42.79838	712.19000	 19.90	
  5.099	-161.165	 42.48709	 10.62639	 25.01390	 16.20997	 18.91995	  0.00725	 42.77872	712.15997	 19.90	
  5.100	180.000	 42.43618	 10.19332	 25.42403	 18.16896	 16.57316	 -0.00687	 42.79022	712.20001	 19.90	
  6.800	180.000	 42.01408	  7.74619	 27.48425	 17.92084	 16.15977	 -0.36373	 42.79756	712.17999	 19.90	
  6.796	-166.229	 42.04797	  8.04286	 27.18313	 15.83576	 18.43541	 -0.33483	 42.78400	712.29999	 20.00	
  6.808	-152.311	 42.11214	  8.79856	 26.36580	 13.88552	 20.72856	 -0.20158	 42.79759	712.13000	 20.00	
  6.795	-138.383	 42.15597	 10.02563	 24.99537	 12.19329	 22.73602	 -0.24615	 42.79792	712.19000	 20.00	
  6.792	-124.591	 42.21835	 11.60435	 23.24719	 10.91516	 24.47660	 -0.29216	 42.80005	712.09998	 20.00	
  6.787	-110.754	 42.27422	 13.59700	 21.07766	 10.00776	 25.63070	 -0.26237	 42.79804	712.15002	 20.00	
  6.800	-96.985	 42.30357	 15.79516	 18.71524	  9.52569	 26.18003	 -0.19324	 42.78730	712.15997	 20.10	
  6.800	-83.015	 42.32378	 18.12991	 16.54087	  9.49441	 26.23353	 -0.11744	 42.77826	712.15997	 20.10	
  6.787	-69.246	 42.35755	 20.40596	 14.37286	 10.03184	 25.70422	 -0.02657	 42.79233	712.33002	 20.10	
  6.792	-55.409	 42.36184	 22.50610	 12.43531	 10.97739	 24.61146	  0.04479	 42.78382	712.22998	 20.10	
  6.795	-41.617	 42.37949	 24.25524	 10.87178	 12.27357	 22.88072	  0.13133	 42.80694	712.22998	 20.20	
  6.808	-27.689	 42.37765	 25.58452	  9.73967	 13.94761	 20.88064	  0.23996	 42.80540	712.19000	 20.20	
  6.796	-13.771	 42.35573	 26.38346	  9.05892	 16.01195	 18.58925	  0.31316	 42.81424	712.28998	 20.20	
  6.800	  0.000	 42.30616	 26.60815	  8.83141	 17.95158	 16.23577	  0.38052	 42.80120	712.25000	 20.20	
  6.796	 13.771	 42.26817	 26.27791	  9.03774	 20.37068	 13.98838	  0.41370	 42.81535	712.23999	 20.20	
  6.808	 27.689	 42.21756	 25.36479	  9.74335	 22.61035	 11.84355	  0.36031	 42.80517	712.17999	 20.30	
  6.795	 41.617	 42.15524	 23.94948	 10.93049	 24.52181	 10.12589	  0.29284	 42.79415	712.16998	 20.30	
  6.792	 55.409	 42.11820	 22.13351	 12.46556	 26.02816	  8.91866	  0.24543	 42.80720	712.25000	 20.30	
  6.787	 69.246	 42.07131	 19.95701	 14.36213	 27.13254	  7.98073	  0.21494	 42.80598	712.31000	 20.30	
  6.800	 83.015	 42.02957	 17.63175	 16.51747	 27.70227	  7.50330	  0.14067	 42.81516	712.23999	 20.40	
  6.800	 96.985	 42.01628	 15.32489	 18.66699	 27.67365	  7.52622	  0.07977	 42.83166	712.19000	 20.40	
  6.787	110.754	 41.98117	 13.15774	 21.04548	 27.02545	  7.98442	 -0.00388	 42.81676	712.23999	 20.40	
  6.792	124.591	 41.96847	 11.27233	 23.19205	 25.90623	  8.77785	 -0.11254	 42.81603	712.08002	 20.40	
  6.795	138.383	 41.97020	  9.76228	 24.98639	 24.38000	 10.03662	 -0.19133	 42.82774	712.13000	 20.50	
  6.808	152.311	 41.96006	  8.62238	 26.35597	 22.36687	 11.67289	 -0.25496	 42.81231	712.13000	 20.50	
  6.796	166.229	 42.00809	  7.93931	 27.19525	 20.07135	 13.88617	 -0.34626	 42.82155	712.16998	 20.50	
  8.491	168.704	 41.38241	  5.39531	 29.17222	 19.54543	 13.21027	 -0.68526	 42.79580	712.09998	 20.50	
  8.502	157.493	 41.35125	  5.92268	 28.46560	 21.94078	 11.04639	 -0.61218	 42.80674	712.15997	 20.60	
  8.494	146.194	 41.35061	  6.85861	 27.32202	 24.13375	  9.34529	 -0.53722	 42.83775	712.20001	 20.60	
  8.495	135.039	 41.34513	  8.09429	 25.78008	 25.97448	  7.84971	 -0.53409	 42.81466	712.09003	 20.60	
  8.487	123.723	 41.33453	  9.66092	 23.86601	 27.51428	  6.61404	 -0.53995	 42.80375	712.14001	 20.60	
  8.492	112.575	 41.34701	 11.45089	 21.72923	 28.63708	  5.66653	 -0.43977	 42.81924	712.21002	 20.60	
  8.510	101.220	 41.37894	 13.57739	 19.30394	 29.37771	  5.09585	 -0.32939	 42.82033	712.20001	 20.70	
  8.500	 90.000	 41.42490	 15.89753	 17.07378	 29.63323	  4.95001	 -0.27141	 42.83357	712.28998	 20.70	
  8.510	 78.780	 41.45604	 18.22742	 14.86489	 29.44212	  5.13087	 -0.30092	 42.83802	712.16998	 20.70	
  8.492	 67.425	 41.52669	 20.59456	 12.76404	 28.77839	  5.75512	 -0.14817	 42.85778	712.13000	 20.70	
  8.487	 56.277	 41.56248	 22.76122	 10.89997	 27.65308	  6.68279	 -0.21083	 42.83715	712.28998	 20.80	
  8.495	 44.961	 41.61018	 24.70474	  9.30445	 26.14459	  7.97102	 -0.13744	 42.81682	712.21002	 20.80	
  8.494	 33.806	 41.66949	 26.31494	  8.00523	 24.36569	  9.47475	 -0.00667	 42.82198	712.28003	 20.80	
  8.502	 22.507	 41.71799	 27.59567	  7.00899	 22.23547	 11.15984	  0.04881	 42.81812	712.19000	 20.80	
  8.491	 11.296	 41.76508	 28.34611	  6.41002	 19.90419	 13.39114	 -0.08896	 42.80896	712.27002	 20.90	
  8.500	  0.000	 41.83011	 28.67722	  6.21516	 17.65223	 15.74743	 -0.01560	 42.82906	712.22998	 20.90	
  8.491	-11.296	 41.86065	 28.45924	  6.48373	 15.50745	 18.11628	 -0.03412	 42.80825	712.14001	 20.90	
  8.502	-22.507	 41.88118	 27.78869	  7.03492	 13.42122	 20.47497	 -0.10317	 42.79969	712.27002	 20.90	
  8.494	-33.806	 41.89038	 26.62302	  7.97392	 11.56490	 22.64549	 -0.27721	 42.79180	712.26001	 21.00	
  8.495	-44.961	 41.92818	 25.13184	  9.25823	 10.00424	 24.68936	 -0.32488	 42.82134	712.29999	 21.00	
  8.487	-56.277	 41.89808	 23.29197	 10.85881	  8.63383	 26.21676	 -0.40391	 42.80192	712.21997	 21.00	
  8.492	-67.425	 41.89229	 21.18355	 12.75070	  7.67999	 27.26366	 -0.46387	 42.80611	712.10999	 21.00	
  8.510	-78.780	 41.86297	 18.84038	 14.91877	  7.05945	 28.05868	 -0.54034	 42.79358	712.07001	 21.00	
  8.500	-90.000	 41.85128	 16.42734	 17.18315	  6.90616	 28.26243	 -0.62996	 42.80923	712.21997	 21.10	
  8.510	-101.220	 41.78676	 14.17804	 19.31193	  7.04350	 27.97174	 -0.59311	 42.79096	712.13000	 21.10	
  8.492	-112.575	 41.74553	 11.98836	 21.78606	  7.63508	 27.15203	 -0.58005	 42.79770	712.13000	 21.10	
  8.487	-123.723	 41.69033	 10.06487	 23.94394	  8.53873	 26.02146	 -0.62161	 42.79840	712.15997	 21.10	
  8.495	-135.039	 41.60522	  8.37369	 25.83421	  9.81577	 24.49254	 -0.62347	 42.79000	712.17999	 21.10	
  8.494	-146.194	 41.57215	  7.05672	 27.36905	 11.39070	 22.50180	 -0.64311	 42.81152	712.17999	 21.20	
  8.502	-157.493	 41.50263	  6.06023	 28.47958	 13.25633	 20.28808	 -0.63298	 42.79984	712.08002	 21.20	
  8.491	-168.704	 41.46148	  5.49124	 29.19659	 15.29759	 17.96881	 -0.66600	 42.80618	712.19000	 21.20	
  8.500	180.000	 41.40023	  5.22514	 29.42398	 17.46786	 15.58977	 -0.71665	 42.81188	712.09998	 21.20	
 10.200	180.000	 40.62010	  2.68549	 31.26250	 16.86072	 14.99260	 -1.21276	 42.77592	712.15997	 21.20	
 10.191	-170.497	 40.68955	  2.93218	 31.07793	 14.68972	 17.38710	 -1.13868	 42.80318	712.14001	 21.30	
 10.210	-161.034	 40.71301	  3.40357	 30.48178	 12.57665	 19.73956	 -1.08391	 42.78090	712.14001	 21.30	
 10.194	-151.526	 40.77974	  4.21770	 29.44282	 10.61613	 21.96933	 -1.08629	 42.78803	712.07001	 21.30	
 10.190	-142.105	 40.84097	  5.31961	 28.14512	  8.87342	 24.10229	 -1.11804	 42.78440	712.07001	 21.30	
 10.215	-132.646	 40.89013	  6.73879	 26.47759	  7.29577	 26.04264	 -1.10590	 42.77266	712.12000	 21.40	
 10.203	-123.092	 40.96372	  8.47497	 24.49636	  6.05162	 27.53518	 -1.06403	 42.76896	712.08002	 21.40	
 10.192	-113.678	 41.05048	 10.32255	 22.33148	  5.12181	 28.85230	 -1.05741	 42.79694	712.08002	 21.40	
 10.208	-104.249	 41.09628	 12.42207	 19.90712	  4.54506	 29.69358	 -1.09547	 42.78202	712.14001	 21.40	
 10.210	-94.801	 41.15493	 14.71745	 17.71301	  4.28235	 30.15359	 -1.11126	 42.78937	712.15997	 21.40	
 10.210	-85.199	 41.18605	 17.10224	 15.41143	  4.27930	 30.17895	 -1.08382	 42.76859	712.17999	 21.50	
 10.208	-75.751	 41.21522	 19.47647	 13.20000	  4.58179	 29.79318	 -1.00131	 42.79222	712.17999	 21.50	
 10.192	-66.322	 41.25575	 21.78943	 11.14491	  5.20547	 28.96460	 -0.97491	 42.81435	712.07001	 21.50	
 10.203	-56.908	 41.24979	 23.91879	  9.22757	  6.17220	 27.68018	 -0.97331	 42.80231	712.06000	 21.50	
 10.215	-47.354	 41.24946	 25.83978	  7.52711	  7.49109	 26.11388	 -0.81077	 42.79129	712.01001	 21.50	
 10.190	-37.895	 41.25525	 27.47875	  6.19742	  9.09049	 24.31354	 -0.67849	 42.79888	712.01001	 21.60	
 10.194	-28.474	 41.21517	 28.81699	  5.13336	 10.83609	 22.20396	 -0.65070	 42.77269	711.98999	 21.60	
 10.210	-18.966	 41.20277	 29.81614	  4.33285	 12.80034	 19.94505	 -0.69233	 42.78749	712.13000	 21.60	
 10.191	 -9.503	 41.20336	 30.37893	  3.89962	 14.91588	 17.58581	 -0.50692	 42.80429	712.06000	 21.60	
 10.200	  0.000	 41.12032	 30.51629	  3.68792	 17.10739	 15.17600	 -0.59564	 42.77516	712.09003	 21.70	
 10.191	  9.503	 41.08177	 30.23034	  3.89633	 19.24805	 12.79803	 -0.54645	 42.78843	712.08002	 21.70	
 10.210	 18.966	 41.01181	 29.54865	  4.32537	 21.65908	 10.67105	 -0.33079	 42.77618	712.06000	 21.70	
 10.194	 28.474	 40.97317	 28.45333	  5.13216	 23.89952	  8.83580	 -0.62201	 42.79593	712.17999	 21.70	
 10.190	 37.895	 40.88927	 26.98617	  6.20532	 25.90796	  7.09052	 -0.64036	 42.78004	712.15002	 21.70	
 10.215	 47.354	 40.82386	 25.24726	  7.57368	 27.66311	  5.55630	 -0.62871	 42.78465	712.09003	 21.80	
 10.203	 56.908	 40.73460	 23.22249	  9.23331	 29.12710	  4.30430	 -0.65246	 42.76174	712.12000	 21.80	
 10.192	 66.322	 40.70982	 21.05359	 11.09602	 30.24955	  3.42127	 -0.75975	 42.77022	712.14001	 21.80	
 10.208	 75.751	 40.67429	 18.71577	 13.13194	 31.10537	  2.78528	 -0.86450	 42.79830	712.09003	 21.80	
 10.210	 85.199	 40.62299	 16.33579	 15.30403	 31.45354	  2.45809	 -0.88043	 42.77563	712.12000	 21.80	
 10.210	 94.801	 40.57202	 13.94631	 17.52910	 31.40867	  2.37857	 -0.86532	 42.77826	712.12000	 21.90	
 10.208	104.249	 40.52685	 11.73197	 19.85895	 30.94782	  2.68904	 -0.85905	 42.77395	712.01001	 21.90	
 10.192	113.678	 40.50275	  9.73026	 22.24976	 30.08755	  3.32577	 -0.91953	 42.77198	712.10999	 21.90	
 10.203	123.092	 40.47092	  7.91339	 24.40377	 28.89399	  4.24926	 -1.04054	 42.74333	712.04999	 21.90	
 10.215	132.646	 40.47614	  6.30009	 26.40254	 27.44299	  5.49699	 -1.07449	 42.76476	712.09003	 21.90	
 10.190	142.105	 40.47013	  4.98944	 28.02814	 25.59849	  7.01723	 -1.03133	 42.74338	712.02002	 21.90	
 10.194	151.526	 40.49423	  3.98484	 29.37352	 23.55731	  8.68324	 -1.03411	 42.75084	712.07001	 22.00	
 10.210	161.034	 40.50330	  3.25711	 30.39254	 21.27265	 10.51659	 -1.14698	 42.74663	712.09003	 22.00	
 10.191	170.497	 40.57763	  2.83472	 31.01930	 18.88170	 12.55530	 -1.23089	 42.77293	712.09003	 22.00	
 11.899	171.783	 39.63495	  0.30979	 32.80840	 18.34196	 11.82242	 -1.68351	 42.74138	712.08002	 22.00	
 11.890	163.610	 39.60900	  0.65012	 32.26028	 20.43717	  9.94454	 -1.62990	 42.76445	712.13000	 22.10	
 11.889	155.445	 39.57077	  1.20706	 31.33854	 22.80656	  8.02553	 -1.53561	 42.75662	712.09998	 22.10	
 11.909	147.299	 39.52908	  2.03611	 30.10240	 25.01888	  6.20749	 -1.49088	 42.75833	712.09998	 22.10	
 11.902	139.148	 39.52268	  3.12276	 28.61600	 26.99785	  4.58500	 -1.52690	 42.75765	712.15997	 22.10	
 11.894	130.867	 39.53793	  4.52116	 26.88538	 28.75436	  3.11533	 -1.55349	 42.76202	712.22998	 22.10	
 11.897	122.732	 39.55137	  6.13895	 24.89800	 30.18506	  1.95066	 -1.49494	 42.76063	712.21002	 22.10	
 11.903	114.597	 39.58101	  7.95575	 22.69799	 31.45951	  1.03024	 -1.37374	 42.76989	712.09003	 22.10	
 11.893	106.346	 39.58313	  9.93544	 20.27808	 32.39098	  0.34222	 -1.29735	 42.74606	712.19000	 22.20	
 11.892	 98.155	 39.61727	 12.04509	 17.91804	 33.00269	 -0.04843	 -1.28773	 42.77227	712.17999	 22.20	
 11.900	 90.000	 39.67849	 14.32253	 15.76721	 33.20826	 -0.07041	 -1.30108	 42.76252	712.15002	 22.20	
 11.892	 81.845	 39.73309	 16.69408	 13.55671	 33.08394	  0.11674	 -1.33162	 42.76513	712.22998	 22.20	
 11.893	 73.654	 39.74370	 19.10877	 11.39751	 32.55119	  0.51077	 -1.30063	 42.73966	712.15002	 22.30	
 11.903	 65.403	 39.78355	 21.46010	  9.35058	 31.69678	  1.18193	 -1.22411	 42.74803	712.13000	 22.30	
 11.897	 57.268	 39.85495	 23.62131	  7.54731	 30.49222	  2.06975	 -1.11535	 42.75157	712.13000	 22.30	
 11.894	 49.133	 39.91212	 25.65798	  5.83416	 29.06238	  3.18609	 -1.05541	 42.76238	712.23999	 22.30	
 11.902	 40.852	 39.95419	 27.52825	  4.32565	 27.35481	  4.60151	 -1.04915	 42.74442	712.19000	 22.30	
 11.909	 32.701	 40.02266	 29.12712	  3.14907	 25.41770	  6.27850	 -1.05721	 42.74800	712.08002	 22.30	
 11.889	 24.555	 40.09365	 30.38130	  2.22693	 23.26292	  8.14851	 -1.03738	 42.72633	712.09003	 22.40	
 11.890	 16.390	 40.14796	 31.34921	  1.58573	 20.93910	 10.13550	 -0.98887	 42.72618	712.16998	 22.40	
 11.899	  8.217	 40.24133	 32.00426	  1.24768	 18.50888	 12.12220	 -0.98854	 42.75762	712.16998	 22.40	
 11.900	  0.000	 40.28430	 32.24067	  1.13499	 16.44128	 14.54993	 -1.00824	 42.74916	712.14001	 22.40	
 11.899	 -8.217	 40.32821	 32.10939	  1.28110	 14.23725	 16.92205	 -1.04915	 42.74926	712.07001	 22.40	
 11.890	-16.390	 40.37889	 31.62357	  1.69281	 12.09504	 19.30871	 -1.10058	 42.76125	712.13000	 22.50	
 11.889	-24.555	 40.40471	 30.78391	  2.37316	 10.06052	 21.54341	 -1.14468	 42.75042	712.10999	 22.50	
 11.909	-32.701	 40.40171	 29.61996	  3.23148	  8.17265	 23.75864	 -1.21323	 42.73961	712.16998	 22.50	
 11.902	-40.852	 40.41618	 28.14058	  4.34517	  6.48676	 25.85337	 -1.24090	 42.75366	712.20001	 22.50	
 11.894	-49.133	 40.43297	 26.37576	  5.77225	  4.99469	 27.55351	 -1.39289	 42.76902	712.21002	 22.50	
 11.897	-57.268	 40.42650	 24.41504	  7.48501	  3.80790	 29.16312	 -1.47321	 42.76691	712.06000	 22.50	
 11.903	-65.403	 40.43315	 22.33511	  9.37700	  2.87387	 30.40331	 -1.45995	 42.79427	712.10999	 22.60	
 11.893	-73.654	 40.39359	 20.00542	 11.47284	  2.20915	 31.26017	 -1.44524	 42.75200	712.14001	 22.60	
 11.892	-81.845	 40.37551	 17.60789	 13.65689	  1.75072	 31.80071	 -1.48705	 42.76283	712.08002	 22.60	
 11.900	-90.000	 40.34037	 15.21897	 15.89831	  1.58494	 31.96626	 -1.52312	 42.76677	712.09998	 22.60	
 11.892	-98.155	 40.29459	 12.90129	 18.17293	  1.73790	 31.75875	 -1.53468	 42.77180	712.20001	 22.60	
 11.893	-106.346	 40.23860	 10.65718	 20.35392	  2.06843	 31.20858	 -1.49468	 42.76939	712.22998	 22.60	
 11.903	-114.597	 40.15042	  8.62103	 22.77487	  2.66628	 30.29996	 -1.45935	 42.72904	712.12000	 22.70	
 11.897	-122.732	 40.09178	  6.78675	 24.98787	  3.59722	 29.06112	 -1.44984	 42.74856	712.28003	 22.70	
 11.894	-130.867	 40.00710	  5.08289	 26.95578	  4.76381	 27.39739	 -1.50539	 42.74842	712.10999	 22.70	
 11.902	-139.148	 39.94327	  3.55907	 28.71770	  6.23546	 25.54201	 -1.54589	 42.76645	712.12000	 22.70	
 11.909	-147.299	 39.91029	  2.33197	 30.19105	  7.94085	 23.58324	 -1.52518	 42.77858	712.14001	 22.70	
 11.889	-155.445	 39.84754	  1.44846	 31.40649	  9.80327	 21.33611	 -1.49734	 42.78859	712.14001	 22.70	
 11.890	-163.610	 39.77078	  0.79841	 32.31371	 11.80728	 19.04233	 -1.52272	 42.76501	712.17999	 22.70	
 11.899	-171.783	 39.72064	  0.35387	 32.85123	 13.95022	 16.64773	 -1.60759	 42.76430	712.04999	 22.80	
 11.900	180.000	 39.66285	  0.14010	 33.01071	 16.12150	 14.18372	 -1.70335	 42.74932	712.12000	 22.80	
 13.600	180.000	 38.58534	 -2.34516	 34.63830	 15.29467	 13.35896	 -1.99906	 42.76443	712.08002	 22.80	
 13.608	-172.853	 38.60470	 -2.17973	 34.49977	 13.13410	 15.74234	 -1.89425	 42.74532	712.10999	 22.80	
 13.611	-165.583	 38.65771	 -1.82789	 34.03661	 10.92009	 18.24349	 -1.79023	 42.74713	712.15002	 22.80	
 13.601	-158.353	 38.73450	 -1.26921	 33.21632	  8.89880	 20.56935	 -1.75378	 42.76531	712.16998	 22.80	
 13.609	-151.210	 38.79416	 -0.51454	 32.09310	  6.98411	 22.78910	 -1.74103	 42.74191	712.22998	 22.80	
 13.611	-143.999	 38.85866	  0.54980	 30.68379	  5.18024	 24.99417	 -1.76720	 42.75843	712.20001	 22.90	
 13.601	-136.825	 38.92630	  1.85210	 29.13803	  3.58872	 26.93421	 -1.74493	 42.75335	712.23999	 22.90	
 13.596	-129.640	 38.98938	  3.39380	 27.35146	  2.28483	 28.73582	 -1.70673	 42.71888	712.15002	 22.90	
 13.611	-122.431	 39.07153	  5.07016	 25.31854	  1.17141	 30.33300	 -1.66286	 42.72444	712.19000	 22.90	
 13.604	-115.211	 39.15568	  6.89619	 23.07810	  0.29725	 31.61289	 -1.65756	 42.73154	712.15997	 22.90	
 13.595	-108.042	 39.22010	  8.87451	 20.71251	 -0.22323	 32.52069	 -1.69554	 42.73203	712.27002	 22.90	
 13.607	-100.793	 39.25718	 10.96136	 18.52014	 -0.66311	 33.21055	 -1.72791	 42.73397	712.22998	 23.00	
 13.601	-93.617	 39.32899	 13.20423	 16.21934	 -0.89292	 33.62428	 -1.73878	 42.74585	712.15997	 23.00	
 13.601	-86.383	 39.36380	 15.52950	 13.98629	 -0.91656	 33.69000	 -1.74230	 42.74134	712.19000	 23.00	
 13.607	-79.207	 39.39264	 17.97914	 11.79992	 -0.68992	 33.41679	 -1.73389	 42.73974	712.21002	 23.00	
 13.595	-71.958	 39.40065	 20.39903	  9.61682	 -0.26424	 32.61848	 -1.72879	 42.73052	712.09003	 23.00	
 13.604	-64.789	 39.43283	 22.67859	  7.59029	  0.41750	 31.70666	 -1.76288	 42.73878	712.08002	 23.00	
 13.611	-57.569	 39.44415	 24.80786	  5.67758	  1.37411	 30.48282	 -1.77427	 42.73150	712.09998	 23.00	
 13.596	-50.360	 39.46679	 26.83865	  3.96303	  2.57174	 28.91406	 -1.78007	 42.73841	712.15002	 23.00	
 13.601	-43.175	 39.45309	 28.66222	  2.49717	  3.89162	 27.09744	 -1.71512	 42.74702	712.15002	 23.10	
 13.611	-36.001	 39.42533	 30.22396	  1.26219	  5.47060	 25.17122	 -1.59136	 42.71982	712.13000	 23.10	
 13.609	-28.790	 39.41263	 31.55099	  0.34026	  7.25902	 23.05689	 -1.53668	 42.70188	712.07001	 23.10	
 13.601	-21.647	 39.38758	 32.59163	 -0.41992	  9.18748	 20.82729	 -1.51721	 42.70556	712.13000	 23.10	
 13.611	-14.417	 39.38100	 33.36810	 -0.93448	 11.27611	 18.51469	 -1.47856	 42.72881	712.21997	 23.10	
 13.608	 -7.147	 39.33221	 33.78088	 -1.27054	 13.48518	 16.06137	 -1.43539	 42.72900	712.09003	 23.10	
 13.600	  0.000	 39.29399	 33.87677	 -1.37160	 15.66210	 13.64645	 -1.41343	 42.73156	712.03998	 23.10	
 13.608	  7.147	 39.23986	 33.67558	 -1.31902	 17.87209	 11.18279	 -1.41153	 42.74158	712.10999	 23.20	
 13.611	 14.417	 39.14695	 33.09131	 -1.03260	 20.06829	  9.21762	 -1.45420	 42.70589	712.04999	 23.20	
 13.601	 21.647	 39.13494	 32.18362	 -0.62515	 22.53565	  7.21559	 -1.45662	 42.73248	712.13000	 23.20	
 13.609	 28.790	 39.05791	 31.02847	  0.08624	 24.77809	  5.39418	 -1.47561	 42.74099	712.09998	 23.20	
 13.611	 36.001	 38.94972	 29.58081	  1.02859	 26.83754	  3.58756	 -1.48887	 42.72092	712.12000	 23.20	
 13.601	 43.175	 38.88965	 27.88473	  2.22608	 28.62598	  2.04534	 -1.50471	 42.72879	712.03998	 23.20	
 13.596	 50.360	 38.82582	 26.00248	  4.00552	 30.23832	  0.78477	 -1.53506	 42.71435	711.98999	 23.20	
 13.611	 57.569	 38.75824	 23.91615	  5.70920	 31.78399	 -0.28701	 -1.58684	 42.72013	712.13000	 23.20	
 13.604	 64.789	 38.68424	 21.66619	  7.55675	 32.97276	 -1.18307	 -1.67024	 42.68992	712.17999	 23.20	
 13.595	 71.958	 38.63971	 19.34342	  9.54244	 33.87329	 -1.77895	 -1.72749	 42.68954	712.14001	 23.30	
 13.607	 79.207	 38.59955	 16.94909	 11.67271	 34.48856	 -2.23933	 -1.77668	 42.70916	712.09003	 23.30	
 13.601	 86.383	 38.53316	 14.56692	 13.80880	 34.72182	 -2.48407	 -1.76739	 42.68944	712.09003	 23.30	
 13.601	 93.617	 38.51489	 12.29201	 16.05516	 34.71809	 -2.53474	 -1.74732	 42.71008	712.12000	 23.30	
 13.607	100.793	 38.44617	 10.09198	 18.21470	 34.36486	 -2.42483	 -1.73110	 42.69551	712.14001	 23.30	
 13.595	108.042	 38.40735	  8.01268	 20.57730	 33.66328	 -2.00838	 -1.75170	 42.68538	712.28998	 23.30	
 13.604	115.211	 38.40403	  6.10053	 22.95302	 32.68566	 -1.29267	 -1.83257	 42.70451	712.13000	 23.30	
 13.611	122.431	 38.38187	  4.27822	 25.20477	 31.37373	 -0.36028	 -1.93598	 42.70382	712.07001	 23.40	
 13.596	129.640	 38.38206	  2.67254	 27.23187	 29.80172	  0.84386	 -2.00187	 42.69652	712.09998	 23.40	
 13.601	136.825	 38.37531	  1.26503	 28.96563	 28.18314	  2.19234	 -2.01643	 42.69901	712.26001	 23.40	
 13.611	143.999	 38.35102	  0.10675	 30.55463	 26.28749	  3.72537	 -1.97862	 42.67899	712.12000	 23.40	
 13.609	151.210	 38.35693	 -0.84258	 31.97691	 24.14775	  5.44042	 -1.97184	 42.66880	712.20001	 23.40	
 13.601	158.353	 38.38050	 -1.54310	 33.10304	 21.85547	  7.26427	 -2.04236	 42.66471	712.17999	 23.40	
 13.611	165.583	 38.39752	 -2.01891	 33.91940	 19.52390	  9.21192	 -2.07403	 42.65994	712.15002	 23.40	
 13.608	172.853	 38.47046	 -2.28744	 34.42509	 17.43565	 11.09931	 -2.07101	 42.68224	712.15002	 23.50	
 15.298	173.587	 37.23354	 -4.72482	 35.87050	 16.51933	 10.36034	 -2.27970	 42.65119	712.21997	 23.50	
 15.291	167.167	 37.20313	 -4.52791	 35.44530	 18.71145	  8.33649	 -2.35684	 42.66082	712.17999	 23.50	
 15.307	160.676	 37.14027	 -4.10232	 34.70590	 20.77855	  6.33966	 -2.39280	 42.64386	712.15002	 23.50	
 15.300	154.261	 37.09437	 -3.50423	 33.66972	 23.15713	  4.49861	 -2.37149	 42.62651	712.26001	 23.50	
 15.288	147.854	 37.08820	 -2.72886	 32.39905	 25.37434	  2.78169	 -2.35463	 42.62437	712.28003	 23.50	
 15.293	141.428	 37.08249	 -1.73406	 30.85666	 27.40069	  1.15294	 -2.40344	 42.62615	712.21002	 23.50	
 15.299	134.985	 37.10467	 -0.56016	 29.21895	 29.22821	 -0.29275	 -2.42224	 42.65092	712.25000	 23.60	
 15.305	128.583	 37.09566	  0.81928	 27.38979	 30.85506	 -1.60008	 -2.38179	 42.63979	712.16998	 23.60	
 15.309	122.142	 37.08720	  2.40612	 25.34005	 32.47148	 -2.76100	 -2.34690	 42.64882	712.09998	 23.60	
 15.304	115.711	 37.10249	  4.19479	 23.09412	 33.76844	 -3.74684	 -2.25400	 42.63280	712.25000	 23.60	
 15.297	109.291	 37.13719	  6.11043	 20.72366	 34.79412	 -4.40556	 -2.18700	 42.64425	712.21997	 23.60	
 15.293	102.897	 37.15010	  8.12311	 18.40561	 35.50845	 -4.81997	 -2.15052	 42.62160	712.33002	 23.60	
 15.293	 96.458	 37.21238	 10.26745	 16.21654	 35.98083	 -5.04365	 -2.16809	 42.63430	712.21997	 23.60	
 15.300	 90.000	 37.26551	 12.44928	 13.96945	 36.15842	 -5.05636	 -2.18667	 42.64437	712.26001	 23.70	
 15.293	 83.542	 37.29989	 14.70547	 11.80071	 36.05630	 -4.89011	 -2.21090	 42.63227	712.20001	 23.70	
 15.293	 77.103	 37.34613	 17.09168	  9.63673	 35.68549	 -4.63255	 -2.18950	 42.64653	712.23999	 23.70	
 15.297	 70.709	 37.37514	 19.45105	  7.56907	 35.00991	 -4.18592	 -2.16603	 42.62113	712.31000	 23.70	
 15.304	 64.289	 37.43301	 21.77030	  5.61021	 34.11302	 -3.56178	 -2.11916	 42.63739	712.35999	 23.70	
 15.309	 57.858	 37.48297	 24.03305	  3.76698	 32.87998	 -2.73379	 -2.05843	 42.63131	712.21997	 23.70	
 15.305	 51.417	 37.55487	 26.11331	  2.04098	 31.38164	 -1.67400	 -2.00861	 42.63120	712.33002	 23.70	
 15.299	 45.015	 37.63868	 28.03123	  0.58168	 29.73392	 -0.43021	 -1.96295	 42.63475	712.27002	 23.70	
 15.293	 38.572	 37.68251	 29.78828	 -0.68716	 27.98930	  0.96349	 -1.91965	 42.61441	712.23999	 23.80	
 15.288	 32.146	 37.76388	 31.37999	 -1.74991	 26.02829	  2.62242	 -1.90969	 42.62097	712.22998	 23.80	
 15.300	 25.739	 37.83469	 32.68644	 -2.60367	 23.85351	  4.46249	 -1.87868	 42.61882	712.31000	 23.80	
 15.307	 19.324	 37.88102	 33.78431	 -3.24262	 21.50234	  6.42038	 -1.82396	 42.59845	712.32001	 23.80	
 15.291	 12.833	 37.95829	 34.60861	 -3.63777	 19.11043	  8.49097	 -1.80657	 42.62195	712.34003	 23.80	
 15.298	  6.413	 38.01241	 35.14328	 -3.75566	 16.98660	 10.60515	 -1.78281	 42.62583	712.31000	 23.80	
 15.300	  0.000	 38.04367	 35.31086	 -3.72648	 14.75632	 12.47015	 -1.78687	 42.57863	712.23999	 23.80	
 15.298	 -6.413	 38.09084	 35.21509	 -3.66231	 12.57601	 15.02810	 -1.79573	 42.57676	712.31000	 23.80	
 15.291	-12.833	 38.13306	 34.84707	 -3.38856	 10.39771	 17.48556	 -1.77382	 42.58374	712.29999	 23.80	
 15.307	-19.324	 38.16243	 34.20401	 -2.99415	  8.28465	 19.84543	 -1.78249	 42.59702	712.22998	 23.90	
 15.300	-25.739	 38.21340	 33.27589	 -2.30575	  6.32103	 22.12740	 -1.80893	 42.61065	712.21002	 23.90	
 15.288	-32.146	 38.23584	 32.05677	 -1.47700	  4.50128	 24.17668	 -1.82246	 42.61136	712.17999	 23.90	
 15.293	-38.572	 38.23386	 30.58971	 -0.47150	  2.83365	 26.26793	 -1.83319	 42.59421	712.23999	 23.90	
 15.299	-45.015	 38.25556	 28.90361	  0.79214	  1.39953	 28.27358	 -1.85666	 42.59437	712.22998	 23.90	
 15.305	-51.417	 38.25286	 27.05063	  2.16663	  0.19638	 30.06571	 -1.89413	 42.59944	712.08002	 23.90	
 15.309	-57.858	 38.22464	 25.03429	  3.78383	 -0.92589	 31.56018	 -1.91301	 42.59967	712.15002	 23.90	
 15.304	-64.289	 38.19901	 22.86849	  5.65264	 -1.81871	 32.78966	 -1.90307	 42.59248	712.23999	 24.00	
 15.297	-70.709	 38.20102	 20.61411	  7.65230	 -2.47980	 33.82511	 -1.87579	 42.62897	712.14001	 24.00	
 15.293	-77.103	 38.15987	 18.24533	  9.75920	 -2.91365	 34.50469	 -1.86181	 42.58932	712.14001	 24.00	
 15.293	-83.542	 38.14629	 15.79619	 11.96683	 -3.19259	 34.96386	 -1.81908	 42.59705	712.20001	 24.00	
 15.300	-90.000	 38.09620	 13.44656	 14.15387	 -3.26571	 35.08221	 -1.80395	 42.59418	712.39001	 24.00	
 15.293	-96.458	 38.03830	 11.18975	 16.37268	 -3.16615	 34.87069	 -1.80721	 42.58506	712.34998	 24.00	
 15.293	-102.897	 37.98507	  9.04934	 18.67970	 -2.86081	 34.39664	 -1.78399	 42.58333	712.34998	 24.00	
 15.297	-109.291	 37.93492	  7.01020	 20.88331	 -2.44339	 33.67356	 -1.74643	 42.58358	712.34998	 24.00	
 15.304	-115.711	 37.86359	  5.08748	 23.19608	 -1.88622	 32.67448	 -1.73917	 42.57481	712.34998	 24.00	
 15.309	-122.142	 37.78704	  3.25801	 25.44509	 -1.10786	 31.41170	 -1.76328	 42.58662	712.35999	 24.00	
 15.305	-128.583	 37.70975	  1.62460	 27.46232	 -0.10851	 29.89103	 -1.80421	 42.57811	712.32001	 24.10	
 15.299	-134.985	 37.64468	  0.16832	 29.27997	  1.05773	 28.08272	 -1.81661	 42.58678	712.28998	 24.10	
 15.293	-141.428	 37.55348	 -1.16906	 30.90836	  2.40402	 26.06812	 -1.86178	 42.57938	712.33002	 24.10	
 15.288	-147.854	 37.47816	 -2.35182	 32.43444	  4.08562	 24.06357	 -1.86541	 42.57133	712.28003	 24.10	
 15.300	-154.261	 37.41209	 -3.23448	 33.72486	  5.95227	 21.82227	 -1.87363	 42.57376	712.33002	 24.10	
 15.307	-160.676	 37.33536	 -3.80376	 34.70512	  7.89930	 19.58493	 -1.90141	 42.56874	712.29999	 24.10	
 15.291	-167.167	 37.30987	 -4.26716	 35.44458	  9.98120	 17.21753	 -2.00577	 42.59109	712.31000	 24.10	
 15.298	-173.587	 37.22680	 -4.59822	 35.85065	 12.13986	 14.76951	 -2.09144	 42.56054	712.27002	 24.20	
 15.300	180.000	 37.18843	 -4.76359	 35.98517	 14.25596	 12.34437	 -2.19496	 42.57661	712.35999	 24.10	
 17.000	180.000	 35.83789	 -7.14044	 37.33197	 13.26070	 11.45342	 -2.26943	 42.56179	712.34998	 24.20	
 16.990	-174.179	 35.88450	 -6.96902	 37.21259	 11.10634	 13.66764	 -2.16597	 42.57503	712.34998	 24.20	
 17.009	-168.383	 35.89886	 -6.71000	 36.83118	  8.92998	 16.14636	 -2.07635	 42.55017	712.46997	 24.20	
 17.000	-162.596	 35.96527	 -6.28722	 36.17654	  6.85977	 18.51154	 -2.00088	 42.55693	712.31000	 24.20	
 16.990	-156.759	 36.03321	 -5.68845	 35.24281	  4.87062	 20.82691	 -1.91486	 42.53419	712.38000	 24.20	
 16.995	-150.919	 36.12562	 -5.01667	 34.09044	  2.91194	 23.07868	 -1.87343	 42.54638	712.34003	 24.20	
 16.988	-145.161	 36.13869	 -4.06287	 32.70375	  1.37501	 25.11240	 -1.81672	 42.51493	712.28003	 24.20	
 17.014	-139.343	 36.24108	 -2.93016	 31.14655	 -0.04305	 27.18589	 -1.78705	 42.56929	712.34003	 24.20	
 17.007	-133.546	 36.31672	 -1.62697	 29.41620	 -1.31875	 29.23962	 -1.73684	 42.56344	712.41998	 24.20	
 17.001	-127.699	 36.39540	 -0.15971	 27.55272	 -2.42255	 30.98510	 -1.73643	 42.56692	712.31000	 24.30	
 17.006	-121.937	 36.44554	  1.45462	 25.50427	 -3.40964	 32.45391	 -1.72349	 42.53371	712.37000	 24.30	
 17.002	-116.134	 36.55704	  3.25118	 23.30883	 -4.12227	 33.70258	 -1.71270	 42.55701	712.40997	 24.30	
 17.001	-110.310	 36.63662	  5.17177	 20.94951	 -4.67872	 34.76739	 -1.69955	 42.56262	712.28998	 24.30	
 16.988	-104.517	 36.68324	  7.16018	 18.78003	 -5.11306	 35.55938	 -1.72331	 42.54161	712.46997	 24.30	
 17.008	-98.662	 36.69719	  9.24036	 16.45116	 -5.55164	 36.12718	 -1.73679	 42.54285	712.37000	 24.30	
 16.996	-92.909	 36.77438	 11.42467	 14.23857	 -5.64189	 36.41212	 -1.74260	 42.55484	712.32001	 24.30	
 16.996	-87.091	 36.80477	 13.63259	 12.06050	 -5.65205	 36.42871	 -1.77487	 42.54144	712.34003	 24.30	
 17.012	-81.253	 36.83098	 15.98216	  9.81616	 -5.55713	 36.17207	 -1.82644	 42.54818	712.46002	 24.40	
 16.988	-75.483	 36.87219	 18.37901	  7.68636	 -5.18635	 35.62472	 -1.86061	 42.53791	712.51001	 24.40	
 17.001	-69.690	 36.89167	 20.71166	  5.61915	 -4.74867	 34.86633	 -1.87604	 42.54633	712.38000	 24.40	
 17.002	-63.866	 36.90611	 22.99653	  3.64539	 -4.07270	 33.82102	 -1.88796	 42.53931	712.31000	 24.40	
 17.006	-58.063	 36.93027	 25.15447	  1.88568	 -3.18063	 32.60297	 -1.91146	 42.55025	712.33002	 24.40	
 17.001	-52.301	 36.95424	 27.18019	  0.39006	 -2.12021	 31.11115	 -1.90349	 42.54491	712.34003	 24.40	
 17.007	-46.454	 36.95602	 29.11402	 -0.95059	 -0.96481	 29.34234	 -1.88935	 42.54562	712.34003	 24.40	
 17.014	-40.657	 36.94589	 30.87503	 -2.15835	  0.34700	 27.42299	 -1.92183	 42.54961	712.37000	 24.40	
 16.988	-34.839	 36.95586	 32.41391	 -3.22552	  1.77990	 25.35338	 -1.93873	 42.55692	712.31000	 24.40	
 16.995	-29.081	 36.91418	 33.74651	 -4.18702	  3.41999	 23.20733	 -1.94651	 42.55878	712.32001	 24.50	
 16.990	-23.241	 36.91334	 34.87154	 -4.92433	  5.32897	 21.06304	 -1.95758	 42.56002	712.22998	 24.50	
 17.000	-17.404	 36.86941	 35.70340	 -5.45902	  7.32708	 18.76798	 -1.95883	 42.53891	712.31000	 24.50	
 17.009	-11.617	 36.82266	 36.27840	 -5.83787	  9.38995	 16.41401	 -2.00513	 42.54309	712.39001	 24.50	
 16.990	 -5.821	 36.78072	 36.59608	 -6.09011	 11.58076	 13.87282	 -2.02086	 42.53087	712.28998	 24.50	
 17.000	  0.000	 36.72696	 36.68141	 -6.17545	 13.76869	 11.44772	 -2.09374	 42.53774	712.32001	 24.50	
 16.990	  5.821	 36.68663	 36.49692	 -6.07842	 16.02168	  9.53163	 -2.10510	 42.54727	712.35999	 24.60	
 17.009	 11.617	 36.59494	 36.03254	 -5.90188	 18.22835	  7.38273	 -2.13003	 42.53704	712.28003	 24.60	
 17.000	 17.404	 36.53986	 35.25202	 -5.37693	 20.34850	  5.46902	 -2.16821	 42.51690	712.42999	 24.60	
 16.990	 23.241	 36.50060	 34.25195	 -4.88724	 22.73891	  3.50206	 -2.21112	 42.53722	712.37000	 24.60	
 16.995	 29.081	 36.41568	 32.99514	 -4.22215	 25.01340	  1.62729	 -2.27584	 42.53317	712.34998	 24.60	
 16.988	 34.839	 36.34494	 31.60401	 -3.38900	 27.04432	 -0.02146	 -2.30890	 42.52859	712.29999	 24.60	
 17.014	 40.657	 36.26033	 29.95422	 -2.36724	 28.94173	 -1.56524	 -2.35966	 42.54072	712.50000	 24.60	
 17.007	 46.454	 36.19053	 28.06257	 -1.11319	 30.70484	 -2.92716	 -2.39602	 42.53947	712.35999	 24.60	
 17.001	 52.301	 36.11508	 26.05274	  0.27064	 32.38071	 -4.10562	 -2.45792	 42.53634	712.33002	 24.60	
 17.006	 58.063	 36.05728	 23.95034	  1.79838	 33.82390	 -5.09907	 -2.51189	 42.52576	712.40002	 24.60	
 17.002	 63.866	 36.02127	 21.68516	  3.54172	 35.01265	 -5.84376	 -2.52376	 42.50730	712.37000	 24.70	
 17.001	 69.690	 35.94772	 19.38680	  5.55146	 35.97744	 -6.54106	 -2.55052	 42.50404	712.33002	 24.70	
 16.988	 75.483	 35.88660	 17.02425	  7.56702	 36.68275	 -7.01132	 -2.59922	 42.48846	712.33002	 24.70	
 17.012	 81.253	 35.82402	 14.69146	  9.64242	 37.17222	 -7.32389	 -2.63694	 42.49957	712.37000	 24.70	
 16.996	 87.091	 35.79619	 12.46352	 11.79191	 37.38852	 -7.55028	 -2.60936	 42.50973	712.40002	 24.70	
 16.996	 92.909	 35.72253	 10.29552	 13.93850	 37.34840	 -7.74954	 -2.57372	 42.50451	712.28998	 24.70	
 17.008	 98.662	 35.68898	  8.17312	 16.20345	 37.06070	 -7.57856	 -2.55166	 42.51086	712.27002	 24.70	
 16.988	104.517	 35.68291	  6.09674	 18.45740	 36.46524	 -7.12688	 -2.54941	 42.51535	712.28998	 24.70	
 17.001	110.310	 35.64219	  4.09908	 20.72856	 35.67745	 -6.60431	 -2.56392	 42.50023	712.32001	 24.70	
 17.002	116.134	 35.61974	  2.21881	 23.08382	 34.62068	 -5.97936	 -2.63572	 42.51100	712.23999	 24.70	
 17.006	121.937	 35.57709	  0.47116	 25.30569	 33.34200	 -5.15824	 -2.70679	 42.50299	712.35999	 24.80	
 17.001	127.699	 35.56697	 -1.05888	 27.34224	 31.82572	 -4.12745	 -2.76520	 42.51685	712.34998	 24.80	
 17.007	133.546	 35.57323	 -2.45244	 29.25555	 30.13179	 -2.90574	 -2.76186	 42.51360	712.32001	 24.80	
 17.014	139.343	 35.56415	 -3.61359	 31.03138	 28.30027	 -1.50645	 -2.72239	 42.48822	712.38000	 24.80	
 16.988	145.161	 35.58665	 -4.55496	 32.61583	 26.36248	  0.04965	 -2.67432	 42.51008	712.38000	 24.80	
 16.995	150.919	 35.59373	 -5.43787	 33.95960	 24.25459	  1.67381	 -2.64166	 42.51241	712.28003	 24.80	
 16.990	156.759	 35.63314	 -6.07820	 35.11214	 21.95816	  3.52380	 -2.62945	 42.50398	712.33002	 24.80	
 17.000	162.596	 35.64407	 -6.51921	 36.02681	 19.57151	  5.43985	 -2.58898	 42.47120	712.26001	 24.80	
 17.009	168.383	 35.67367	 -6.96002	 36.71830	 17.62754	  7.37606	 -2.48781	 42.49662	712.33002	 24.80	
 16.990	174.179	 35.74824	 -7.10380	 37.11347	 15.43493	  9.42744	 -2.39863	 42.51046	712.22998	 24.80	
 18.709	174.675	 34.18689	 -9.52789	 38.33000	 14.24125	  8.43143	 -2.36858	 42.48065	712.19000	 24.80	
 18.703	169.441	 34.13301	 -9.49451	 37.96224	 16.38675	  6.34197	 -2.53170	 42.46041	712.34003	 24.80	
 18.691	164.085	 34.11953	 -9.17623	 37.36023	 18.57755	  4.36642	 -2.58797	 42.48548	712.20001	 24.90	
 18.706	158.818	 34.08402	 -8.68509	 36.51919	 20.57020	  2.45474	 -2.71387	 42.48139	712.28003	 24.90	
 18.695	153.537	 34.04421	 -8.16800	 35.44589	 22.95937	  0.63099	 -2.73824	 42.47965	712.37000	 24.90	
 18.704	148.255	 34.05362	 -7.31746	 34.23740	 25.17600	 -1.11297	 -2.81048	 42.48188	712.34998	 24.90	
 18.698	142.952	 34.01472	 -6.36483	 32.74089	 27.23662	 -2.71418	 -2.74113	 42.41496	712.27002	 24.90	
 18.699	137.625	 34.02085	 -5.38381	 31.07898	 29.16386	 -4.11061	 -2.83288	 42.42452	712.28998	 24.90	
 18.705	132.343	 34.01615	 -4.31452	 29.25438	 30.93041	 -5.38948	 -2.90608	 42.43641	712.33002	 24.90	
 18.713	127.067	 34.02721	 -2.96354	 27.32037	 32.59581	 -6.55721	 -2.94484	 42.42558	712.23999	 25.00	
 18.700	121.794	 34.09254	 -1.42447	 25.28883	 34.12858	 -7.47375	 -2.89758	 42.45466	712.21002	 25.00	
 18.698	116.504	 34.07602	  0.20919	 23.05805	 35.37445	 -8.17816	 -2.84330	 42.40337	712.20001	 25.00	
 18.707	111.165	 34.11179	  2.04401	 20.71619	 36.47617	 -8.74988	 -2.78666	 42.42012	712.22998	 25.00	
 18.690	105.863	 34.13107	  4.01858	 18.46218	 37.36398	 -9.47396	 -2.75805	 42.43436	712.20001	 25.00	
 18.696	100.583	 34.14550	  6.04452	 16.22081	 38.02002	-10.04556	 -2.77721	 42.45308	712.26001	 25.00	
 18.700	 95.309	 34.16128	  8.15279	 13.88231	 38.40970	-10.31339	 -2.78650	 42.44267	712.20001	 25.00	
 18.700	 90.000	 34.18797	 10.32158	 11.63106	 38.54695	-10.28973	 -2.80448	 42.40621	712.26001	 25.00	
 18.700	 84.691	 34.26999	 12.45014	  9.58287	 38.46626	 -9.88952	 -2.85138	 42.41781	712.21002	 25.00	
 18.696	 79.417	 34.32529	 14.62188	  7.51301	 38.17101	 -9.72125	 -2.88557	 42.42222	712.26001	 25.10	
 18.690	 74.137	 34.36703	 16.88840	  5.51277	 37.62450	 -9.42605	 -2.85451	 42.40222	712.34998	 25.10	
 18.707	 68.835	 34.39319	 19.23852	  3.48785	 36.84716	 -8.93437	 -2.79748	 42.39682	712.34003	 25.10	
 18.698	 63.496	 34.48711	 21.59370	  1.70990	 35.85758	 -8.24382	 -2.80666	 42.41115	712.20001	 25.10	
 18.700	 58.206	 34.56422	 23.84750	  0.08027	 34.62115	 -7.40963	 -2.78222	 42.40108	712.23999	 25.10	
 18.713	 52.933	 34.56906	 25.97771	 -1.46827	 33.17191	 -6.50041	 -2.71862	 42.40028	712.35999	 25.10	
 18.705	 47.657	 34.60257	 27.96501	 -2.80818	 31.53229	 -5.40156	 -2.67503	 42.37235	712.37000	 25.10	
 18.699	 42.375	 34.72386	 29.89255	 -3.93934	 29.81492	 -4.11008	 -2.61233	 42.39763	712.44000	 25.10	
 18.698	 37.048	 34.78858	 31.63583	 -5.03390	 27.92469	 -2.68329	 -2.56239	 42.38522	712.37000	 25.10	
 18.704	 31.745	 34.85550	 33.18267	 -6.02167	 25.94302	 -1.17152	 -2.51407	 42.39591	712.34998	 25.10	
 18.695	 26.463	 34.90879	 34.50583	 -6.82959	 23.77748	  0.50538	 -2.44276	 42.38129	712.31000	 25.10	
 18.706	 21.182	 34.97710	 35.67120	 -7.53198	 21.48599	  2.37351	 -2.37550	 42.40380	712.34998	 25.20	
 18.691	 15.915	 35.02818	 36.58012	 -8.02288	 19.23802	  4.34970	 -2.29486	 42.38911	712.41998	 25.20	
 18.703	 10.559	 35.07465	 37.28526	 -8.41081	 17.09484	  6.36267	 -2.27909	 42.39294	712.54999	 25.20	
 18.709	  5.325	 35.13082	 37.70365	 -8.51150	 14.88549	  8.42080	 -2.22360	 42.36794	712.39001	 25.20	
 18.700	  0.000	 35.18877	 37.88478	 -8.66466	 12.68612	 10.34320	 -2.11883	 42.39234	712.37000	 25.20	
 18.709	 -5.325	 35.26317	 37.85302	 -8.59415	 10.47776	 12.43046	 -2.03384	 42.41302	712.35999	 25.20	
 18.703	-10.559	 35.26601	 37.52686	 -8.41904	  8.29948	 14.93414	 -1.97857	 42.37183	712.27002	 25.20	
 18.691	-15.915	 35.34167	 37.00062	 -7.98218	  6.23235	 17.37979	 -1.92689	 42.38078	712.29999	 25.20	
 18.706	-21.182	 35.34864	 36.24333	 -7.60725	  4.22023	 19.65574	 -1.88261	 42.35887	712.22998	 25.30	
 18.695	-26.463	 35.40665	 35.23863	 -6.84440	  2.34284	 21.94926	 -1.89849	 42.38836	712.35999	 25.30	
 18.704	-31.745	 35.42750	 33.99626	 -6.01243	  0.76666	 24.06347	 -1.86219	 42.40010	712.28998	 25.30	
 18.698	-37.048	 35.45267	 32.54087	 -4.97864	 -0.67522	 26.19569	 -1.84707	 42.38599	712.26001	 25.30	
 18.699	-42.375	 35.45814	 30.94637	 -3.85094	 -2.03127	 28.29940	 -1.81486	 42.37754	712.39001	 25.30	
 18.705	-47.657	 35.44135	 29.12968	 -2.68394	 -3.33887	 30.18955	 -1.77038	 42.36691	712.35999	 25.30	
 18.713	-52.933	 35.40780	 27.17189	 -1.37678	 -4.43925	 31.86424	 -1.75303	 42.33995	712.39001	 25.30	
 18.700	-58.206	 35.42584	 25.13215	  0.10443	 -5.41747	 33.34618	 -1.74835	 42.36858	712.41998	 25.30	
 18.698	-63.496	 35.41111	 22.97155	  1.79523	 -6.35669	 34.64573	 -1.74079	 42.38534	712.37000	 25.30	
 18.707	-68.835	 35.36991	 20.62454	  3.61887	 -7.09130	 35.73075	 -1.71621	 42.38036	712.39001	 25.30	
 18.690	-74.137	 35.34353	 18.28000	  5.63166	 -7.56191	 36.54195	 -1.70500	 42.37772	712.32001	 25.30	
 18.696	-79.417	 35.27413	 15.91160	  7.70278	 -7.97619	 37.11391	 -1.66995	 42.34606	712.29999	 25.40	
 18.700	-84.691	 35.24692	 13.59571	  9.86683	 -8.11289	 37.45638	 -1.65698	 42.34196	712.35999	 25.30	
 18.700	-90.000	 35.23016	 11.43227	 12.05473	 -8.04148	 37.56403	 -1.61193	 42.35824	712.29999	 25.40	
 18.700	-95.309	 35.17125	  9.33582	 14.15334	 -8.11647	 37.45036	 -1.56428	 42.38164	712.19000	 25.40	
 18.696	-100.583	 35.10816	  7.21072	 16.37859	 -7.98499	 37.05715	 -1.54991	 42.35915	712.28998	 25.40	
 18.690	-105.863	 35.09239	  5.18110	 18.64883	 -7.53359	 36.43391	 -1.55645	 42.36458	712.27002	 25.40	
 18.707	-111.165	 35.04947	  3.23040	 20.71377	 -6.98480	 35.60823	 -1.53240	 42.38120	712.27002	 25.40	
 18.698	-116.504	 34.97424	  1.38172	 23.20048	 -6.40219	 34.48633	 -1.54035	 42.36048	712.32001	 25.40	
 18.700	-121.794	 34.88011	 -0.36523	 25.37850	 -5.68940	 33.17744	 -1.55416	 42.34944	712.27002	 25.40	
 18.713	-127.067	 34.79133	 -1.98381	 27.44716	 -4.80912	 31.70414	 -1.57880	 42.35789	712.29999	 25.40	
 18.705	-132.343	 34.73702	 -3.40728	 29.37036	 -3.74751	 30.02942	 -1.60540	 42.35312	712.29999	 25.40	
 18.699	-137.625	 34.65061	 -4.63810	 31.10912	 -2.51200	 28.05800	 -1.62928	 42.35012	712.21002	 25.40	
 18.698	-142.952	 34.61585	 -5.70287	 32.76142	 -1.11639	 26.03649	 -1.64823	 42.36204	712.25000	 25.40	
 18.704	-148.255	 34.55949	 -6.67350	 34.22630	  0.35846	 23.98668	 -1.70834	 42.37003	712.40002	 25.50	
 18.695	-153.537	 34.47144	 -7.52649	 35.43759	  1.87710	 21.85172	 -1.76434	 42.34013	712.34998	 25.50	
 18.706	-158.818	 34.40779	 -8.17752	 36.51688	  3.67577	 19.56194	 -1.86016	 42.36163	712.31000	 25.50	
 18.691	-164.085	 34.33281	 -8.65785	 37.33482	  5.67742	 17.22368	 -1.91692	 42.35847	712.32001	 25.50	
 18.703	-169.441	 34.26442	 -9.03747	 37.95124	  7.73292	 14.79391	 -1.98402	 42.36396	712.44000	 25.50	
 18.709	-174.675	 34.20306	 -9.35594	 38.28621	  9.90759	 12.43543	 -2.05814	 42.35293	712.44000	 25.50	
 18.700	180.000	 34.17168	 -9.43406	 38.37087	 12.05448	 10.35710	 -2.19744	 42.35369	712.41998	 25.50	
 20.400	180.000	 32.46438	-12.10750	 39.42541	 10.89397	  8.99570	 -2.04758	 42.34652	712.42999	 25.50	
 20.401	-175.153	 32.48184	-12.27437	 39.36876	  8.73604	 10.98114	 -1.90525	 42.33449	712.51001	 25.50	
 20.407	-170.264	 32.57235	-11.71715	 39.05591	  6.52500	 13.30984	 -1.89032	 42.35377	712.45001	 25.50	
 20.410	-165.423	 32.65119	-11.24832	 38.50789	  4.58041	 15.72548	 -1.83707	 42.34688	712.41998	 25.60	
 20.392	-160.496	 32.71114	-10.75263	 37.71369	  2.66470	 18.18328	 -1.76270	 42.32804	712.44000	 25.60	
 20.401	-155.705	 32.77308	-10.18227	 36.73817	  0.86690	 20.49068	 -1.70508	 42.30827	712.52002	 25.60	
 20.405	-150.835	 32.90493	 -9.28005	 35.59538	 -0.72066	 22.79955	 -1.64889	 42.34294	712.48999	 25.60	
 20.397	-145.903	 32.99216	 -8.17910	 34.21502	 -2.22086	 24.94874	 -1.63323	 42.32839	712.44000	 25.60	
 20.392	-141.062	 33.05214	 -7.25770	 32.70235	 -3.67986	 27.03916	 -1.56655	 42.34032	712.42999	 25.60	
 20.396	-136.227	 33.05298	 -6.30429	 30.99537	 -5.03915	 28.97581	 -1.50907	 42.31405	712.47998	 25.60	
 20.408	-131.372	 33.12403	 -5.17361	 29.15933	 -6.16078	 30.80168	 -1.50460	 42.32851	712.37000	 25.60	
 20.410	-126.511	 33.20740	 -3.77087	 27.29816	 -7.16118	 32.46457	 -1.48845	 42.33334	712.44000	 25.60	
 20.400	-121.604	 33.26599	 -2.20780	 25.15731	 -8.04541	 34.00318	 -1.43312	 42.32002	712.41998	 25.60	
 20.403	-116.741	 33.34393	 -0.52225	 22.81926	 -8.75673	 35.32234	 -1.45309	 42.31963	712.37000	 25.60	
 20.413	-111.900	 33.39313	  1.19261	 20.54597	 -9.32719	 36.42286	 -1.45137	 42.31965	712.40002	 25.60	
 20.398	-107.004	 33.43461	  3.11038	 18.43370	 -9.97547	 37.30820	 -1.44758	 42.30635	712.42999	 25.60	
 20.394	-102.132	 33.47044	  5.13690	 16.15081	-10.43519	 37.95504	 -1.40574	 42.30112	712.40997	 25.70	
 20.403	-97.332	 33.50161	  7.23439	 13.91123	-10.67347	 38.40017	 -1.42592	 42.29511	712.44000	 25.70	
 20.392	-92.440	 33.58076	  9.37816	 11.69915	-10.66466	 38.63101	 -1.45767	 42.30943	712.42999	 25.70	
 20.392	-87.560	 33.62525	 11.25094	  9.83880	-10.62510	 38.62498	 -1.53927	 42.28966	712.46997	 25.70	
 20.403	-82.668	 33.66050	 13.44438	  7.64503	-10.61190	 38.45846	 -1.57025	 42.31305	712.40997	 25.70	
 20.394	-77.868	 33.71542	 15.71721	  5.48456	-10.25863	 38.04695	 -1.58830	 42.29906	712.46002	 25.70	
 20.398	-72.996	 33.75936	 18.06563	  3.48957	 -9.90492	 37.43125	 -1.62800	 42.31856	712.44000	 25.70	
 20.413	-68.100	 33.74406	 20.44297	  1.68466	 -9.43695	 36.56832	 -1.63355	 42.31717	712.42999	 25.70	
 20.403	-63.259	 33.76661	 22.75674	 -0.06567	 -8.68756	 35.47920	 -1.63646	 42.29974	712.34998	 25.70	
 20.400	-58.396	 33.80762	 24.93656	 -1.60484	 -7.78066	 34.18158	 -1.67659	 42.28432	712.50000	 25.70	
 20.410	-53.489	 33.81121	 27.03125	 -3.13543	 -6.86368	 32.66380	 -1.67034	 42.26487	712.52002	 25.70	
 20.408	-48.628	 33.83266	 29.03152	 -4.49085	 -5.79343	 31.00485	 -1.68233	 42.28588	712.45001	 25.70	
 20.396	-43.773	 33.83286	 30.84920	 -5.65019	 -4.54577	 29.16110	 -1.73554	 42.27254	712.39001	 25.70	
 20.392	-38.938	 33.83355	 32.54584	 -6.79038	 -3.19002	 27.09062	 -1.78562	 42.26768	712.34003	 25.70	
 20.397	-34.097	 33.83258	 34.07549	 -7.82817	 -1.80350	 24.99135	 -1.79226	 42.29119	712.41998	 25.80	
 20.405	-29.165	 33.77461	 35.37579	 -8.73879	 -0.32538	 22.79053	 -1.83268	 42.26299	712.34003	 25.80	
 20.401	-24.295	 33.75915	 36.55334	 -9.52159	  1.33810	 20.56487	 -1.84080	 42.29604	712.35999	 25.80	
 20.392	-19.504	 33.72753	 37.43369	-10.11425	  3.13165	 18.25627	 -1.86066	 42.26498	712.41998	 25.80	
 20.410	-14.577	 33.69086	 38.15927	-10.54220	  5.05198	 15.83440	 -1.91422	 42.27735	712.39001	 25.80	
 20.407	 -9.736	 33.65767	 38.61481	-10.84243	  7.10040	 13.39397	 -2.01050	 42.29326	712.39001	 25.80	
 20.401	 -4.847	 33.55372	 38.85418	-11.19123	  9.34471	 11.05763	 -2.02378	 42.25431	712.39001	 25.80	
 20.400	  0.000	 33.50317	 38.89933	-11.18887	 11.47927	  9.10086	 -2.14757	 42.26269	712.53003	 25.80	
 20.401	  4.847	 33.46603	 38.71667	-11.04001	 13.56215	  7.22098	 -2.33220	 42.24487	712.45001	 25.80	
 20.407	  9.736	 33.37732	 38.33666	-11.11076	 15.71452	  5.14600	 -2.42537	 42.26073	712.51001	 25.90	
 20.410	 14.577	 33.29610	 37.70665	-10.84860	 17.88853	  3.12434	 -2.44979	 42.24883	712.44000	 25.90	
 20.392	 19.504	 33.29499	 36.83663	-10.19478	 20.07128	  1.18664	 -2.51240	 42.27419	712.51001	 25.90	
 20.401	 24.295	 33.22419	 35.81551	 -9.58186	 22.36892	 -0.65336	 -2.60417	 42.26627	712.47998	 25.90	
 20.405	 29.165	 33.22343	 34.55879	 -8.74442	 24.62147	 -2.32245	 -2.70377	 42.27369	712.46997	 25.90	
 20.397	 34.097	 33.15289	 33.05858	 -7.80110	 26.77322	 -3.90346	 -2.79383	 42.25285	712.41998	 25.90	
 20.392	 38.938	 33.07009	 31.41690	 -6.71251	 28.71509	 -5.30568	 -2.87427	 42.24215	712.40002	 25.90	
 20.396	 43.773	 33.01687	 29.62415	 -5.50604	 30.56344	 -6.52691	 -2.93780	 42.24684	712.39001	 25.90	
 20.408	 48.628	 32.95599	 27.73308	 -4.36652	 32.27202	 -7.63761	 -2.97480	 42.24263	712.28003	 25.90	
 20.410	 53.489	 32.86141	 25.64990	 -3.13921	 33.81605	 -8.76534	 -2.98992	 42.25164	712.38000	 25.90	
 20.400	 58.396	 32.79900	 23.48915	 -1.72866	 35.23674	 -9.64850	 -3.01190	 42.25555	712.39001	 25.90	
 20.403	 63.259	 32.73698	 21.26923	 -0.18595	 36.47631	-10.43996	 -3.03443	 42.26083	712.40002	 25.90	
 20.413	 68.100	 32.67609	 18.96388	  1.51839	 37.49341	-11.06827	 -3.09521	 42.24722	712.39001	 26.00	
 20.398	 72.996	 32.64058	 16.61799	  3.35615	 38.28040	-11.44401	 -3.16323	 42.23816	712.39001	 26.00	
 20.394	 77.868	 32.60114	 14.34268	  5.31457	 38.87785	-11.91774	 -3.20923	 42.25205	712.45001	 26.00	
 20.403	 82.668	 32.53951	 12.23357	  7.30860	 39.22845	-12.10363	 -3.18334	 42.23350	712.38000	 26.00	
 20.392	 87.560	 32.47943	 10.20912	  9.26182	 39.39034	-12.48833	 -3.10120	 42.24580	712.46997	 26.00	
 20.392	 92.440	 32.40808	  8.03685	 11.38049	 39.37510	-12.88173	 -3.05925	 42.24920	712.37000	 26.00	
 20.403	 97.332	 32.31729	  5.85395	 13.63348	 39.11054	-12.59206	 -3.01904	 42.21965	712.41998	 26.00	
 20.394	102.132	 32.31754	  3.81193	 15.92968	 38.66865	-12.42891	 -3.01883	 42.24749	712.34003	 26.00	
 20.398	107.004	 32.30467	  1.83749	 18.17963	 37.96112	-11.81274	 -3.04720	 42.24254	712.27002	 26.00	
 20.413	111.900	 32.30248	 -0.14777	 20.51678	 37.04188	-10.83944	 -3.12397	 42.25206	712.35999	 26.00	
 20.403	116.741	 32.27326	 -1.86306	 22.79304	 35.92615	-10.28714	 -3.12709	 42.24460	712.27002	 26.00	
 20.400	121.604	 32.25883	 -3.35953	 24.86832	 34.66360	 -9.72276	 -3.12546	 42.22301	712.34003	 26.00	
 20.410	126.511	 32.23990	 -4.74080	 26.95391	 33.17075	 -8.84364	 -3.09864	 42.22258	712.33002	 26.10	
 20.408	131.372	 32.20827	 -5.98815	 28.95950	 31.45549	 -7.73021	 -3.06436	 42.19634	712.28003	 26.10	
 20.396	136.227	 32.20209	 -7.11114	 30.80304	 29.68105	 -6.54429	 -2.99493	 42.19802	712.21002	 26.10	
 20.392	141.062	 32.19346	 -8.14963	 32.51374	 27.88321	 -5.26578	 -2.91375	 42.19153	712.20001	 26.10	
 20.397	145.903	 32.15942	 -9.18893	 34.06446	 25.84161	 -3.86514	 -2.84180	 42.17614	712.20001	 26.10	
 20.405	150.835	 32.16807	-10.00690	 35.46488	 23.65481	 -2.24956	 -2.76607	 42.20568	712.35999	 26.10	
 20.401	155.705	 32.18060	-10.70807	 36.61257	 21.30077	 -0.59366	 -2.69154	 42.21095	712.33002	 26.10	
 20.392	160.496	 32.20308	-11.35692	 37.53945	 19.23148	  1.23269	 -2.55771	 42.20471	712.21997	 26.10	
 20.410	165.423	 32.21829	-11.87027	 38.33566	 17.04896	  3.19994	 -2.45404	 42.20916	712.27002	 26.10	
 20.407	170.264	 32.22477	-12.15926	 38.86323	 14.84184	  5.15408	 -2.39487	 42.20627	712.31000	 26.10	
 20.401	175.153	 32.33164	-11.88355	 39.16047	 12.78658	  7.23259	 -2.24015	 42.19542	712.29999	 26.10	
  0.141	 45.000	 42.28539	 17.46764	 18.17857	 18.78931	 16.71597	  0.56447	 42.22557	712.27002	 26.10	
  4.001	128.691	 42.02779	 13.47361	 21.52237	 22.67625	 12.25858	  0.25289	 42.19310	712.25000	 26.10	
  4.002	 76.995	 42.06197	 18.14805	 16.59084	 23.88614	 11.21857	  0.47213	 42.19455	712.33002	 26.10	
  4.002	 25.892	 42.17451	 22.13059	 13.16923	 20.85156	 14.11778	  0.59746	 42.22387	712.27002	 26.10	
  4.002	-25.892	 42.21387	 22.24657	 13.15281	 16.03502	 19.01007	  0.53473	 42.21025	712.35999	 26.20	
  4.002	-76.995	 42.20788	 18.44546	 16.65702	 13.38379	 22.17053	  0.29750	 42.20226	712.32001	 26.20	
  4.001	-128.691	 42.13124	 13.69773	 21.52424	 14.30558	 20.89053	  0.13193	 42.20931	712.28998	 26.20	
  4.000	180.000	 42.04111	 11.58138	 23.64992	 18.18140	 16.45267	  0.08424	 42.18861	712.21002	 26.20	
  8.000	180.000	 41.01010	  5.80526	 28.42905	 17.23529	 15.45145	 -0.64199	 42.18312	712.31000	 26.20	
  7.991	-152.370	 41.11753	  7.00510	 27.11373	 12.62433	 20.68438	 -0.58247	 42.17988	712.22998	 26.20	
  7.997	-124.550	 41.26197	 10.23087	 23.51053	  9.16882	 24.92828	 -0.53964	 42.17794	712.29999	 26.20	
  8.006	-96.837	 41.37915	 15.04385	 18.20227	  7.59904	 27.06080	 -0.53837	 42.17480	712.29999	 26.20	
  7.988	-69.228	 41.46586	 20.37273	 13.29060	  8.18235	 26.38669	 -0.42201	 42.19166	712.23999	 26.20	
  7.997	-41.563	 41.46087	 24.78652	  9.28976	 10.83439	 23.39461	 -0.29438	 42.17730	712.32001	 26.20	
  8.008	-13.821	 41.42933	 27.33411	  7.21070	 15.07083	 18.28603	 -0.03441	 42.18486	712.32001	 26.20	
  8.008	 13.821	 41.34671	 27.21307	  7.12521	 20.13689	 12.95139	  0.07820	 42.21099	712.22998	 26.20	
  7.997	 41.563	 41.20917	 24.42465	  9.35130	 24.90426	  8.56401	 -0.07281	 42.18413	712.37000	 26.30	
  7.988	 69.228	 41.07253	 19.82365	 13.24851	 27.92593	  6.23023	 -0.14684	 42.18724	712.34998	 26.30	
  8.006	 96.837	 40.95967	 14.44021	 18.16864	 28.51342	  5.61092	 -0.27234	 42.17849	712.47998	 26.30	
  7.997	124.550	 40.92554	  9.78579	 23.42673	 26.56305	  7.18547	 -0.47953	 42.18734	712.35999	 26.30	
  7.991	152.370	 40.92052	  6.82863	 27.06067	 22.44043	 10.33165	 -0.54138	 42.16277	712.40002	 26.30	
 12.009	161.059	 38.97089	  0.55634	 31.66631	 20.92248	  8.87744	 -1.69158	 42.15870	712.45001	 26.30	
 12.013	142.081	 38.91375	  2.46504	 28.82961	 25.96928	  4.91623	 -1.55431	 42.16188	712.40997	 26.30	
 12.006	123.113	 38.93929	  5.80172	 24.66661	 29.78899	  1.71081	 -1.52157	 42.17094	712.37000	 26.30	
 12.007	104.200	 38.97889	 10.15281	 19.34604	 32.24431	 -0.07609	 -1.33001	 42.15211	712.32001	 26.30	
 11.989	 85.301	 39.08500	 15.38864	 14.18735	 32.80063	 -0.24234	 -1.35875	 42.14342	712.40997	 26.30	
 12.013	 66.294	 39.17117	 20.87221	  9.30664	 31.47602	  0.82928	 -1.25752	 42.14695	712.35999	 26.40	
 12.012	 47.388	 39.28945	 25.70945	  5.24668	 28.38046	  3.11922	 -1.11052	 42.14053	712.34998	 26.40	
 11.990	 28.440	 39.48165	 29.46503	  2.45627	 24.01397	  6.90070	 -1.10148	 42.16039	712.28998	 26.40	
 11.991	  9.464	 39.64119	 31.56845	  1.13503	 18.58485	 11.44964	 -1.02362	 42.16182	712.28003	 26.40	
 11.991	 -9.464	 39.75693	 31.70682	  1.18536	 13.63089	 16.94739	 -1.10866	 42.16447	712.31000	 26.40	
 11.990	-28.440	 39.81714	 29.93177	  2.57593	  8.91523	 22.25630	 -1.20317	 42.17044	712.28003	 26.40	
 12.012	-47.388	 39.80246	 26.42080	  5.19226	  5.05346	 26.77089	 -1.39023	 42.13344	712.37000	 26.40	
 12.013	-66.294	 39.77751	 21.74960	  9.32042	  2.60823	 30.06097	 -1.49431	 42.12343	712.34998	 26.40	
 11.989	-85.301	 39.74770	 16.29557	 14.31596	  1.54474	 31.45266	 -1.54244	 42.12859	712.32001	 26.40	
 12.007	-104.200	 39.62238	 10.96718	 19.40323	  1.82950	 30.94948	 -1.53961	 42.12883	712.34003	 26.40	
 12.006	-123.113	 39.46644	  6.44440	 24.73544	  3.47321	 28.56432	 -1.50474	 42.12588	712.32001	 26.50	
 12.013	-142.081	 39.29258	  2.87712	 28.85949	  6.58439	 24.46786	 -1.58022	 42.13459	712.37000	 26.50	
 12.009	-161.059	 39.14746	  0.76203	 31.68001	 10.87347	 19.39529	 -1.53895	 42.12936	712.29999	 26.50	
 16.000	180.000	 36.28993	 -5.68183	 36.17936	 13.69696	 11.72572	 -2.20837	 42.12410	712.32001	 26.50	
 15.990	-165.604	 36.40578	 -5.09740	 35.46460	  8.77915	 17.33091	 -1.98475	 42.13414	712.39001	 26.50	
 16.002	-151.165	 36.54176	 -3.80072	 33.23724	  4.15485	 22.65162	 -1.84029	 42.11275	712.45001	 26.50	
 16.002	-136.836	 36.70766	 -1.11678	 29.68556	  0.54826	 27.42823	 -1.81295	 42.09687	712.17999	 26.50	
 15.995	-122.439	 36.87273	  2.34493	 25.34513	 -1.97336	 31.34998	 -1.75235	 42.10295	712.40002	 26.50	
 15.993	-107.966	 37.07752	  6.73245	 20.04203	 -3.41527	 33.97696	 -1.74051	 42.12349	712.46997	 26.50	
 16.005	-93.629	 37.16530	 11.59786	 14.84854	 -4.16942	 35.13892	 -1.79225	 42.10925	712.46002	 26.50	
 15.992	-79.234	 37.25270	 16.97810	  9.78619	 -3.99351	 34.80709	 -1.80461	 42.09835	712.45001	 26.60	
 16.009	-64.774	 37.27990	 22.42394	  4.97156	 -2.83108	 32.94601	 -1.90522	 42.10003	712.39001	 26.60	
 15.997	-50.364	 37.35218	 27.25989	  1.06581	 -0.50746	 29.73227	 -1.87997	 42.09256	712.27002	 26.60	
 15.997	-36.045	 37.32604	 31.25702	 -1.81359	  2.58562	 25.30890	 -1.85543	 42.11716	712.28998	 26.60	
 16.000	-21.597	 37.27233	 34.07537	 -3.69068	  6.81112	 20.28536	 -1.84935	 42.10397	712.33002	 26.60	
 16.003	 -7.169	 37.17449	 35.41272	 -4.61979	 11.67295	 14.76868	 -1.86862	 42.10366	712.29999	 26.60	
 16.003	  7.169	 37.04389	 35.27475	 -4.68639	 16.75102	  9.47404	 -1.89847	 42.09258	712.39001	 26.60	
 16.000	 21.597	 36.90765	 33.54994	 -3.77989	 21.99794	  4.87498	 -1.97430	 42.10656	712.21002	 26.60	
 15.997	 36.045	 36.74526	 30.44496	 -2.04897	 27.05757	  0.65422	 -2.08053	 42.11025	712.34003	 26.60	
 15.997	 50.364	 36.62414	 26.23712	  0.87023	 31.12347	 -2.46283	 -2.17107	 42.12604	712.34003	 26.60	
 16.009	 64.774	 36.41917	 21.23898	  4.92870	 34.20692	 -4.62578	 -2.26084	 42.08104	712.39001	 26.70	
 15.992	 79.234	 36.31976	 15.75713	  9.62938	 35.92471	 -5.74446	 -2.34181	 42.06935	712.27002	 26.70	
 16.005	 93.629	 36.19357	 10.54980	 14.60799	 36.20767	 -6.18120	 -2.32961	 42.08038	712.28998	 26.70	
 15.993	107.966	 36.12881	  5.74462	 19.81987	 35.01656	 -5.46687	 -2.31571	 42.09545	712.37000	 26.70	
 15.995	122.439	 36.04869	  1.45414	 25.15535	 32.36735	 -3.72827	 -2.47186	 42.08332	712.27002	 26.70	
 16.002	136.836	 36.07032	 -1.86602	 29.61466	 28.52877	 -0.89286	 -2.51814	 42.09344	712.40997	 26.70	
 16.002	151.165	 36.05674	 -4.11230	 33.11407	 23.93241	  2.74712	 -2.46807	 42.07559	712.40997	 26.70	
 15.990	165.604	 36.15523	 -5.29448	 35.35301	 18.52994	  7.08981	 -2.48977	 42.08093	712.46002	 26.70	
 20.003	168.362	 32.54715	-11.41604	 38.33001	 15.93351	  4.73655	 -2.46512	 42.08786	712.42999	 26.70	
 20.008	156.764	 32.47126	-10.30925	 36.48628	 20.84470	  0.18911	 -2.70026	 42.07336	712.40002	 26.80	
 20.000	145.147	 32.48690	 -8.44101	 33.59428	 26.13559	 -3.62818	 -2.86062	 42.08069	712.48999	 26.80	
 19.995	133.545	 32.50742	 -6.08494	 29.66378	 30.50886	 -6.65182	 -3.06873	 42.07764	712.40002	 26.80	
 20.009	121.926	 32.53355	 -2.97575	 24.95499	 34.29510	 -9.08551	 -3.13942	 42.06887	712.44000	 26.80	
 20.005	110.327	 32.58307	  0.90646	 19.76818	 36.98771	-10.50203	 -3.06671	 42.05972	712.46997	 26.80	
 19.989	 98.733	 32.61052	  5.57985	 14.50209	 38.60571	-12.01560	 -3.02563	 42.06919	712.46002	 26.80	
 19.999	 87.075	 32.71149	 10.60208	  9.32671	 38.97190	-11.79739	 -3.09015	 42.04722	712.34003	 26.80	
 19.992	 75.457	 32.85630	 15.53864	  4.66929	 38.20890	-11.14003	 -3.14934	 42.05362	712.34003	 26.80	
 20.009	 63.844	 32.94134	 20.97896	  0.37534	 36.24310	 -9.94822	 -3.03500	 42.05468	712.38000	 26.80	
 19.989	 52.269	 33.12646	 26.05291	 -3.03246	 33.15566	 -7.91033	 -2.98205	 42.05739	712.32001	 26.80	
 19.999	 40.602	 33.27249	 30.57025	 -5.80644	 29.18857	 -5.23404	 -2.89329	 42.06040	712.38000	 26.90	
 20.004	 29.051	 33.41902	 34.21454	 -8.16109	 24.51565	 -1.81617	 -2.70016	 42.05902	712.50000	 26.90	
 20.005	 17.433	 33.50143	 36.78917	 -9.83655	 19.20969	  2.41176	 -2.51494	 42.04400	712.44000	 26.90	
 20.006	  5.780	 33.64431	 38.21650	-10.40341	 14.15463	  7.17414	 -2.34655	 42.03893	712.44000	 26.90	
 20.006	 -5.780	 33.77378	 38.34468	-10.47090	  9.16347	 11.70390	 -2.07986	 42.03985	712.37000	 26.90	
 20.005	-17.433	 33.86946	 37.29001	 -9.72181	  4.25598	 17.33509	 -1.95953	 42.01402	712.46002	 26.90	
 20.004	-29.051	 33.93575	 34.97910	 -8.18162	  0.09902	 22.65845	 -1.91225	 42.01616	712.34003	 26.90	
 19.999	-40.602	 33.99862	 31.65469	 -5.86398	 -3.14227	 27.57179	 -1.82869	 42.01763	712.46002	 26.90	
 19.989	-52.269	 34.00293	 27.32884	 -3.00847	 -5.98474	 31.89471	 -1.76157	 42.00146	712.38000	 26.90	
 20.009	-63.844	 33.90669	 22.35571	  0.50706	 -8.20085	 35.16092	 -1.70400	 42.00060	712.34003	 27.00	
 19.992	-75.457	 33.85093	 16.94416	  4.86078	 -9.50414	 37.26137	 -1.65327	 42.00977	712.41998	 27.00	
 19.999	-87.075	 33.76301	 11.60985	  9.80900	-10.00801	 38.13449	 -1.60792	 42.01373	712.41998	 27.00	
 19.989	-98.733	 33.63708	  6.85756	 14.65639	 -9.97515	 37.78110	 -1.51335	 42.00362	712.35999	 27.00	
 20.005	-110.327	 33.54806	  2.13983	 19.77898	 -8.90893	 36.24876	 -1.52797	 42.01289	712.46002	 27.00	
 20.009	-121.926	 33.38737	 -1.95203	 25.13280	 -7.47060	 33.51153	 -1.53713	 42.04005	712.45001	 27.00	
 19.995	-133.545	 33.22385	 -5.28974	 29.67753	 -5.17873	 29.70198	 -1.58153	 42.02953	712.44000	 27.00	
 20.000	-145.147	 33.10978	 -7.62249	 33.59919	 -2.03809	 25.05845	 -1.69130	 42.02745	712.42999	 27.00	
 20.008	-156.764	 32.90664	 -9.71034	 36.51118	  1.55100	 19.98478	 -1.82559	 42.03170	712.51001	 27.00	
 20.003	-168.362	 32.75457	-10.75043	 38.29869	  5.96568	 14.46952	 -1.99042	 42.01753	712.47998	 27.00	
 20.000	180.000	 32.64603	-11.21539	 38.87233	 10.99464	  9.37443	 -2.18954	 42.03601	712.34998	 27.00	
