FileType=PCF
NHL=14
Date=03/07/19	10:07:08
Facility=APL
Serial=16071-12
Customer=NASA
NP=6
Mach=0.380000
Calibration=1:1
CalPts=490
TstPts=95
PortNumbering=AP Standard
Units=Torr C m/s kg/m^3 deg mm 
Theta[deg]	Phi[deg]	P1[Torr]	P2[Torr]	P3[Torr]	P4[Torr]	P5[Torr]	P6[Torr]	Pt[Torr]	Ps[Abs,Torr]	Ts[C]	
  0.000	  0.000	 67.03190	 27.67085	 29.51084	 30.07772	 27.34459	  0.72708	 66.90582	712.35999	 28.70	
  1.691	128.401	 66.99792	 25.22196	 31.80708	 32.85199	 24.34249	  0.59985	 66.90407	712.40997	 28.80	
  1.692	 77.194	 66.99325	 28.36171	 28.55540	 33.61308	 23.63370	  0.77048	 66.88925	712.41998	 28.80	
  1.699	 26.182	 67.03960	 30.96687	 25.93742	 31.65796	 25.65424	  0.84471	 66.92852	712.28998	 28.90	
  1.699	-26.182	 67.04719	 31.03837	 25.92876	 28.40804	 28.90552	  0.79055	 66.91421	712.46997	 28.90	
  1.692	-77.194	 67.03344	 28.54344	 28.48768	 26.09732	 30.88263	  0.65543	 66.91839	712.38000	 29.00	
  1.691	-128.401	 67.08254	 25.38994	 31.79377	 26.79156	 30.16513	  0.51310	 66.96675	712.46002	 29.00	
  1.700	180.000	 67.10262	 23.89789	 33.31395	 29.94008	 27.27986	  0.46454	 66.99759	712.46002	 29.10	
  3.400	180.000	 66.89517	 20.12025	 36.57175	 29.57952	 26.97972	  0.11291	 66.97882	712.44000	 29.10	
  3.388	-152.325	 66.94996	 21.00084	 35.69685	 25.97135	 30.38476	  0.10448	 66.96761	712.51001	 29.20	
  3.397	-124.529	 66.98148	 23.32861	 33.35300	 23.48259	 33.09486	  0.18436	 66.97513	712.53003	 29.20	
  3.399	-96.763	 67.04086	 26.68655	 29.97262	 22.31379	 34.41241	  0.30285	 66.96979	712.53998	 29.20	
  3.394	-69.283	 67.08768	 30.23160	 26.33644	 22.78868	 34.05441	  0.49116	 67.01681	712.53998	 29.30	
  3.400	-41.398	 67.11916	 33.18442	 23.51701	 24.75591	 32.05751	  0.66978	 67.03627	712.46002	 29.30	
  3.401	-14.021	 67.10934	 34.73505	 22.00847	 28.06000	 28.90355	  0.79385	 67.03084	712.53998	 29.40	
  3.401	 14.021	 67.09621	 34.65324	 22.00334	 31.72389	 25.23026	  0.84512	 67.06458	712.50000	 29.40	
  3.400	 41.398	 67.07146	 32.95650	 23.55694	 34.87376	 22.07121	  0.79696	 67.08832	712.50000	 29.50	
  3.394	 69.283	 67.00437	 29.89663	 26.44135	 36.78395	 20.09139	  0.70165	 67.06477	712.41998	 29.50	
  3.399	 96.763	 66.95583	 26.28856	 30.11664	 37.11323	 19.66928	  0.55910	 67.06403	712.41998	 29.50	
  3.397	124.529	 66.92488	 23.00356	 33.54716	 35.78141	 20.94969	  0.34466	 67.04436	712.45001	 29.60	
  3.388	152.325	 66.93840	 20.84162	 35.73511	 33.07068	 23.62099	  0.19204	 67.05412	712.54999	 29.60	
  5.099	161.165	 66.49163	 16.64683	 39.31990	 32.69385	 22.98093	 -0.30927	 67.05367	712.46002	 29.60	
  5.109	142.013	 66.42828	 18.26763	 37.52147	 36.00933	 19.65537	 -0.20551	 67.02383	712.44000	 29.70	
  5.095	123.033	 66.43950	 20.72787	 34.92413	 38.46345	 17.35686	 -0.00631	 67.01867	712.46002	 29.70	
  5.105	104.191	 66.50470	 23.88675	 31.53072	 39.99748	 15.91376	  0.19050	 67.06631	711.81000	 29.70	
  5.093	 85.207	 66.53489	 27.53412	 27.70601	 40.37112	 15.63590	  0.31258	 67.02573	712.32001	 29.80	
  5.104	 66.290	 66.65335	 31.22199	 24.15958	 39.59449	 16.45204	  0.44180	 67.10133	712.40997	 29.80	
  5.094	 47.331	 66.71674	 34.36288	 21.22902	 37.62846	 18.39426	  0.55888	 67.06023	712.35999	 29.80	
  5.089	 28.397	 66.77604	 36.75118	 19.14969	 34.77097	 21.33470	  0.61866	 67.06908	712.42999	 29.90	
  5.096	  9.576	 66.88840	 38.16242	 18.10006	 31.29811	 24.87148	  0.65029	 67.09990	712.42999	 29.90	
  5.096	 -9.576	 66.93113	 38.25948	 18.09351	 27.44880	 28.58704	  0.58854	 67.10836	711.63000	 29.90	
  5.089	-28.397	 66.95526	 37.05513	 19.16077	 24.02094	 32.13167	  0.45756	 67.09925	711.62000	 30.00	
  5.094	-47.331	 66.95544	 34.82380	 21.23116	 21.23849	 35.05268	  0.27590	 67.08015	712.37000	 30.00	
  5.104	-66.290	 66.96836	 31.75341	 24.19987	 19.30583	 36.78640	  0.11353	 67.11329	711.72998	 30.00	
  5.093	-85.207	 66.95512	 28.18716	 27.73141	 18.49830	 37.66203	 -0.03978	 67.12538	712.40002	 30.00	
  5.105	-104.191	 66.85454	 24.44259	 31.53694	 18.67554	 37.30486	 -0.20182	 67.09016	712.38000	 30.10	
  5.095	-123.033	 66.80152	 21.21798	 34.83853	 20.03829	 35.65444	 -0.28160	 67.10295	712.42999	 30.10	
  5.109	-142.013	 66.75880	 18.65248	 37.60029	 22.37808	 33.52377	 -0.35562	 67.14426	711.72998	 30.20	
  5.099	-161.165	 66.67325	 16.83270	 39.41023	 25.42138	 30.19234	 -0.37897	 67.13302	712.35999	 30.20	
  5.100	180.000	 66.60410	 16.10769	 40.01596	 29.08704	 26.56876	 -0.41651	 67.12989	712.52002	 30.20	
  6.800	180.000	 65.90510	 12.11672	 43.24343	 28.13826	 25.92077	 -0.98182	 67.12673	712.10999	 30.20	
  6.796	-166.229	 65.98784	 12.60715	 42.79430	 24.87263	 29.48957	 -0.94234	 67.13616	712.47998	 30.30	
  6.808	-152.311	 66.06870	 13.88054	 41.50514	 21.67554	 32.96810	 -0.89840	 67.13158	712.62000	 30.30	
  6.795	-138.383	 66.13533	 15.87678	 39.32323	 18.91667	 35.55222	 -0.88733	 67.10504	712.58002	 30.30	
  6.792	-124.591	 66.23852	 18.54605	 36.63065	 16.78264	 38.06424	 -0.81898	 67.09949	712.41998	 30.30	
  6.787	-110.754	 66.34997	 21.58113	 33.48456	 15.35480	 39.88538	 -0.74967	 67.12711	712.47998	 30.40	
  6.800	-96.985	 66.41525	 24.94318	 29.88714	 14.60502	 40.88055	 -0.69706	 67.11989	711.75000	 30.40	
  6.800	-83.015	 66.46184	 28.54472	 26.22844	 14.59514	 40.94199	 -0.54807	 67.10409	711.81000	 30.40	
  6.787	-69.246	 66.47260	 32.01324	 22.87236	 15.37607	 40.05143	 -0.39812	 67.09976	711.81000	 30.50	
  6.792	-55.409	 66.47441	 35.20712	 19.80787	 16.89231	 38.29882	 -0.29417	 67.08868	711.73999	 30.50	
  6.795	-41.617	 66.49838	 37.95954	 17.32479	 19.10076	 35.86710	 -0.13196	 67.10472	711.67999	 30.50	
  6.808	-27.689	 66.47727	 40.10424	 15.47854	 21.93734	 33.17749	  0.02384	 67.08745	711.76001	 30.50	
  6.796	-13.771	 66.45361	 41.36004	 14.39418	 25.20677	 29.66697	  0.12087	 67.10154	711.76001	 30.60	
  6.800	  0.000	 66.39503	 41.72135	 14.00570	 28.88099	 26.01237	  0.24681	 67.09895	711.75000	 30.60	
  6.796	 13.771	 66.34060	 41.16216	 14.37735	 32.54118	 22.37858	  0.28582	 67.11565	711.78998	 30.60	
  6.808	 27.689	 66.23545	 39.71801	 15.42097	 35.92487	 18.93378	  0.20743	 67.10840	711.87000	 30.60	
  6.795	 41.617	 66.18332	 37.41631	 17.34209	 38.73458	 16.31026	  0.15437	 67.13017	711.82001	 30.70	
  6.792	 55.409	 66.08825	 34.57697	 19.82404	 41.10136	 14.14292	  0.11948	 67.11868	711.90997	 30.70	
  6.787	 69.246	 65.99836	 31.33281	 22.81290	 42.57903	 12.58062	  0.01281	 67.10671	711.81000	 30.70	
  6.800	 83.015	 65.92125	 27.74978	 26.08535	 43.49099	 11.77681	 -0.11252	 67.10641	711.84003	 30.70	
  6.800	 96.985	 65.84004	 24.11927	 29.83968	 43.36396	 11.78598	 -0.22889	 67.07844	711.87000	 30.80	
  6.787	110.754	 65.77618	 20.89815	 33.45853	 42.41642	 12.60355	 -0.35352	 67.05744	711.89001	 30.80	
  6.792	124.591	 65.75573	 17.85715	 36.59433	 40.72919	 14.10568	 -0.55070	 67.05338	711.90002	 30.80	
  6.795	138.383	 65.76676	 15.29214	 39.25653	 38.37252	 16.29260	 -0.72776	 67.08385	711.82001	 30.80	
  6.808	152.311	 65.75248	 13.47334	 41.47733	 35.41291	 19.01319	 -0.87672	 67.05732	712.44000	 30.80	
  6.796	166.229	 65.82471	 12.39461	 42.70910	 31.94828	 22.34646	 -0.98408	 67.08467	712.60999	 30.80	
  8.491	168.704	 64.82714	  8.34823	 45.96029	 31.14940	 21.33321	 -1.50141	 67.03580	712.69000	 30.80	
  8.502	157.493	 64.77079	  9.19189	 44.81223	 34.75727	 17.85842	 -1.49643	 67.04136	712.66998	 30.90	
  8.494	146.194	 64.75388	 10.69157	 42.84283	 37.99145	 15.05624	 -1.42031	 67.02597	712.50000	 30.90	
  8.495	135.039	 64.76083	 12.68097	 40.49799	 40.76427	 12.54539	 -1.30493	 67.03333	712.21997	 30.90	
  8.487	123.723	 64.75760	 15.18804	 37.59263	 43.03890	 10.47982	 -1.16239	 67.03019	712.57001	 30.90	
  8.492	112.575	 64.76637	 18.19019	 34.48996	 44.89660	  8.91610	 -0.96846	 67.02363	711.83002	 30.90	
  8.510	101.220	 64.78214	 21.57239	 30.78081	 46.18853	  7.92800	 -0.84365	 66.98506	711.83002	 31.00	
  8.500	 90.000	 64.85580	 24.96140	 26.99439	 46.64092	  7.62968	 -0.74429	 66.99336	712.51001	 31.00	
  8.510	 78.780	 64.92297	 28.62060	 23.51126	 46.36182	  7.89397	 -0.65683	 67.00531	711.85999	 31.00	
  8.492	 67.425	 64.98918	 32.27423	 20.19337	 45.20109	  8.89764	 -0.52841	 66.98630	711.88000	 31.00	
  8.487	 56.277	 65.14375	 35.53082	 17.29227	 43.41002	 10.45183	 -0.50457	 67.03400	711.96997	 31.00	
  8.495	 44.961	 65.21664	 38.54577	 14.73188	 41.15655	 12.51499	 -0.52998	 67.01815	711.88000	 31.10	
  8.494	 33.806	 65.30650	 41.13936	 12.69583	 38.42892	 15.08284	 -0.35222	 67.02576	711.82001	 31.10	
  8.502	 22.507	 65.37193	 43.13840	 11.12986	 35.27497	 18.09483	 -0.24615	 67.00034	711.89001	 31.10	
  8.491	 11.296	 65.48076	 44.37923	 10.24425	 31.71976	 21.47230	 -0.20336	 67.01859	711.91998	 31.10	
  8.500	  0.000	 65.53614	 44.88572	  9.90459	 27.82877	 25.15428	 -0.29749	 67.00596	711.82001	 31.10	
  8.491	-11.296	 65.61147	 44.59660	 10.24436	 24.32940	 28.90960	 -0.40779	 67.01822	711.90002	 31.20	
  8.502	-22.507	 65.66087	 43.55917	 11.16332	 20.94723	 32.57860	 -0.50713	 67.03466	711.90002	 31.20	
  8.494	-33.806	 65.73892	 41.72674	 12.76267	 17.99201	 35.62258	 -0.62015	 67.05436	711.96002	 31.20	
  8.495	-44.961	 65.68159	 39.26661	 14.76672	 15.43254	 38.33361	 -0.80532	 66.98196	711.90002	 31.20	
  8.487	-56.277	 65.72681	 36.36504	 17.31087	 13.33105	 40.87520	 -0.94352	 67.04143	711.88000	 31.20	
  8.492	-67.425	 65.67904	 33.20127	 20.22355	 11.79649	 42.70852	 -1.02243	 67.01714	711.84998	 31.30	
  8.510	-78.780	 65.63859	 29.60032	 23.63129	 10.78080	 43.90905	 -1.16428	 67.01955	711.94000	 31.30	
  8.500	-90.000	 65.60384	 25.94983	 27.22404	 10.49658	 44.24943	 -1.30416	 67.05103	711.92999	 31.30	
  8.510	-101.220	 65.53433	 22.42706	 30.92213	 10.76539	 43.85777	 -1.30771	 67.04473	711.81000	 31.30	
  8.492	-112.575	 65.40899	 19.05844	 34.58479	 11.63343	 42.56070	 -1.40456	 67.01156	712.03003	 31.30	
  8.487	-123.723	 65.30750	 15.89405	 37.74514	 13.09828	 40.64359	 -1.30123	 66.99323	711.96002	 31.30	
  8.495	-135.039	 65.20742	 13.24400	 40.63095	 15.16243	 38.08315	 -1.35747	 67.00916	711.92999	 31.40	
  8.494	-146.194	 65.09319	 11.15934	 42.91677	 17.59970	 35.34251	 -1.28813	 66.99677	711.97998	 31.40	
  8.502	-157.493	 64.98465	  9.52073	 44.83593	 20.54201	 32.29760	 -1.34939	 66.99472	711.92999	 31.40	
  8.491	-168.704	 64.91913	  8.51364	 45.95284	 23.82096	 28.72141	 -1.59062	 67.01644	711.90002	 31.40	
  8.500	180.000	 64.82484	  8.12023	 46.34904	 27.25296	 25.01635	 -1.65843	 66.99580	711.90997	 31.40	
 10.200	180.000	 63.59812	  3.93140	 49.27908	 26.24486	 23.95563	 -2.31924	 66.96519	711.92999	 31.50	
 10.191	-170.497	 63.68616	  4.31608	 48.92236	 22.78005	 27.76343	 -2.20283	 66.96808	712.01001	 31.50	
 10.210	-161.034	 63.77229	  5.20929	 48.00638	 19.43139	 31.44094	 -2.05041	 66.98930	712.23999	 31.50	
 10.194	-151.526	 63.85474	  6.65474	 46.39294	 16.41629	 34.73423	 -1.98841	 66.92953	711.92999	 31.50	
 10.190	-142.105	 64.02407	  8.45646	 44.25560	 13.77433	 37.59196	 -2.01472	 66.99909	711.92999	 31.50	
 10.215	-132.646	 64.10280	 10.64808	 41.70600	 11.36353	 40.68021	 -1.96619	 66.97797	711.97998	 31.50	
 10.203	-123.092	 64.22704	 13.34204	 38.64518	  9.39737	 43.21399	 -1.88475	 66.98411	711.87000	 31.60	
 10.192	-113.678	 64.31810	 16.36488	 35.45720	  7.95072	 45.08518	 -1.88378	 66.96888	712.69000	 31.60	
 10.208	-104.249	 64.41033	 19.84153	 31.88552	  7.00924	 46.40580	 -1.94244	 66.96818	712.09003	 31.60	
 10.210	-94.801	 64.46756	 23.25897	 28.09373	  6.55563	 47.10362	 -1.99457	 66.92794	711.87000	 31.60	
 10.210	-85.199	 64.57643	 26.96841	 24.35571	  6.63711	 47.14863	 -1.92591	 66.96729	711.91998	 31.60	
 10.208	-75.751	 64.58117	 30.64498	 20.88129	  7.09487	 46.52325	 -1.85538	 66.93631	711.85999	 31.60	
 10.192	-66.322	 64.63461	 34.17448	 17.62138	  8.17188	 45.24127	 -1.73084	 66.93938	711.96002	 31.60	
 10.203	-56.908	 64.67277	 37.38675	 14.67914	  9.69461	 43.36481	 -1.66635	 66.95601	711.97998	 31.70	
 10.215	-47.354	 64.66816	 40.41818	 12.10669	 11.69369	 40.91365	 -1.52744	 66.93389	712.03003	 31.70	
 10.190	-37.895	 64.67497	 43.01172	 10.02837	 14.14173	 37.94097	 -1.34929	 66.92309	712.04999	 31.70	
 10.194	-28.474	 64.62827	 45.10842	  8.32473	 16.85976	 34.96619	 -1.24102	 66.91821	711.97998	 31.70	
 10.210	-18.966	 64.62208	 46.71114	  6.91604	 20.07335	 31.63185	 -1.11545	 66.94305	711.96997	 31.70	
 10.191	 -9.503	 64.56995	 47.57407	  6.19605	 23.49576	 27.95411	 -0.98124	 66.92844	711.98999	 31.80	
 10.200	  0.000	 64.48746	 47.78723	  5.96578	 26.96140	 24.18126	 -0.89111	 66.92664	711.94000	 31.80	
 10.191	  9.503	 64.39635	 47.34176	  6.17015	 30.87641	 20.41296	 -0.96023	 66.93099	711.96997	 31.80	
 10.210	 18.966	 64.27250	 46.32042	  6.93337	 34.49804	 17.05937	 -0.80668	 66.90859	711.96002	 31.90	
 10.194	 28.474	 64.19682	 44.56443	  8.32080	 37.83855	 13.98475	 -1.35249	 66.91360	712.03003	 31.90	
 10.190	 37.895	 64.08382	 42.24479	 10.05480	 40.82552	 11.21552	 -0.94702	 66.90273	711.98999	 31.90	
 10.215	 47.354	 63.93419	 39.43933	 12.14933	 43.44468	  8.76005	 -1.28169	 66.88417	711.97998	 31.90	
 10.203	 56.908	 63.86707	 36.27584	 14.76073	 45.87964	  6.79491	 -1.39774	 66.89554	711.96002	 31.90	
 10.192	 66.322	 63.76033	 33.00421	 17.64139	 47.66587	  5.29810	 -1.16736	 66.89560	712.03003	 31.90	
 10.208	 75.751	 63.65220	 29.39966	 20.80773	 48.88820	  4.22446	 -1.38135	 66.86900	711.85999	 32.00	
 10.210	 85.199	 63.61322	 25.71303	 24.23326	 49.48950	  3.78085	 -1.33914	 66.90155	712.09998	 32.00	
 10.210	 94.801	 63.52288	 22.14793	 27.83913	 49.41622	  3.68251	 -1.43055	 66.91919	712.02002	 32.00	
 10.208	104.249	 63.42616	 18.68770	 31.64818	 48.66236	  4.18368	 -1.50797	 66.86816	711.91998	 32.00	
 10.192	113.678	 63.43473	 15.34367	 35.23700	 47.38801	  5.26543	 -1.62259	 66.91830	711.98999	 32.00	
 10.203	123.092	 63.37039	 12.50879	 38.38751	 45.38557	  6.74970	 -1.96521	 66.85734	712.02002	 32.00	
 10.215	132.646	 63.38631	 10.02229	 41.45790	 43.01250	  8.74059	 -2.00485	 66.89230	711.97998	 32.00	
 10.190	142.105	 63.38076	  7.96395	 44.02281	 40.23427	 11.18063	 -1.92576	 66.87298	711.96997	 32.10	
 10.194	151.526	 63.36784	  6.12959	 46.26060	 37.18823	 13.85271	 -1.97703	 66.86488	711.88000	 32.10	
 10.210	161.034	 63.41557	  4.88955	 47.91873	 33.78722	 16.88864	 -2.10050	 66.88631	711.97998	 32.10	
 10.191	170.497	 63.47982	  4.25041	 48.85722	 30.00876	 20.29496	 -2.22529	 66.86292	711.92999	 32.10	
 11.899	171.783	 62.06627	  0.16639	 51.59022	 28.58628	 18.92273	 -2.93891	 66.87788	711.95001	 32.10	
 11.890	163.610	 62.00582	  0.76350	 50.71513	 32.58335	 15.59645	 -2.86971	 66.85544	712.00000	 32.10	
 11.889	155.445	 61.95613	  1.61848	 49.36685	 36.09518	 12.53249	 -2.72968	 66.87814	712.03003	 32.20	
 11.909	147.299	 61.89251	  2.96630	 47.45164	 39.37896	  9.80103	 -2.64772	 66.87053	712.00000	 32.20	
 11.902	139.148	 61.89217	  4.80879	 44.98378	 42.41415	  7.22591	 -2.67301	 66.85301	711.96002	 32.20	
 11.894	130.867	 61.89151	  7.33113	 42.23122	 45.01012	  4.94008	 -2.73803	 66.86152	711.97998	 32.20	
 11.897	122.732	 61.93120	  9.76588	 39.12815	 47.53766	  3.15268	 -2.60714	 66.86251	711.97998	 32.20	
 11.903	114.597	 61.91922	 12.50827	 35.89766	 49.47221	  1.65653	 -2.44500	 66.81858	712.01001	 32.20	
 11.893	106.346	 62.01947	 15.69153	 32.35801	 50.93157	  0.50489	 -2.33013	 66.87090	711.91998	 32.20	
 11.892	 98.155	 62.05412	 19.21827	 28.49407	 51.76363	 -0.07165	 -2.33028	 66.84834	712.03998	 32.30	
 11.900	 90.000	 62.10730	 22.73974	 24.91725	 52.10951	 -0.25829	 -2.33921	 66.85485	712.09998	 32.30	
 11.892	 81.845	 62.19588	 26.30633	 21.47499	 51.89043	  0.01102	 -2.45866	 66.83976	712.03998	 32.30	
 11.893	 73.654	 62.26460	 30.05200	 18.11723	 51.11334	  0.65652	 -2.37449	 66.84735	711.90002	 32.30	
 11.903	 65.403	 62.37423	 33.68144	 14.95937	 49.83043	  1.71805	 -2.19667	 66.87315	712.00000	 32.30	
 11.897	 57.268	 62.45957	 36.94540	 12.13270	 48.04204	  3.21948	 -2.04379	 66.85651	712.01001	 32.30	
 11.894	 49.133	 62.50759	 40.13612	  9.46961	 45.75066	  4.96442	 -2.02924	 66.82542	711.92999	 32.40	
 11.902	 40.852	 62.64185	 43.12320	  7.14282	 42.98547	  7.26720	 -2.04610	 66.83612	711.96002	 32.40	
 11.909	 32.701	 62.78841	 45.66398	  5.36359	 40.15613	  9.87728	 -2.03985	 66.86015	711.90997	 32.40	
 11.889	 24.555	 62.88553	 47.62490	  3.99180	 36.93831	 12.84685	 -1.95419	 66.82187	711.87000	 32.40	
 11.890	 16.390	 63.00582	 49.15176	  2.95076	 33.48810	 16.02111	 -1.79241	 66.86575	711.94000	 32.40	
 11.899	  8.217	 63.08042	 50.09331	  2.34472	 29.67365	 19.45461	 -1.84322	 66.84854	711.96997	 32.40	
 11.900	  0.000	 63.16471	 50.48887	  2.15952	 25.91688	 23.06417	 -1.67776	 66.83321	711.98999	 32.50	
 11.899	 -8.217	 63.24800	 50.35324	  2.26463	 22.42054	 26.83509	 -1.63360	 66.86383	711.94000	 32.50	
 11.890	-16.390	 63.31200	 49.57407	  2.90141	 18.97464	 30.63566	 -1.90389	 66.86208	711.96997	 32.50	
 11.889	-24.555	 63.36260	 48.28850	  4.02152	 15.81921	 34.18555	 -2.01101	 66.87711	711.98999	 32.50	
 11.909	-32.701	 63.35016	 46.46606	  5.48854	 12.93041	 37.08071	 -2.12982	 66.84604	712.09003	 32.50	
 11.902	-40.852	 63.38366	 44.14925	  7.28149	 10.40374	 40.33652	 -2.06806	 66.86491	711.98999	 32.50	
 11.894	-49.133	 63.35406	 41.33881	  9.48836	  8.20337	 43.17186	 -2.27374	 66.83080	711.89001	 32.50	
 11.897	-57.268	 63.38795	 38.25158	 12.06729	  6.26438	 45.54831	 -2.50706	 66.85107	712.06000	 32.50	
 11.903	-65.403	 63.38241	 35.04289	 14.96253	  4.77001	 47.47962	 -2.44912	 66.87774	712.04999	 32.60	
 11.893	-73.654	 63.32060	 31.56469	 18.18697	  3.63127	 49.01012	 -2.40211	 66.85703	712.09998	 32.60	
 11.892	-81.845	 63.28841	 27.83687	 21.59462	  2.90887	 49.84715	 -2.42904	 66.87089	712.10999	 32.60	
 11.900	-90.000	 63.18605	 24.11142	 25.04572	  2.56205	 50.07397	 -2.52687	 66.83425	712.02002	 32.60	
 11.892	-98.155	 63.12598	 20.70795	 28.78861	  2.77014	 49.87234	 -2.53328	 66.85471	712.09003	 32.60	
 11.893	-106.346	 63.02135	 17.05531	 32.57604	  3.34519	 48.94138	 -2.47452	 66.84974	712.00000	 32.60	
 11.903	-114.597	 62.90409	 13.75570	 36.13017	  4.28791	 47.31884	 -2.42135	 66.81786	711.98999	 32.60	
 11.897	-122.732	 62.78291	 10.78244	 39.30794	  5.65620	 45.34183	 -2.41921	 66.80988	711.98999	 32.60	
 11.894	-130.867	 62.63885	  8.16784	 42.36097	  7.43964	 42.95868	 -2.49639	 66.80519	712.03003	 32.70	
 11.902	-139.148	 62.50521	  5.67707	 45.06705	  9.72159	 40.02749	 -2.59721	 66.79258	711.94000	 32.70	
 11.909	-147.299	 62.42684	  3.61209	 47.54706	 12.36816	 36.73721	 -2.57051	 66.79948	711.90997	 32.70	
 11.889	-155.445	 62.33954	  2.18828	 49.38674	 15.25275	 33.74672	 -2.54893	 66.81938	711.96002	 32.70	
 11.890	-163.610	 62.23284	  1.13511	 50.73849	 18.30351	 30.24284	 -2.59711	 66.81371	711.96002	 32.70	
 11.899	-171.783	 62.13570	  0.37706	 51.56085	 21.55917	 26.55547	 -2.73120	 66.82082	711.90997	 32.70	
 11.900	180.000	 62.05575	  0.01506	 51.83025	 25.03666	 22.73499	 -2.89439	 66.81407	711.92999	 32.70	
 13.600	180.000	 60.37641	 -3.77351	 54.26048	 23.71549	 21.33868	 -3.36673	 66.81279	712.04999	 32.70	
 13.608	-172.853	 60.41541	 -3.53663	 54.05502	 20.35306	 25.08982	 -3.18509	 66.78748	712.07001	 32.70	
 13.611	-165.583	 60.51275	 -2.93632	 53.36924	 16.99586	 28.95875	 -3.01760	 66.81435	711.92999	 32.80	
 13.601	-158.353	 60.61774	 -1.93715	 52.14920	 13.87017	 32.53982	 -2.93029	 66.78361	712.06000	 32.80	
 13.609	-151.210	 60.76217	 -0.70902	 50.53001	 10.95280	 35.84983	 -2.92367	 66.80677	712.04999	 32.80	
 13.611	-143.999	 60.87324	  0.97551	 48.41442	  8.15589	 39.12216	 -2.92022	 66.84016	712.77002	 32.80	
 13.601	-136.825	 60.95427	  2.99768	 45.74174	  5.68962	 42.27822	 -2.89054	 66.80729	712.34003	 32.80	
 13.596	-129.640	 61.06056	  5.41562	 43.01947	  3.68508	 44.99231	 -2.79519	 66.79293	712.01001	 32.80	
 13.611	-122.431	 61.18370	  8.22370	 39.83541	  1.91613	 47.41411	 -2.71743	 66.78104	712.32001	 32.80	
 13.604	-115.211	 61.30782	 11.06127	 36.61745	  0.64269	 49.52298	 -2.71613	 66.77891	711.96997	 32.80	
 13.595	-108.042	 61.41162	 14.21579	 32.97963	 -0.34468	 50.98893	 -2.77197	 66.78860	712.73999	 32.80	
 13.607	-100.793	 61.48262	 17.60271	 29.08726	 -0.99959	 51.99426	 -2.82928	 66.78482	711.90997	 32.90	
 13.601	-93.617	 61.56709	 21.28272	 25.50870	 -1.35018	 52.58912	 -2.82490	 66.80029	712.00000	 32.90	
 13.601	-86.383	 61.67477	 24.75358	 22.01039	 -1.20861	 52.63404	 -2.80395	 66.78545	712.03998	 32.90	
 13.607	-79.207	 61.70476	 28.45020	 18.62255	 -0.85868	 52.13047	 -2.80639	 66.80054	711.90997	 32.90	
 13.595	-71.958	 61.74628	 32.15471	 15.26814	 -0.04612	 51.11153	 -2.84661	 66.76133	712.01001	 32.90	
 13.604	-64.789	 61.81209	 35.62109	 12.13753	  1.11841	 49.69084	 -2.90142	 66.79369	711.97998	 33.00	
 13.611	-57.569	 61.85672	 38.91491	  9.15090	  2.60100	 47.63933	 -2.96772	 66.80438	711.97998	 33.00	
 13.596	-50.360	 61.88229	 42.14774	  6.62090	  4.34995	 45.21471	 -2.97674	 66.80146	711.98999	 33.00	
 13.601	-43.175	 61.85228	 44.99275	  4.44372	  6.39160	 42.53792	 -2.70340	 66.79903	711.96997	 33.00	
 13.611	-36.001	 61.81696	 47.46159	  2.60365	  8.85925	 39.41737	 -2.65684	 66.75513	712.01001	 33.00	
 13.609	-28.790	 61.81293	 49.47352	  1.12749	 11.60597	 36.14031	 -2.57817	 66.75217	712.04999	 33.00	
 13.601	-21.647	 61.84391	 51.09201	 -0.15850	 14.55389	 33.02224	 -2.58011	 66.82098	712.07001	 33.00	
 13.611	-14.417	 61.75136	 52.24830	 -1.09950	 17.75209	 29.35501	 -2.56546	 66.79920	712.03003	 33.00	
 13.608	 -7.147	 61.67165	 52.92141	 -1.58067	 21.16977	 25.57029	 -2.54907	 66.76900	712.10999	 33.10	
 13.600	  0.000	 61.61743	 53.07671	 -1.77494	 24.63850	 21.77287	 -2.47747	 66.79044	712.09003	 33.10	
 13.608	  7.147	 61.50984	 52.72677	 -1.67996	 28.14396	 18.10955	 -2.49443	 66.78999	712.08002	 33.10	
 13.611	 14.417	 61.39037	 51.83939	 -1.18718	 32.14146	 14.82663	 -2.51061	 66.76556	712.15997	 33.10	
 13.601	 21.647	 61.31745	 50.46521	 -0.30794	 35.79276	 11.56033	 -2.55247	 66.78098	712.08002	 33.10	
 13.609	 28.790	 61.19496	 48.66734	  0.91383	 39.14256	  8.39022	 -2.62759	 66.75474	712.12000	 33.10	
 13.611	 36.001	 61.06889	 46.41391	  2.46543	 42.27880	  5.58436	 -2.64879	 66.77934	712.03998	 33.10	
 13.601	 43.175	 60.97186	 43.74004	  4.37467	 45.06745	  3.28474	 -2.63748	 66.80023	712.01001	 33.10	
 13.596	 50.360	 60.86246	 40.72029	  6.68524	 47.69854	  1.35021	 -2.64360	 66.75112	712.06000	 33.10	
 13.611	 57.569	 60.77180	 37.47837	  9.31478	 50.01262	 -0.56194	 -2.72336	 66.78591	712.00000	 33.20	
 13.604	 64.789	 60.66208	 34.12634	 12.15502	 51.78901	 -2.05326	 -2.87916	 66.76867	712.03003	 33.20	
 13.595	 71.958	 60.59455	 30.58785	 15.19729	 53.11436	 -3.08798	 -3.00021	 66.78266	712.03998	 33.20	
 13.607	 79.207	 60.50825	 26.81538	 18.53582	 54.02788	 -3.79130	 -3.04652	 66.77396	712.09998	 33.20	
 13.601	 86.383	 60.40731	 23.22262	 21.90996	 54.39993	 -4.17088	 -3.00498	 66.74732	712.03998	 33.20	
 13.601	 93.617	 60.30571	 19.62949	 25.34365	 54.35655	 -4.33107	 -2.94887	 66.75838	712.02002	 33.20	
 13.607	100.793	 60.24985	 16.06373	 28.81540	 53.81282	 -4.02207	 -2.89100	 66.76413	712.14001	 33.20	
 13.595	108.042	 60.19284	 12.74144	 32.75534	 52.81871	 -3.43702	 -2.96354	 66.75826	712.02002	 33.20	
 13.604	115.211	 60.16485	  9.80692	 36.33114	 51.37827	 -2.36088	 -3.04586	 66.75239	712.04999	 33.20	
 13.611	122.431	 60.12283	  7.02912	 39.60992	 49.41447	 -0.76669	 -3.18707	 66.74766	712.03003	 33.20	
 13.596	129.640	 60.08359	  4.36886	 42.77056	 46.91907	  1.15949	 -3.33756	 66.72668	711.95001	 33.20	
 13.601	136.825	 60.07189	  2.12386	 45.56743	 44.11584	  3.32475	 -3.36176	 66.72141	711.91998	 33.30	
 13.611	143.999	 60.03524	  0.23711	 48.15895	 41.33709	  5.78979	 -3.30113	 66.69827	711.95001	 33.30	
 13.609	151.210	 60.12708	 -1.23980	 50.38240	 38.16167	  8.55887	 -3.28260	 66.75784	711.91998	 33.30	
 13.601	158.353	 60.13122	 -2.37221	 51.99321	 34.72905	 11.48018	 -3.39361	 66.71848	712.02002	 33.30	
 13.611	165.583	 60.17065	 -3.23742	 53.21049	 30.91605	 14.60506	 -3.46934	 66.70641	712.01001	 33.30	
 13.608	172.853	 60.24223	 -3.70575	 53.93429	 27.14320	 17.89826	 -3.49459	 66.73913	712.07001	 33.30	
 15.298	173.587	 58.32853	 -7.49801	 56.26606	 25.63264	 16.48441	 -3.81368	 66.72469	711.96002	 33.30	
 15.291	167.167	 58.30554	 -7.19285	 55.59604	 29.17783	 13.17447	 -3.93749	 66.74887	712.01001	 33.30	
 15.307	160.676	 58.22351	 -6.52125	 54.44577	 33.00121	  9.94348	 -3.94801	 66.72662	711.95001	 33.30	
 15.300	154.261	 58.19510	 -5.54419	 53.00604	 36.64370	  6.92352	 -3.86765	 66.73549	712.00000	 33.40	
 15.288	147.854	 58.16073	 -4.20552	 51.09175	 40.01185	  4.09169	 -3.82782	 66.72897	711.94000	 33.40	
 15.293	141.428	 58.16966	 -2.60921	 48.76844	 43.09671	  1.77832	 -3.90974	 66.72696	711.97998	 33.40	
 15.299	134.985	 58.18510	 -0.75870	 46.01210	 45.84358	 -0.62980	 -4.00952	 66.71640	711.96002	 33.40	
 15.305	128.583	 58.19218	  1.41603	 43.10869	 48.71738	 -2.79000	 -3.95578	 66.75407	711.97998	 33.40	
 15.309	122.142	 58.20248	  3.95829	 39.96020	 51.13128	 -4.68528	 -3.85193	 66.75378	712.13000	 33.40	
 15.304	115.711	 58.19915	  6.83619	 36.56874	 53.03402	 -6.03298	 -3.70038	 66.72786	711.92999	 33.40	
 15.297	109.291	 58.26031	  9.88440	 32.98710	 54.53216	 -7.06319	 -3.58696	 66.73317	711.92999	 33.40	
 15.293	102.897	 58.29305	 12.92940	 29.04636	 55.66721	 -7.57112	 -3.52048	 66.71663	712.00000	 33.50	
 15.293	 96.458	 58.36903	 16.36884	 25.64268	 56.41141	 -8.03597	 -3.55258	 66.70853	711.90997	 33.50	
 15.300	 90.000	 58.42023	 19.95984	 22.09741	 56.68645	 -8.23742	 -3.61370	 66.69251	712.01001	 33.50	
 15.293	 83.542	 58.54715	 23.55108	 18.80722	 56.55228	 -7.75704	 -3.66635	 66.71217	711.96002	 33.50	
 15.293	 77.103	 58.61987	 27.05730	 15.45119	 55.98208	 -7.33952	 -3.66641	 66.73335	711.96002	 33.50	
 15.297	 70.709	 58.69526	 30.72841	 12.25987	 54.93533	 -6.55371	 -3.62471	 66.72405	711.96997	 33.50	
 15.304	 64.289	 58.74808	 34.29130	  9.23101	 53.50515	 -5.62351	 -3.53259	 66.70996	711.98999	 33.50	
 15.309	 57.858	 58.86846	 37.68016	  6.46526	 51.74117	 -4.34386	 -3.46748	 66.70495	711.90997	 33.50	
 15.305	 51.417	 58.97923	 40.99976	  3.92893	 49.54039	 -2.75791	 -3.38106	 66.72906	712.01001	 33.60	
 15.299	 45.015	 59.08546	 44.08757	  1.62765	 46.91570	 -0.78058	 -3.32595	 66.71439	711.95001	 33.60	
 15.293	 38.572	 59.17898	 46.88026	 -0.39883	 43.93937	  1.60918	 -3.24805	 66.72307	711.84003	 33.60	
 15.288	 32.146	 59.32291	 49.34629	 -2.07753	 41.10756	  4.23043	 -3.21450	 66.74670	711.88000	 33.60	
 15.300	 25.739	 59.42960	 51.39317	 -3.47672	 37.84084	  7.09394	 -3.21782	 66.73135	711.90997	 33.60	
 15.307	 19.324	 59.50225	 53.02810	 -4.53891	 34.30784	 10.19867	 -3.19048	 66.69078	711.94000	 33.60	
 15.291	 12.833	 59.60165	 54.25077	 -5.23110	 30.49780	 13.51715	 -3.13411	 66.71741	711.96002	 33.60	
 15.298	  6.413	 59.69096	 55.01604	 -5.70657	 26.75585	 16.90070	 -3.10176	 66.68047	711.95001	 33.60	
 15.300	  0.000	 59.75719	 55.34888	 -5.73012	 23.18578	 20.27234	 -3.04648	 66.67455	712.03998	 33.60	
 15.298	 -6.413	 59.88498	 55.25366	 -5.51339	 19.86184	 23.89758	 -2.96213	 66.70638	712.02002	 33.60	
 15.291	-12.833	 59.92126	 54.64655	 -5.13580	 16.46675	 27.67125	 -2.92287	 66.68604	711.96997	 33.70	
 15.307	-19.324	 59.98123	 53.66879	 -4.41777	 13.20553	 31.47796	 -2.93209	 66.69892	711.92999	 33.70	
 15.300	-25.739	 60.00154	 52.19547	 -3.27664	 10.17491	 34.81166	 -2.93741	 66.66653	711.85999	 33.70	
 15.288	-32.146	 60.01881	 50.34195	 -1.88201	  7.36570	 38.04712	 -2.93377	 66.66712	711.96002	 33.70	
 15.293	-38.572	 60.03971	 48.11616	 -0.28124	  4.74517	 41.52575	 -3.08992	 66.67237	711.98999	 33.70	
 15.299	-45.015	 60.06918	 45.57051	  1.62181	  2.54401	 44.47904	 -3.14940	 66.69305	712.04999	 33.70	
 15.305	-51.417	 60.04047	 42.58881	  3.82989	  0.54904	 47.11260	 -3.05123	 66.67184	711.96997	 33.70	
 15.309	-57.858	 60.00283	 39.33590	  6.34577	 -1.16835	 49.57046	 -3.07120	 66.68286	712.01001	 33.70	
 15.304	-64.289	 59.96645	 35.94718	  9.17540	 -2.30622	 51.45664	 -3.06614	 66.65342	711.96002	 33.70	
 15.297	-70.709	 59.88914	 32.48981	 12.23545	 -3.33884	 53.06526	 -3.01207	 66.65579	712.01001	 33.70	
 15.293	-77.103	 59.84840	 28.85490	 15.48079	 -4.28792	 54.16997	 -2.96966	 66.65220	711.96997	 33.70	
 15.293	-83.542	 59.83657	 25.12748	 18.91949	 -4.56442	 54.81237	 -2.91191	 66.66985	712.01001	 33.80	
 15.300	-90.000	 59.74522	 21.70121	 22.28741	 -4.49675	 55.01326	 -2.85615	 66.65705	712.07001	 33.80	
 15.293	-96.458	 59.67793	 18.04324	 25.74600	 -4.44211	 54.77639	 -2.82395	 66.67202	711.98999	 33.80	
 15.293	-102.897	 59.57978	 14.56266	 29.34195	 -3.97981	 54.07903	 -2.77784	 66.67243	712.00000	 33.80	
 15.297	-109.291	 59.50951	 11.30372	 33.11662	 -3.34983	 52.96653	 -2.75724	 66.71032	711.92999	 33.80	
 15.304	-115.711	 59.37238	  8.35241	 36.73375	 -2.42738	 51.27083	 -2.74307	 66.67068	711.89001	 33.80	
 15.309	-122.142	 59.27813	  5.41704	 40.02202	 -1.12205	 49.37492	 -2.77888	 66.69285	711.88000	 33.80	
 15.305	-128.583	 59.16787	  2.71392	 43.25908	  0.14924	 46.83545	 -2.83795	 66.67662	711.94000	 33.80	
 15.299	-134.985	 59.05128	  0.34726	 46.06371	  1.93282	 44.17016	 -2.90091	 66.66740	712.03003	 33.80	
 15.293	-141.428	 58.90615	 -1.71987	 48.81307	  4.10143	 41.12550	 -2.97037	 66.63757	711.95001	 33.80	
 15.288	-147.854	 58.83345	 -3.47425	 51.14391	  6.60002	 37.67613	 -2.98637	 66.65536	711.87000	 33.80	
 15.300	-154.261	 58.73595	 -4.91172	 53.02980	  9.49709	 34.45865	 -3.02893	 66.65608	711.83002	 33.90	
 15.307	-160.676	 58.57417	 -6.07140	 54.46052	 12.52499	 30.97292	 -3.05742	 66.64954	712.03998	 33.90	
 15.291	-167.167	 58.48927	 -6.84580	 55.57882	 15.63853	 27.28442	 -3.16496	 66.64115	712.01001	 33.90	
 15.298	-173.587	 58.40816	 -7.40197	 56.26913	 18.97650	 23.45007	 -3.33049	 66.65236	711.91998	 33.90	
 15.300	180.000	 58.34547	 -7.50257	 56.43529	 22.31161	 19.67937	 -3.52353	 66.66802	711.90002	 33.90	
 17.000	180.000	 56.23392	-11.33959	 58.52537	 20.72917	 18.21422	 -3.56872	 66.65784	711.91998	 34.00	
 16.990	-174.179	 56.28986	-11.28988	 58.40364	 17.44531	 21.61573	 -3.31309	 66.66450	711.89001	 34.00	
 17.009	-168.383	 56.36341	-10.87461	 57.80374	 14.05011	 25.53278	 -3.16417	 66.66293	711.90997	 34.00	
 17.000	-162.596	 56.45839	 -9.98542	 56.78324	 11.24820	 29.22828	 -3.03561	 66.66271	712.06000	 34.00	
 16.990	-156.759	 56.54953	 -8.98220	 55.29629	  7.88703	 32.83767	 -2.95981	 66.60509	711.98999	 34.00	
 16.995	-150.919	 56.70603	 -7.79402	 53.67316	  4.96293	 36.33860	 -2.91568	 66.66016	711.92999	 34.00	
 16.988	-145.161	 56.79743	 -6.26060	 51.63719	  2.49764	 39.61577	 -2.87322	 66.64011	711.97998	 34.00	
 17.014	-139.343	 56.82290	 -4.53279	 49.12759	  0.76181	 42.88632	 -2.82017	 66.59008	711.91998	 34.00	
 17.007	-133.546	 56.97625	 -2.41474	 46.29352	 -1.25716	 45.88766	 -2.76152	 66.61526	711.96002	 34.00	
 17.001	-127.699	 57.08112	 -0.02855	 43.28827	 -3.04751	 48.68251	 -2.73063	 66.61608	712.03003	 34.00	
 17.006	-121.937	 57.20462	  2.39555	 40.15618	 -4.65027	 50.91005	 -2.65735	 66.63917	712.03003	 34.00	
 17.002	-116.134	 57.32843	  5.35448	 36.83363	 -5.95528	 52.98864	 -2.63642	 66.65005	712.01001	 34.00	
 17.001	-110.310	 57.44410	  8.53469	 33.15844	 -6.95331	 54.66000	 -2.63457	 66.63496	711.97998	 34.00	
 16.988	-104.517	 57.50901	 11.59030	 29.49207	 -7.62429	 55.82928	 -2.61100	 66.61539	711.96002	 34.00	
 17.008	-98.662	 57.56406	 14.88993	 25.85117	 -8.23075	 56.66523	 -2.64388	 66.62229	712.00000	 34.00	
 16.996	-92.909	 57.64730	 18.38144	 22.41768	 -8.25790	 57.05430	 -2.67824	 66.62498	711.96002	 34.00	
 16.996	-87.091	 57.73552	 21.87019	 19.13848	 -8.21129	 57.07919	 -2.78618	 66.60695	711.96997	 34.10	
 17.012	-81.253	 57.75485	 25.34580	 15.68865	 -8.12447	 56.73347	 -2.88118	 66.61521	711.87000	 34.10	
 16.988	-75.483	 57.84937	 29.02443	 12.37699	 -7.50805	 55.95647	 -2.92355	 66.61797	711.95001	 34.10	
 17.001	-69.690	 57.89992	 32.66673	  9.26584	 -6.58591	 54.79295	 -2.96219	 66.59837	712.01001	 34.10	
 17.002	-63.866	 57.93909	 36.18058	  6.30523	 -5.47767	 53.16708	 -3.02642	 66.59582	711.97998	 34.10	
 17.006	-58.063	 57.94474	 39.51152	  3.52321	 -4.14541	 51.14334	 -3.02717	 66.59082	712.02002	 34.10	
 17.001	-52.301	 57.97321	 42.74635	  1.09060	 -2.59159	 48.89223	 -3.02969	 66.56882	711.92999	 34.10	
 17.007	-46.454	 57.95570	 45.77887	 -1.15876	 -0.87730	 46.21504	 -3.01231	 66.54684	711.96997	 34.10	
 17.014	-40.657	 57.94645	 48.56708	 -3.23104	  0.84096	 43.24718	 -3.02562	 66.55943	712.01001	 34.20	
 16.988	-34.839	 57.98137	 50.91464	 -4.86266	  3.21346	 39.98935	 -3.04593	 66.56049	712.08002	 34.20	
 16.995	-29.081	 57.96339	 52.95193	 -6.28028	  5.79269	 36.46102	 -3.09340	 66.54819	712.03998	 34.20	
 16.990	-23.241	 57.95372	 54.64617	 -7.51096	  8.78891	 33.20045	 -3.12992	 66.56805	712.01001	 34.20	
 17.000	-17.404	 57.94128	 55.96567	 -8.52323	 11.98530	 29.57163	 -3.10888	 66.60453	711.97998	 34.20	
 17.009	-11.617	 57.82770	 56.83165	 -9.17494	 14.96940	 25.88312	 -3.17018	 66.55844	712.09998	 34.20	
 16.990	 -5.821	 57.81131	 57.31231	 -9.42941	 18.30989	 22.15681	 -3.26161	 66.56883	711.96997	 34.20	
 17.000	  0.000	 57.70905	 57.44795	 -9.73804	 21.52858	 18.71418	 -3.53578	 66.58583	712.00000	 34.30	
 16.990	  5.821	 57.62907	 57.14299	 -9.72170	 25.04910	 15.24326	 -3.59898	 66.59270	712.03998	 34.30	
 17.009	 11.617	 57.50641	 56.40636	 -9.29794	 28.67602	 11.77503	 -3.60824	 66.56212	711.90997	 34.30	
 17.000	 17.404	 57.44565	 55.29479	 -8.55120	 32.47287	  8.57091	 -3.68422	 66.58080	711.98999	 34.30	
 16.990	 23.241	 57.34391	 53.78471	 -7.65502	 36.19914	  5.39587	 -3.73040	 66.60114	712.03998	 34.30	
 16.995	 29.081	 57.24489	 51.87437	 -6.47801	 39.65805	  2.38868	 -3.78529	 66.61336	712.03003	 34.30	
 16.988	 34.839	 57.13581	 49.67050	 -4.96444	 42.76183	 -0.25250	 -3.83168	 66.60992	712.07001	 34.30	
 17.014	 40.657	 56.96513	 47.10831	 -3.31185	 45.58609	 -2.75401	 -3.91613	 66.59332	711.97998	 34.30	
 17.007	 46.454	 56.85268	 44.13773	 -1.25886	 48.51017	 -4.94797	 -3.99353	 66.56942	711.98999	 34.30	
 17.001	 52.301	 56.77505	 40.97126	  1.13266	 51.04683	 -6.74458	 -4.07880	 66.57419	711.90997	 34.30	
 17.006	 58.063	 56.68841	 37.70626	  3.59246	 53.13054	 -8.23343	 -4.11252	 66.57455	711.90002	 34.30	
 17.002	 63.866	 56.65041	 34.31671	  6.30131	 54.97240	 -9.50204	 -4.11140	 66.60889	712.06000	 34.40	
 17.001	 69.690	 56.54491	 30.68541	  9.14005	 56.48922	-10.53447	 -4.17463	 66.58131	711.96002	 34.40	
 16.988	 75.483	 56.45372	 26.99540	 12.25480	 57.63397	-11.47702	 -4.26867	 66.60332	712.03003	 34.40	
 17.012	 81.253	 56.29932	 23.50493	 15.48329	 58.32759	-12.09848	 -4.30505	 66.54221	712.03998	 34.40	
 16.996	 87.091	 56.23650	 20.03926	 18.66534	 58.64392	-12.57341	 -4.19846	 66.57800	712.15002	 34.40	
 16.996	 92.909	 56.13485	 16.46342	 22.11076	 58.58311	-12.63238	 -4.15572	 66.55558	712.08002	 34.40	
 17.008	 98.662	 56.07743	 13.07546	 25.64971	 58.10859	-12.22768	 -4.12880	 66.53920	711.96997	 34.40	
 16.988	104.517	 56.05488	  9.90365	 29.30934	 57.19864	-11.56693	 -4.09167	 66.53577	712.09003	 34.40	
 17.001	110.310	 56.01655	  6.71643	 33.00829	 55.93337	-10.73892	 -4.12521	 66.55460	712.08002	 34.40	
 17.002	116.134	 55.95433	  3.68448	 36.62217	 54.25306	 -9.56230	 -4.26164	 66.52954	712.00000	 34.40	
 17.006	121.937	 55.95237	  0.94651	 39.97327	 52.42263	 -8.23234	 -4.47145	 66.55451	712.04999	 34.40	
 17.001	127.699	 55.95472	 -1.31498	 43.10204	 50.14181	 -6.62441	 -4.50051	 66.55494	712.01001	 34.40	
 17.007	133.546	 55.94042	 -3.46254	 46.11196	 47.39631	 -4.78311	 -4.42427	 66.55012	712.09998	 34.40	
 17.014	139.343	 55.89938	 -5.48998	 48.95061	 44.50537	 -2.62226	 -4.40451	 66.54199	712.09003	 34.40	
 16.988	145.161	 55.91291	 -7.13826	 51.40299	 41.53625	 -0.10140	 -4.32993	 66.56085	712.03003	 34.40	
 16.995	150.919	 55.88512	 -8.55621	 53.39391	 38.30878	  2.44575	 -4.27741	 66.53772	712.03003	 34.40	
 16.990	156.759	 55.90618	 -9.68277	 55.09954	 34.68484	  5.42338	 -4.25625	 66.51224	712.03003	 34.40	
 17.000	162.596	 55.97704	-10.60751	 56.57637	 30.88106	  8.53617	 -4.21891	 66.53918	712.07001	 34.50	
 17.009	168.383	 55.97015	-11.14409	 57.58716	 27.33619	 11.67367	 -4.13719	 66.50774	712.07001	 34.50	
 16.990	174.179	 56.04134	-11.36777	 58.14531	 23.86816	 15.02847	 -3.95863	 66.47411	712.01001	 34.50	
 18.709	174.675	 53.62346	-15.55041	 60.09340	 21.83052	 13.42638	 -3.85806	 66.48759	712.02002	 34.50	
 18.703	169.441	 53.59274	-15.20434	 59.52304	 25.38649	 10.11119	 -4.04959	 66.48951	711.94000	 34.50	
 18.691	164.085	 53.61642	-14.61793	 58.59042	 28.99053	  6.90095	 -4.21412	 66.52118	712.02002	 34.50	
 18.706	158.818	 53.50456	-13.82236	 57.26986	 32.40918	  3.80553	 -4.36376	 66.46297	712.10999	 34.50	
 18.695	153.537	 53.51649	-12.81984	 55.61890	 36.27482	  0.86681	 -4.45625	 66.49250	711.97998	 34.50	
 18.704	148.255	 53.50552	-11.52297	 53.73176	 39.72625	 -1.86241	 -4.51279	 66.48445	712.01001	 34.50	
 18.698	142.952	 53.49136	-10.02375	 51.52324	 42.87536	 -4.38893	 -4.57284	 66.43864	711.96997	 34.60	
 18.699	137.625	 53.49408	 -8.19045	 48.98164	 45.65498	 -6.59020	 -4.71803	 66.46379	711.97998	 34.60	
 18.705	132.343	 53.49212	 -6.17806	 45.98568	 48.71190	 -8.57163	 -4.74795	 66.45763	711.94000	 34.60	
 18.713	127.067	 53.54703	 -4.06667	 43.08943	 51.36719	-10.15734	 -4.74134	 66.49360	711.95001	 34.60	
 18.700	121.794	 53.54898	 -1.75066	 39.87840	 53.55069	-11.63811	 -4.70671	 66.44136	712.00000	 34.60	
 18.698	116.504	 53.56913	  0.71744	 36.50604	 55.49763	-13.12289	 -4.63237	 66.44795	712.00000	 34.60	
 18.707	111.165	 53.61126	  3.45779	 32.79157	 57.26673	-14.19980	 -4.51947	 66.47545	711.96997	 34.60	
 18.690	105.863	 53.67296	  6.61771	 29.15230	 58.63573	-14.69717	 -4.45955	 66.47861	712.00000	 34.60	
 18.696	100.583	 53.71468	  9.87491	 25.59323	 59.61006	-15.28156	 -4.49742	 66.48550	711.89001	 34.60	
 18.700	 95.309	 53.71526	 13.14256	 21.98018	 60.17689	-15.65895	 -4.51968	 66.44533	711.90997	 34.60	
 18.700	 90.000	 53.79603	 16.52291	 18.43226	 60.41623	-15.55564	 -4.60950	 66.46725	711.94000	 34.60	
 18.700	 84.691	 53.87949	 19.81628	 15.30242	 60.27757	-15.13408	 -4.74656	 66.43060	711.95001	 34.60	
 18.696	 79.417	 53.96993	 23.22472	 12.23095	 59.82763	-14.80209	 -4.86469	 66.44608	711.96997	 34.60	
 18.690	 74.137	 54.08378	 26.73723	  9.09208	 58.99236	-14.17941	 -4.76019	 66.44237	711.87000	 34.60	
 18.707	 68.835	 54.16586	 30.42865	  6.12643	 57.82010	-13.37973	 -4.63969	 66.44238	711.83002	 34.60	
 18.698	 63.496	 54.27780	 34.12724	  3.29431	 56.22460	-12.29950	 -4.58849	 66.42087	711.94000	 34.70	
 18.700	 58.206	 54.37764	 37.61553	  0.69156	 54.34546	-11.05230	 -4.58097	 66.46558	711.91998	 34.70	
 18.713	 52.933	 54.43937	 40.85806	 -1.78381	 52.29401	 -9.64365	 -4.56362	 66.44032	711.94000	 34.70	
 18.705	 47.657	 54.56441	 44.05353	 -4.00692	 49.83762	 -7.99592	 -4.49562	 66.43398	711.96997	 34.70	
 18.699	 42.375	 54.64613	 47.03600	 -6.09673	 46.98328	 -6.10608	 -4.36859	 66.43284	711.96002	 34.70	
 18.698	 37.048	 54.77002	 49.71441	 -7.84622	 44.05022	 -3.97397	 -4.28430	 66.40377	711.89001	 34.70	
 18.704	 31.745	 54.88090	 52.10577	 -9.29306	 41.00795	 -1.85229	 -4.22884	 66.41000	712.01001	 34.70	
 18.695	 26.463	 54.98339	 54.19214	-10.58169	 37.77816	  0.93480	 -4.18327	 66.43492	711.98999	 34.70	
 18.706	 21.182	 55.10937	 55.96846	-11.57803	 34.20292	  3.92290	 -4.12282	 66.47533	711.84998	 34.70	
 18.691	 15.915	 55.18953	 57.27669	-12.27317	 30.38939	  7.06913	 -4.07437	 66.44810	711.90002	 34.70	
 18.703	 10.559	 55.19422	 58.38855	-12.99304	 26.81150	 10.22997	 -3.96673	 66.42142	712.02002	 34.80	
 18.709	  5.325	 55.28666	 59.04791	-13.65301	 23.22468	 13.56717	 -3.88350	 66.39426	711.92999	 34.80	
 18.700	  0.000	 55.41566	 59.33170	-13.70362	 19.81443	 17.01371	 -3.70422	 66.43993	711.96997	 34.80	
 18.709	 -5.325	 55.46522	 59.22414	-13.43893	 16.67680	 20.09969	 -3.31933	 66.40424	712.00000	 34.80	
 18.703	-10.559	 55.57137	 58.79985	-13.06024	 13.46813	 23.73032	 -3.11586	 66.43456	711.84003	 34.80	
 18.691	-15.915	 55.70729	 58.02691	-12.46477	 10.47686	 27.57070	 -3.04860	 66.47505	711.85999	 34.80	
 18.706	-21.182	 55.70252	 56.83226	-11.64601	  7.39838	 31.24199	 -3.02025	 66.44129	711.89001	 34.80	
 18.695	-26.463	 55.71392	 55.24607	-10.51903	  4.54186	 34.78481	 -2.99217	 66.40421	711.90997	 34.80	
 18.704	-31.745	 55.72491	 53.37711	 -9.23163	  2.01120	 37.94387	 -2.92635	 66.42108	711.94000	 34.80	
 18.698	-37.048	 55.74735	 51.20808	 -7.72662	 -0.32114	 41.47923	 -2.86399	 66.43844	711.82001	 34.90	
 18.699	-42.375	 55.74709	 48.71442	 -5.83060	 -2.50766	 44.69527	 -2.83303	 66.43922	711.89001	 34.90	
 18.705	-47.657	 55.70730	 45.88593	 -3.76748	 -4.53364	 47.53219	 -2.80688	 66.41689	711.84998	 34.90	
 18.713	-52.933	 55.66531	 42.79353	 -1.53374	 -6.27412	 50.07678	 -2.78482	 66.37984	711.88000	 34.90	
 18.700	-58.206	 55.72039	 39.58150	  0.71538	 -7.71590	 52.45267	 -2.79433	 66.43369	711.90002	 34.90	
 18.698	-63.496	 55.64468	 36.21408	  3.34973	 -9.11993	 54.50434	 -2.76784	 66.41532	711.94000	 34.90	
 18.707	-68.835	 55.60505	 32.61107	  6.26399	-10.27172	 56.14722	 -2.73990	 66.42244	711.83002	 34.90	
 18.690	-74.137	 55.57085	 28.93580	  9.31301	-11.14506	 57.43357	 -2.70322	 66.42517	711.89001	 34.90	
 18.696	-79.417	 55.48243	 25.26703	 12.44037	-11.83107	 58.28788	 -2.67661	 66.40649	711.96997	 34.90	
 18.700	-84.691	 55.41790	 21.70971	 15.81754	-12.19170	 58.87177	 -2.59989	 66.42243	711.91998	 34.90	
 18.700	-90.000	 55.34455	 18.36635	 19.03004	-12.13592	 58.99187	 -2.45843	 66.39929	711.81000	 34.90	
 18.700	-95.309	 55.23669	 15.11613	 22.17703	-12.41359	 58.78016	 -2.31440	 66.39623	711.79999	 34.90	
 18.696	-100.583	 55.21563	 11.79130	 25.79448	-12.11043	 58.20491	 -2.34259	 66.44125	711.96002	 34.90	
 18.690	-105.863	 55.13085	  8.61909	 29.33517	-11.44111	 57.22258	 -2.34064	 66.38800	711.89001	 34.90	
 18.707	-111.165	 54.99699	  5.34732	 32.90475	-10.63324	 55.93126	 -2.35025	 66.35663	711.98999	 34.90	
 18.698	-116.504	 54.94352	  2.35200	 36.63816	 -9.47606	 54.26187	 -2.36547	 66.38409	712.03003	 35.00	
 18.700	-121.794	 54.82539	 -0.35342	 40.03356	 -8.20874	 52.21544	 -2.41382	 66.38233	711.95001	 35.00	
 18.713	-127.067	 54.69818	 -2.83154	 43.19783	 -6.73590	 49.82490	 -2.42914	 66.39298	712.03003	 35.00	
 18.705	-132.343	 54.57124	 -5.10358	 46.14516	 -5.05390	 47.28988	 -2.48282	 66.38190	711.90997	 35.00	
 18.699	-137.625	 54.46647	 -7.17236	 49.07738	 -3.06399	 44.35757	 -2.48224	 66.38361	711.88000	 35.00	
 18.698	-142.952	 54.40740	 -8.98824	 51.63134	 -0.89462	 41.15996	 -2.53672	 66.39143	711.98999	 35.00	
 18.704	-148.255	 54.29499	-10.69752	 53.83742	  1.44581	 37.65151	 -2.58897	 66.38450	711.95001	 35.00	
 18.695	-153.537	 54.14451	-12.05412	 55.68646	  3.96078	 34.46071	 -2.65992	 66.38302	711.95001	 35.00	
 18.706	-158.818	 54.03193	-13.15227	 57.35407	  6.30480	 30.91248	 -2.76875	 66.40150	711.88000	 35.00	
 18.691	-164.085	 53.91924	-14.00639	 58.59968	  9.29917	 27.24715	 -2.86787	 66.38759	711.84998	 35.00	
 18.703	-169.441	 53.78252	-14.74375	 59.52819	 12.71187	 23.40510	 -2.96862	 66.36370	711.87000	 35.00	
 18.709	-174.675	 53.70184	-15.19023	 60.04652	 15.63354	 19.66635	 -3.13941	 66.36415	711.79999	 35.00	
 18.700	180.000	 53.61336	-15.34182	 60.14394	 18.82832	 16.37149	 -3.39163	 66.35366	711.83002	 35.00	
 20.400	180.000	 51.28531	-19.13662	 61.79928	 16.97147	 14.47364	 -3.14857	 66.37749	711.96997	 35.10	
 20.401	-175.153	 51.31501	-18.99722	 61.68900	 14.19014	 17.73526	 -2.97372	 66.36783	711.79999	 35.10	
 20.407	-170.264	 51.38950	-18.62169	 61.22615	 10.81432	 21.30842	 -2.82975	 66.36520	711.91998	 35.10	
 20.410	-165.423	 51.51336	-18.01826	 60.40796	  7.64732	 25.05105	 -2.72799	 66.38827	711.82001	 35.10	
 20.392	-160.496	 51.64366	-17.22324	 59.23414	  4.85228	 28.92288	 -2.59680	 66.37673	711.92999	 35.10	
 20.401	-155.705	 51.71445	-16.25374	 57.75898	  2.29303	 32.49177	 -2.51287	 66.35489	711.92999	 35.10	
 20.405	-150.835	 51.81717	-15.00291	 55.93325	 -0.21396	 35.91612	 -2.43853	 66.32433	711.84998	 35.10	
 20.397	-145.903	 51.99308	-13.38433	 53.91074	 -2.64309	 39.15857	 -2.37590	 66.35310	711.83002	 35.20	
 20.392	-141.062	 52.09787	-11.76540	 51.58059	 -4.84757	 42.65413	 -2.34790	 66.36299	711.75000	 35.20	
 20.396	-136.227	 52.19040	 -9.87454	 48.94409	 -6.87351	 45.71857	 -2.30424	 66.35444	711.77002	 35.20	
 20.408	-131.372	 52.28288	 -7.84514	 45.87056	 -8.74885	 48.47645	 -2.26334	 66.34251	711.77002	 35.20	
 20.410	-126.511	 52.40463	 -5.66517	 43.02051	-10.47101	 51.02249	 -2.21931	 66.35840	711.84998	 35.20	
 20.400	-121.604	 52.52823	 -3.14587	 39.78854	-11.96860	 53.50877	 -2.23681	 66.38639	711.76001	 35.20	
 20.403	-116.741	 52.55499	 -0.57440	 36.32875	-13.34756	 55.55646	 -2.16675	 66.36845	711.72998	 35.20	
 20.413	-111.900	 52.53399	  2.16027	 32.54335	-14.49586	 57.21585	 -2.11728	 66.34872	711.71997	 35.20	
 20.398	-107.004	 52.62920	  5.22623	 29.12718	-15.40467	 58.59707	 -2.12331	 66.35710	711.77002	 35.20	
 20.394	-102.132	 52.70341	  8.51304	 25.56532	-16.18003	 59.61438	 -2.18924	 66.37453	711.90997	 35.20	
 20.403	-97.332	 52.74331	 11.84103	 21.96515	-16.53346	 60.30000	 -2.15474	 66.35963	711.82001	 35.20	
 20.392	-92.440	 52.82149	 15.12688	 18.46417	-16.39925	 60.61230	 -2.17099	 66.31518	711.85999	 35.30	
 20.392	-87.560	 52.91835	 17.99099	 15.70324	-16.17746	 60.64529	 -2.40628	 66.33588	711.89001	 35.30	
 20.403	-82.668	 52.96644	 21.48562	 12.44880	-16.12193	 60.36724	 -2.42128	 66.34205	711.90997	 35.30	
 20.394	-77.868	 53.00191	 25.13265	  9.16779	-15.75335	 59.70222	 -2.43439	 66.32233	711.90997	 35.20	
 20.398	-72.996	 53.07067	 28.76290	  6.12623	-14.99269	 58.73751	 -2.49327	 66.33909	711.90002	 35.30	
 20.413	-68.100	 53.05352	 32.44875	  3.15461	-14.06811	 57.36283	 -2.55963	 66.30985	711.91998	 35.30	
 20.403	-63.259	 53.09507	 35.98351	  0.42864	-12.94306	 55.69975	 -2.54404	 66.29262	711.84003	 35.30	
 20.400	-58.396	 53.18618	 39.34526	 -1.88483	-11.60603	 53.71849	 -2.55664	 66.32085	711.84003	 35.30	
 20.410	-53.489	 53.23803	 42.64454	 -4.22040	-10.03469	 51.37165	 -2.62359	 66.32720	711.84998	 35.30	
 20.408	-48.628	 53.25235	 45.80781	 -6.42574	 -8.28368	 48.73038	 -2.60841	 66.31538	711.77002	 35.30	
 20.396	-43.773	 53.23425	 48.59448	 -8.38126	 -6.39866	 45.97975	 -2.61491	 66.28121	711.84003	 35.30	
 20.392	-38.938	 53.29350	 51.18251	-10.16093	 -4.26741	 42.94087	 -2.66548	 66.32504	711.89001	 35.30	
 20.397	-34.097	 53.29528	 53.52520	-11.88623	 -1.99182	 39.47026	 -2.75963	 66.32602	711.85999	 35.30	
 20.405	-29.165	 53.23441	 55.61354	-13.43802	  0.42876	 36.10529	 -2.81177	 66.31985	711.89001	 35.30	
 20.401	-24.295	 53.23645	 57.35151	-14.62829	  3.00778	 32.73848	 -2.86264	 66.35447	711.90002	 35.30	
 20.392	-19.504	 53.22901	 58.74045	-15.55261	  5.79763	 29.16498	 -2.88953	 66.33531	711.82001	 35.30	
 20.410	-14.577	 53.17164	 59.86665	-16.28157	  8.84364	 25.37310	 -2.93979	 66.35486	711.83002	 35.30	
 20.407	 -9.736	 53.12225	 60.57753	-16.75081	 12.06790	 21.52552	 -3.01105	 66.35632	711.76001	 35.30	
 20.401	 -4.847	 53.01209	 60.92110	-17.15627	 15.01903	 18.08249	 -3.15153	 66.31887	711.77002	 35.30	
 20.400	  0.000	 52.95026	 61.02094	-17.25087	 18.12973	 14.84934	 -3.52177	 66.34389	711.88000	 35.30	
 20.401	  4.847	 52.82900	 60.75422	-17.06774	 21.23671	 11.74459	 -3.92779	 66.32952	711.89001	 35.30	
 20.407	  9.736	 52.78464	 60.08865	-16.70016	 24.78669	  8.34280	 -4.02520	 66.29668	711.87000	 35.40	
 20.410	 14.577	 52.81736	 59.13423	-16.12959	 28.31771	  5.15191	 -4.06595	 66.32936	711.88000	 35.40	
 20.392	 19.504	 52.63267	 57.84354	-15.29853	 31.92015	  2.05740	 -4.23813	 66.31673	711.84003	 35.40	
 20.401	 24.295	 52.59092	 56.27548	-14.33548	 35.64119	 -0.83935	 -4.32595	 66.34941	711.77002	 35.30	
 20.405	 29.165	 52.57770	 54.32394	-13.13513	 39.04425	 -3.45934	 -4.44316	 66.31388	711.84998	 35.30	
 20.397	 34.097	 52.51506	 52.03179	-11.73394	 42.32190	 -5.90406	 -4.53601	 66.32597	711.88000	 35.40	
 20.392	 38.938	 52.39417	 49.54832	-10.21853	 45.23323	 -8.23549	 -4.63319	 66.33475	711.95001	 35.30	
 20.396	 43.773	 52.25017	 46.80930	 -8.54006	 48.20964	-10.07117	 -4.69157	 66.32710	711.84998	 35.30	
 20.408	 48.628	 52.09259	 43.75435	 -6.60965	 50.86329	-11.81761	 -4.78261	 66.28606	711.92999	 35.40	
 20.410	 53.489	 51.99569	 40.51806	 -4.45471	 53.28007	-13.43183	 -4.87334	 66.30389	711.85999	 35.40	
 20.400	 58.396	 51.88019	 37.21072	 -2.18952	 55.39284	-14.83646	 -4.94775	 66.29919	711.90002	 35.40	
 20.403	 63.259	 51.80098	 33.74382	  0.25302	 57.34457	-16.05289	 -4.94997	 66.32140	711.89001	 35.40	
 20.413	 68.100	 51.65546	 30.06608	  2.95780	 58.90837	-17.12328	 -5.04024	 66.29340	711.90997	 35.40	
 20.398	 72.996	 51.56604	 26.38285	  5.88171	 60.11192	-17.89136	 -5.10322	 66.25845	711.97998	 35.40	
 20.394	 77.868	 51.49552	 22.81707	  8.93409	 61.04823	-18.49446	 -5.22885	 66.28551	711.96002	 35.40	
 20.403	 82.668	 51.37484	 19.19640	 12.09910	 61.60132	-18.92072	 -5.32175	 66.27287	711.87000	 35.40	
 20.392	 87.560	 51.32701	 16.39066	 14.62223	 61.82016	-19.31659	 -4.93837	 66.27686	711.79999	 35.50	
 20.392	 92.440	 51.22961	 13.02955	 18.08993	 61.74108	-19.43003	 -4.85104	 66.25575	711.83002	 35.50	
 20.403	 97.332	 51.17717	  9.61959	 21.71291	 61.40954	-19.22368	 -4.79072	 66.29602	711.82001	 35.50	
 20.394	102.132	 51.16320	  6.38232	 25.25848	 60.69115	-18.70113	 -4.71250	 66.29318	711.91998	 35.50	
 20.398	107.004	 51.11709	  3.37084	 28.77748	 59.64898	-18.09529	 -4.67453	 66.28395	711.97998	 35.50	
 20.413	111.900	 51.03481	  0.52695	 32.26540	 58.24925	-17.32385	 -4.70016	 66.27711	711.85999	 35.50	
 20.403	116.741	 51.00097	 -2.17627	 35.99181	 56.51637	-16.29514	 -4.75169	 66.25878	711.89001	 35.50	
 20.400	121.604	 51.02712	 -4.61240	 39.43040	 54.51772	-14.91544	 -4.85541	 66.25766	711.91998	 35.50	
 20.410	126.511	 50.85414	 -6.95559	 42.66909	 52.27639	-13.39729	 -4.85531	 66.27131	711.81000	 35.50	
 20.408	131.372	 50.84617	 -9.00929	 45.63251	 49.68948	-11.64247	 -4.77058	 66.24591	711.84003	 35.50	
 20.396	136.227	 50.89857	-10.90617	 48.53078	 46.83659	 -9.90649	 -4.66166	 66.22511	711.92999	 35.60	
 20.392	141.062	 50.97876	-12.78290	 51.25572	 43.99119	 -7.97888	 -4.55706	 66.25897	711.88000	 35.60	
 20.397	145.903	 50.97983	-14.39353	 53.61292	 40.89281	 -5.87852	 -4.51287	 66.26112	711.96002	 35.60	
 20.405	150.835	 50.98092	-15.67249	 55.78690	 37.47424	 -3.53242	 -4.36359	 66.26301	711.89001	 35.60	
 20.401	155.705	 50.94165	-16.80154	 57.52383	 33.87605	 -0.81354	 -4.24319	 66.20632	711.81000	 35.60	
 20.392	160.496	 51.00319	-17.69453	 58.98326	 30.36567	  2.12411	 -4.03802	 66.25282	711.88000	 35.60	
 20.410	165.423	 50.98689	-18.47325	 60.17605	 26.78337	  5.19915	 -3.85305	 66.24186	711.87000	 35.60	
 20.407	170.264	 50.98804	-19.02872	 60.98758	 23.27365	  8.33887	 -3.69737	 66.20390	711.85999	 35.60	
 20.401	175.153	 51.07669	-19.27363	 61.49147	 19.67163	 11.75422	 -3.53798	 66.19881	711.83002	 35.60	
  0.141	 45.000	 66.40961	 27.64931	 29.04994	 30.10545	 26.83885	  0.75583	 66.22314	711.84003	 35.60	
  4.001	128.691	 66.01838	 21.39785	 34.15674	 36.01381	 19.79249	  0.22482	 66.23393	711.98999	 35.60	
  4.002	 76.995	 66.06100	 28.68789	 26.71599	 37.81063	 18.11812	  0.60551	 66.23196	711.71997	 35.60	
  4.002	 25.892	 66.21026	 34.70261	 21.04368	 33.25077	 22.83950	  0.84117	 66.24043	711.79999	 35.60	
  4.002	-25.892	 66.29388	 34.89433	 21.03091	 25.41384	 30.43541	  0.69753	 66.24486	711.88000	 35.60	
  4.002	-76.995	 66.25642	 29.10248	 26.67120	 20.94968	 34.75442	  0.35684	 66.22521	711.90002	 35.60	
  4.001	-128.691	 66.17303	 21.73159	 34.06043	 22.44849	 33.23006	  0.05370	 66.22364	711.97998	 35.70	
  4.000	180.000	 66.02440	 18.56054	 37.33743	 29.20561	 26.45245	 -0.01106	 66.21141	712.03003	 35.70	
  8.000	180.000	 64.43452	  9.28282	 44.93075	 27.21862	 24.99478	 -1.31901	 66.24289	712.00000	 35.70	
  7.991	-152.370	 64.58032	 11.24367	 42.73030	 19.72455	 33.01115	 -0.96081	 66.19407	711.82001	 35.70	
  7.997	-124.550	 64.86230	 16.44656	 37.17228	 14.20489	 39.34102	 -1.07541	 66.24191	711.96002	 35.70	
  8.006	-96.837	 65.02911	 23.88889	 29.26585	 11.74202	 42.64857	 -1.03031	 66.21394	711.95001	 35.70	
  7.988	-69.228	 65.13377	 32.07341	 21.17778	 12.63322	 41.62035	 -0.73376	 66.18726	711.81000	 35.70	
  7.997	-41.563	 65.18096	 39.02713	 14.91219	 16.90010	 36.56559	 -0.44143	 66.20500	711.78998	 35.70	
  8.008	-13.821	 65.11556	 43.05974	 11.51874	 23.84513	 29.28740	 -0.15625	 66.22231	711.78998	 35.70	
  8.008	 13.821	 64.91412	 42.83240	 11.44862	 32.21971	 20.89261	  0.04814	 66.18550	711.79999	 35.70	
  7.997	 41.563	 64.75336	 38.41341	 14.89601	 39.36929	 14.07250	 -0.12792	 66.20525	711.84003	 35.70	
  7.988	 69.228	 64.53256	 31.30629	 21.09711	 44.14074	  9.82944	 -0.25297	 66.19855	711.78003	 35.70	
  8.006	 96.837	 64.37930	 23.02988	 29.16444	 45.12730	  8.89588	 -0.51891	 66.22200	711.78003	 35.70	
  7.997	124.550	 64.31801	 15.74564	 36.96826	 41.83581	 11.57294	 -0.86094	 66.22201	711.81000	 35.70	
  7.991	152.370	 64.31557	 10.92305	 42.62521	 35.69260	 17.18296	 -1.06551	 66.20612	711.83002	 35.70	
 12.009	161.059	 61.28673	  0.85715	 49.97949	 33.42467	 14.36645	 -2.73468	 66.20106	711.84998	 35.70	
 12.013	142.081	 61.23092	  4.00087	 45.59523	 41.02282	  7.93568	 -2.58111	 66.22752	711.84003	 35.70	
 12.006	123.113	 61.27876	  9.42365	 38.95585	 47.13168	  3.08495	 -2.52600	 66.24197	711.83002	 35.70	
 12.007	104.200	 61.31721	 16.41463	 31.02131	 50.84839	  0.01306	 -2.18489	 66.18081	711.81000	 35.80	
 11.989	 85.301	 61.53372	 24.53966	 22.61061	 51.68022	 -0.28313	 -2.33901	 66.23933	711.81000	 35.80	
 12.013	 66.294	 61.68801	 33.03656	 15.02513	 49.65508	  1.38042	 -2.13100	 66.21890	711.79999	 35.80	
 12.012	 47.388	 61.88213	 40.57087	  8.70546	 44.88073	  5.08151	 -1.90154	 66.19923	711.78998	 35.80	
 11.990	 28.440	 62.16175	 46.47735	  4.37880	 38.13976	 11.06140	 -1.90063	 66.17789	711.81000	 35.80	
 11.991	  9.464	 62.40403	 49.67860	  2.21264	 30.01803	 18.48988	 -1.74574	 66.20003	711.88000	 35.80	
 11.991	 -9.464	 62.56597	 49.93276	  2.17199	 21.57506	 27.13470	 -1.67727	 66.18154	711.89001	 35.80	
 11.990	-28.440	 62.68536	 47.18819	  4.44462	 14.18018	 35.23262	 -1.93867	 66.22710	711.75000	 35.80	
 12.012	-47.388	 62.64766	 41.67983	  8.71352	  8.36561	 42.32464	 -2.10565	 66.17847	711.78003	 35.80	
 12.013	-66.294	 62.62765	 34.39011	 14.94881	  4.40590	 47.34599	 -2.36220	 66.18563	711.85999	 35.90	
 11.989	-85.301	 62.54091	 26.00235	 22.70953	  2.56843	 49.65546	 -2.36936	 66.19776	711.77002	 35.90	
 12.007	-104.200	 62.31159	 17.78817	 31.22463	  2.93838	 48.92217	 -2.40384	 66.16551	711.85999	 35.90	
 12.006	-123.113	 62.08430	 10.46114	 39.07461	  5.51661	 44.96878	 -2.32942	 66.15671	711.96997	 35.90	
 12.013	-142.081	 61.81778	  4.69655	 45.65006	 10.67359	 38.70120	 -2.48763	 66.19534	711.84003	 35.90	
 12.009	-161.059	 61.58243	  1.23293	 50.00357	 17.03473	 31.10823	 -2.48399	 66.14733	711.85999	 35.90	
 16.000	180.000	 57.05939	 -8.99836	 56.88095	 21.53818	 18.92343	 -3.45988	 66.13599	711.84003	 35.90	
 15.990	-165.604	 57.22356	 -8.16170	 55.74424	 13.82434	 27.68554	 -3.04768	 66.11861	711.90997	 35.90	
 16.002	-151.165	 57.54258	 -5.62656	 52.41662	  6.80156	 35.88835	 -2.89445	 66.15200	711.84003	 35.90	
 16.002	-136.836	 57.81293	 -1.55377	 47.00352	  1.28070	 43.40652	 -2.81546	 66.16558	711.88000	 36.00	
 15.995	-122.439	 58.00774	  4.03811	 39.97371	 -2.42647	 49.49579	 -2.63321	 66.14500	711.82001	 36.00	
 15.993	-107.966	 58.28249	 10.99062	 31.82239	 -4.91167	 53.65007	 -2.61333	 66.15660	711.78998	 36.00	
 16.005	-93.629	 58.45361	 18.85661	 23.46302	 -5.91227	 55.39840	 -2.67491	 66.14330	711.73999	 36.00	
 15.992	-79.234	 58.58942	 27.07158	 15.61864	 -5.61987	 54.88067	 -2.86016	 66.13144	711.90997	 36.00	
 16.009	-64.774	 58.68707	 35.42889	  8.21658	 -3.50000	 52.01156	 -2.97189	 66.12349	711.84003	 36.00	
 15.997	-50.364	 58.81495	 43.13319	  2.16828	 -0.55547	 46.95395	 -2.91568	 66.16969	711.84003	 36.00	
 15.997	-36.045	 58.78767	 49.32479	 -2.42354	  4.46357	 40.15907	 -2.92293	 66.16357	711.94000	 36.00	
 16.000	-21.597	 58.70501	 53.57437	 -5.60536	 11.21292	 32.13595	 -2.91791	 66.10914	711.82001	 36.00	
 16.003	 -7.169	 58.57701	 55.66519	 -7.10400	 18.53271	 23.62459	 -2.96042	 66.11111	711.73999	 36.00	
 16.003	  7.169	 58.34637	 55.41535	 -7.28876	 26.40847	 15.40816	 -3.21493	 66.09180	711.77002	 36.00	
 16.000	 21.597	 58.10529	 52.79423	 -5.68309	 35.14627	  7.76508	 -3.28077	 66.06745	711.81000	 36.00	
 15.997	 36.045	 57.87568	 48.04485	 -2.46716	 42.79702	  1.14455	 -3.36309	 66.09203	711.76001	 36.00	
 15.997	 50.364	 57.63148	 41.42805	  2.21584	 49.22449	 -3.88748	 -3.52578	 66.09204	711.84998	 36.00	
 16.009	 64.774	 57.41074	 33.68158	  8.27132	 53.87033	 -7.44379	 -3.65337	 66.11759	711.73999	 36.10	
 15.992	 79.234	 57.25624	 25.23464	 15.53426	 56.57154	 -9.39848	 -3.81539	 66.11757	711.85999	 36.10	
 16.005	 93.629	 57.02545	 17.09719	 23.24874	 57.00112	-10.08074	 -3.73578	 66.10895	711.91998	 36.10	
 15.993	107.966	 56.93864	  9.49735	 31.73577	 55.10850	 -8.77549	 -3.68043	 66.12982	711.84003	 36.10	
 15.995	122.439	 56.82919	  2.63524	 39.86404	 51.15813	 -6.04918	 -3.98262	 66.14081	711.83002	 36.10	
 16.002	136.836	 56.81322	 -2.58429	 46.84678	 44.95574	 -1.40790	 -4.09983	 66.10283	711.77002	 36.10	
 16.002	151.165	 56.75658	 -6.35170	 52.22755	 37.97050	  4.36856	 -3.93008	 66.06411	711.76001	 36.10	
 15.990	165.604	 56.92144	 -8.53851	 55.64100	 29.45848	 11.44781	 -3.93603	 66.10802	711.84003	 36.10	
 20.003	168.362	 51.47823	-17.86462	 60.18114	 24.96789	  7.66625	 -3.79622	 66.03417	711.77002	 36.10	
 20.008	156.764	 51.44232	-16.12077	 57.38887	 33.22340	  0.53838	 -4.22290	 66.07461	711.66998	 36.10	
 20.000	145.147	 51.47060	-13.20710	 52.88501	 41.33676	 -5.63581	 -4.40455	 66.07052	711.73999	 36.10	
 19.995	133.545	 51.43154	 -9.00553	 46.73421	 48.20401	-10.04880	 -4.69928	 66.03718	711.72998	 36.10	
 20.009	121.926	 51.46762	 -4.05379	 39.57252	 54.02790	-13.95652	 -4.78169	 66.07516	711.72998	 36.10	
 20.005	110.327	 51.53149	  2.05910	 31.23421	 58.23460	-16.59455	 -4.61435	 66.06236	711.77002	 36.10	
 19.989	 98.733	 51.64889	  9.25497	 23.10025	 60.68084	-18.05459	 -4.67941	 66.09885	711.72998	 36.10	
 19.999	 87.075	 51.75214	 17.12225	 14.77403	 61.27145	-18.15688	 -4.82310	 66.06551	711.70001	 36.10	
 19.992	 75.457	 51.95103	 24.83360	  7.97598	 60.10500	-17.03153	 -5.04328	 66.06477	711.70001	 36.10	
 20.009	 63.844	 52.16656	 33.31810	  1.27718	 57.07345	-15.03985	 -4.80958	 66.06171	711.70001	 36.10	
 19.989	 52.269	 52.46521	 41.14985	 -4.28489	 52.32719	-11.89030	 -4.76808	 66.05376	711.77002	 36.10	
 19.999	 40.602	 52.71690	 48.30505	 -8.97586	 46.03109	 -7.65934	 -4.52332	 66.08889	711.88000	 36.10	
 20.004	 29.051	 52.81929	 53.89749	-12.36513	 38.95390	 -2.60336	 -4.33356	 66.07776	711.90997	 36.10	
 20.005	 17.433	 53.00700	 57.81879	-14.73353	 30.59537	  4.09812	 -4.14660	 66.07998	711.81000	 36.20	
 20.006	  5.780	 53.22415	 60.04324	-16.08154	 22.27489	 11.64460	 -3.91642	 66.08106	711.78003	 36.20	
 20.006	 -5.780	 53.41930	 60.26435	-16.21961	 14.86719	 19.04549	 -3.13297	 66.07848	711.81000	 36.20	
 20.005	-17.433	 53.62595	 58.66886	-14.94154	  7.68873	 27.72464	 -2.90427	 66.10336	711.90997	 36.20	
 20.004	-29.051	 53.67357	 55.13607	-12.50580	  1.20627	 35.98343	 -2.78049	 66.07938	711.87000	 36.20	
 19.999	-40.602	 53.65488	 49.94686	 -8.76194	 -4.19463	 43.74030	 -2.64682	 66.03137	711.87000	 36.20	
 19.989	-52.269	 53.67300	 43.23147	 -3.93730	 -8.61560	 50.28297	 -2.57224	 66.05680	711.73999	 36.20	
 20.009	-63.844	 53.52497	 35.54253	  1.41223	-12.03143	 55.40820	 -2.55720	 66.04740	711.84003	 36.20	
 19.992	-75.457	 53.44838	 27.08386	  8.21636	-14.25799	 58.65723	 -2.43708	 66.06966	711.79999	 36.20	
 19.999	-87.075	 53.27456	 18.63677	 15.84494	-15.08510	 59.96721	 -2.35982	 66.02172	711.82001	 36.20	
 19.989	-98.733	 53.07207	 11.33335	 23.26821	-15.24555	 59.44984	 -2.13734	 66.02522	711.73999	 36.20	
 20.005	-110.327	 52.90991	  3.75794	 31.39392	-13.55246	 57.03616	 -2.13386	 66.01269	711.76001	 36.30	
 20.009	-121.926	 52.70373	 -2.58667	 39.85038	-10.85813	 52.82764	 -2.19614	 66.04192	711.72998	 36.30	
 19.995	-133.545	 52.44466	 -7.92906	 46.93081	 -7.08794	 46.93307	 -2.29853	 66.03349	711.84998	 36.30	
 20.000	-145.147	 52.33984	-12.19916	 53.07712	 -2.20311	 39.62095	 -2.34802	 66.02959	711.83002	 36.30	
 20.008	-156.764	 52.02715	-15.50879	 57.48139	  3.44456	 31.73135	 -2.54740	 66.01868	711.77002	 36.30	
 20.003	-168.362	 51.78326	-17.39423	 60.25299	 10.10223	 23.05026	 -2.82674	 66.01894	711.89001	 36.30	
 20.000	180.000	 51.63749	-18.10460	 61.11986	 17.31577	 14.96889	 -3.19745	 66.02660	711.85999	 36.30	
