FileType=PCF
NHL=14
Date=03/19/19	13:35:48
Facility=APL
Serial=16071-6
Customer=NASA
NP=6
Mach=0.230000
Calibration=1:1
CalPts=490
TstPts=95
PortNumbering=AP Standard
Units=Torr C m/s kg/m^3 deg mm 
Theta[deg]	Phi[deg]	P1[Torr]	P2[Torr]	P3[Torr]	P4[Torr]	P5[Torr]	P6[Torr]	Pt[Torr]	Ps[Abs,Torr]	Ts[C]	
  0.000	  0.000	 25.50832	 11.10444	 11.23672	 10.91318	 10.84785	  0.63309	 25.51939	714.69000	 32.30	
  1.691	128.401	 25.49764	 10.25617	 12.01778	 11.96092	  9.77173	  0.61920	 25.52668	714.71002	 32.30	
  1.692	 77.194	 25.50636	 11.38441	 10.86863	 12.21148	  9.54380	  0.65736	 25.53111	714.76001	 32.20	
  1.699	 26.182	 25.50199	 12.32527	  9.98403	 11.47214	 10.23027	  0.66997	 25.51161	714.64001	 32.20	
  1.699	-26.182	 25.49900	 12.29383	  9.99797	 10.29989	 11.39993	  0.64716	 25.50739	714.71002	 32.20	
  1.692	-77.194	 25.50022	 11.34029	 10.94274	  9.63688	 12.11349	  0.60467	 25.52142	714.65997	 32.20	
  1.691	-128.401	 25.48783	 10.21134	 12.08329	  9.88059	 11.83489	  0.57375	 25.52440	714.66998	 32.20	
  1.700	180.000	 25.47442	  9.70387	 12.58504	 10.90115	 10.79097	  0.58251	 25.50429	714.62000	 32.10	
  3.400	180.000	 25.40453	  8.29541	 13.92208	 10.82224	 10.65217	  0.47248	 25.51239	714.56000	 32.10	
  3.388	-152.325	 25.40368	  8.58016	 13.62029	  9.61503	 11.90159	  0.46693	 25.51286	714.53998	 32.10	
  3.397	-124.529	 25.40376	  9.38453	 12.71946	  8.64272	 12.92451	  0.47420	 25.49640	714.63000	 32.10	
  3.399	-96.763	 25.42843	 10.58218	 11.48838	  8.21592	 13.42909	  0.50254	 25.51066	714.54999	 32.10	
  3.394	-69.283	 25.44383	 11.88895	 10.20848	  8.38230	 13.29018	  0.53419	 25.50085	714.69000	 32.10	
  3.400	-41.398	 25.45062	 13.01693	  9.12628	  9.01572	 12.54574	  0.58239	 25.49516	714.66998	 32.00	
  3.401	-14.021	 25.46205	 13.67063	  8.52451	 10.09939	 11.40027	  0.62901	 25.50719	714.60999	 32.00	
  3.401	 14.021	 25.46119	 13.70214	  8.50226	 11.40556	 10.10612	  0.65129	 25.48906	714.53003	 32.00	
  3.400	 41.398	 25.46349	 13.08687	  9.06645	 12.58253	  8.99148	  0.65018	 25.48936	714.52002	 32.00	
  3.394	 69.283	 25.46127	 11.97210	 10.09568	 13.38624	  8.27308	  0.63151	 25.50290	714.63000	 32.00	
  3.399	 96.763	 25.43124	 10.66407	 11.33122	 13.57386	  8.09983	  0.59901	 25.49550	714.51001	 31.90	
  3.397	124.529	 25.41443	  9.46008	 12.58638	 13.10942	  8.49010	  0.54847	 25.48311	714.65002	 31.90	
  3.388	152.325	 25.40534	  8.61526	 13.54052	 12.09873	  9.39565	  0.50201	 25.49538	714.64001	 31.90	
  5.099	161.165	 25.25539	  7.07231	 14.90185	 12.03212	  9.12875	  0.35908	 25.49301	714.59003	 31.90	
  5.109	142.013	 25.25891	  7.69329	 14.16849	 13.24746	  8.00397	  0.33367	 25.47835	714.59003	 31.80	
  5.095	123.033	 25.29599	  8.64317	 13.08777	 14.21212	  7.20867	  0.43556	 25.50588	714.65002	 31.80	
  5.105	104.191	 25.31810	  9.83450	 11.80310	 14.77524	  6.76036	  0.47906	 25.49643	714.59003	 31.80	
  5.093	 85.207	 25.33482	 11.17781	 10.48817	 14.86783	  6.66676	  0.51725	 25.48234	714.60999	 31.80	
  5.104	 66.290	 25.35176	 12.51342	  9.24756	 14.48752	  6.99669	  0.52287	 25.48534	714.53998	 31.80	
  5.094	 47.331	 25.36511	 13.69374	  8.18268	 13.66673	  7.67945	  0.56414	 25.48409	714.51001	 31.70	
  5.089	 28.397	 25.36884	 14.56030	  7.44054	 12.50443	  8.70082	  0.57802	 25.49059	714.41998	 31.70	
  5.096	  9.576	 25.37010	 15.01086	  7.05371	 11.22305	  9.94673	  0.58444	 25.50102	714.53003	 31.70	
  5.096	 -9.576	 25.37651	 14.99230	  7.05442	  9.88127	 11.27666	  0.55307	 25.50321	714.60999	 31.70	
  5.089	-28.397	 25.36243	 14.49591	  7.49425	  8.68492	 12.54425	  0.50500	 25.49076	714.62000	 31.70	
  5.094	-47.331	 25.33930	 13.60073	  8.27188	  7.71157	 13.65011	  0.44197	 25.48193	714.62000	 31.70	
  5.104	-66.290	 25.33233	 12.39588	  9.35489	  7.01936	 14.42931	  0.41135	 25.50591	714.58002	 31.60	
  5.093	-85.207	 25.30737	 11.06093	 10.64293	  6.76712	 14.73920	  0.34947	 25.49363	714.56000	 31.60	
  5.105	-104.191	 25.27316	  9.70030	 12.00538	  6.82237	 14.59803	  0.33331	 25.48194	714.54999	 31.60	
  5.095	-123.033	 25.24355	  8.53551	 13.27367	  7.32880	 13.97258	  0.29901	 25.48580	714.62000	 31.60	
  5.109	-142.013	 25.22522	  7.58876	 14.32728	  8.21335	 12.94624	  0.31465	 25.46274	714.66998	 31.60	
  5.099	-161.165	 25.24748	  7.03191	 14.97204	  9.40381	 11.68214	  0.26658	 25.49342	714.60999	 31.50	
  5.100	180.000	 25.23377	  6.87299	 15.15183	 10.70484	 10.39336	  0.31261	 25.47269	714.59003	 31.50	
  6.800	180.000	 25.00875	  5.38604	 16.39639	 10.47364	 10.08741	  0.07353	 25.48794	714.65997	 31.50	
  6.796	-166.229	 24.99259	  5.50074	 16.25796	  9.19910	 11.33675	  0.11770	 25.47300	714.73999	 31.50	
  6.808	-152.311	 25.00326	  5.88921	 15.79905	  7.97497	 12.64113	  0.04488	 25.49672	714.65997	 31.50	
  6.795	-138.383	 25.00923	  6.57987	 15.00122	  6.92646	 13.83721	  0.04209	 25.48278	714.71002	 31.50	
  6.792	-124.591	 25.00868	  7.45973	 13.96064	  6.12179	 14.80924	  0.04093	 25.47039	714.59003	 31.50	
  6.787	-110.754	 25.03719	  8.53998	 12.76241	  5.58862	 15.50977	  0.12899	 25.48963	714.64001	 31.40	
  6.800	-96.985	 25.06689	  9.78134	 11.44597	  5.32851	 15.87825	  0.07574	 25.49852	714.73999	 31.40	
  6.800	-83.015	 25.08735	 11.10747	 10.10375	  5.32829	 15.93311	  0.10780	 25.49091	714.54999	 31.40	
  6.787	-69.246	 25.11266	 12.41554	  8.87348	  5.58629	 15.62095	  0.18771	 25.49105	714.64001	 31.40	
  6.792	-55.409	 25.14584	 13.67160	  7.74603	  6.07989	 15.01175	  0.22383	 25.48941	714.65997	 31.40	
  6.795	-41.617	 25.15026	 14.71430	  6.83829	  6.80992	 14.09114	  0.25096	 25.47501	714.71997	 31.40	
  6.808	-27.689	 25.17447	 15.57519	  6.13043	  7.81465	 12.93264	  0.28807	 25.48713	714.60999	 31.30	
  6.796	-13.771	 25.17695	 16.09159	  5.71826	  9.02714	 11.66793	  0.38934	 25.46223	714.62000	 31.30	
  6.800	  0.000	 25.17674	 16.27058	  5.60014	 10.28403	 10.40645	  0.37387	 25.47181	714.66998	 31.30	
  6.796	 13.771	 25.18442	 16.12002	  5.70364	 11.60008	  9.09446	  0.36832	 25.47602	714.69000	 31.30	
  6.808	 27.689	 25.18139	 15.67438	  6.03927	 12.91393	  7.90018	  0.44667	 25.48393	714.67999	 31.30	
  6.795	 41.617	 25.16655	 14.85182	  6.69510	 14.07642	  6.88932	  0.37474	 25.46828	714.51001	 31.20	
  6.792	 55.409	 25.17257	 13.82327	  7.58245	 15.03988	  6.10559	  0.39740	 25.48154	714.59003	 31.20	
  6.787	 69.246	 25.15780	 12.58674	  8.66749	 15.73044	  5.53100	  0.32167	 25.47074	714.66998	 31.20	
  6.800	 83.015	 25.13396	 11.27203	  9.87675	 16.11238	  5.21396	  0.28733	 25.47996	714.57001	 31.20	
  6.800	 96.985	 25.11713	  9.93752	 11.17198	 16.14736	  5.17618	  0.23098	 25.47287	714.58002	 31.20	
  6.787	110.754	 25.09509	  8.71725	 12.46297	 15.81831	  5.41332	  0.24747	 25.46892	714.60999	 31.20	
  6.792	124.591	 25.06776	  7.58260	 13.70629	 15.15709	  5.85955	  0.15757	 25.47303	714.63000	 31.10	
  6.795	138.383	 25.05797	  6.67657	 14.78464	 14.22844	  6.63049	  0.12224	 25.47638	714.59003	 31.10	
  6.808	152.311	 25.04514	  5.95772	 15.64475	 13.08892	  7.60528	  0.09920	 25.49056	714.59998	 31.10	
  6.796	166.229	 25.02947	  5.55745	 16.17546	 11.79116	  8.79238	  0.07318	 25.47730	714.69000	 31.10	
  8.491	168.704	 24.69045	  4.00402	 17.38726	 11.54574	  8.39153	 -0.16662	 25.47748	714.56000	 31.10	
  8.502	157.493	 24.69741	  4.30061	 16.93069	 12.86594	  7.16669	 -0.13643	 25.47198	714.56000	 31.10	
  8.494	146.194	 24.73173	  4.89111	 16.19952	 14.11921	  6.10373	 -0.11779	 25.47831	714.50000	 31.10	
  8.495	135.039	 24.73393	  5.66960	 15.23250	 15.22123	  5.18062	 -0.09236	 25.46985	714.50000	 31.10	
  8.487	123.723	 24.78137	  6.65322	 14.09816	 16.17718	  4.44420	 -0.07344	 25.47769	714.54999	 31.00	
  8.492	112.575	 24.80691	  7.75719	 12.85763	 16.85088	  3.99225	 -0.04276	 25.47690	714.53003	 31.00	
  8.510	101.220	 24.81735	  9.00990	 11.48615	 17.28403	  3.68645	 -0.04345	 25.47174	714.46997	 31.00	
  8.500	 90.000	 24.85483	 10.34159	 10.15016	 17.40819	  3.62170	 -0.02267	 25.49831	714.56000	 31.00	
  8.510	 78.780	 24.85704	 11.68197	  8.85911	 17.23724	  3.73973	  0.00502	 25.47422	714.56000	 31.00	
  8.492	 67.425	 24.88249	 13.03799	  7.63691	 16.76857	  4.13678	  0.03839	 25.48033	714.62000	 31.00	
  8.487	 56.277	 24.88764	 14.24808	  6.58613	 16.02835	  4.70483	  0.07987	 25.46701	714.52002	 31.00	
  8.495	 44.961	 24.89352	 15.36331	  5.64936	 15.07669	  5.47587	  0.09280	 25.47983	714.46002	 30.90	
  8.494	 33.806	 24.89542	 16.25392	  4.93430	 13.92757	  6.42249	  0.14031	 25.46973	714.53003	 30.90	
  8.502	 22.507	 24.90068	 16.94954	  4.41793	 12.66608	  7.49301	  0.18159	 25.48622	714.60999	 30.90	
  8.491	 11.296	 24.89875	 17.33978	  4.14051	 11.32143	  8.73357	  0.16396	 25.47276	714.48999	 30.90	
  8.500	  0.000	 24.89325	 17.46535	  4.04256	  9.95242	 10.06620	  0.13148	 25.46407	714.54999	 30.90	
  8.491	-11.296	 24.91398	 17.30912	  4.17464	  8.67060	 11.38547	  0.10989	 25.48345	714.53998	 30.90	
  8.502	-22.507	 24.89162	 16.83822	  4.52166	  7.41596	 12.69515	  0.06836	 25.47700	714.56000	 30.90	
  8.494	-33.806	 24.87226	 16.11341	  5.09687	  6.28779	 13.93963	  0.01757	 25.46681	714.48999	 30.90	
  8.495	-44.961	 24.85510	 15.17317	  5.85742	  5.37505	 15.02777	 -0.02629	 25.46928	714.53003	 30.80	
  8.487	-56.277	 24.83612	 14.03551	  6.82725	  4.68404	 15.93819	 -0.05983	 25.47461	714.50000	 30.80	
  8.492	-67.425	 24.80533	 12.76149	  7.92644	  4.21135	 16.60550	 -0.10905	 25.47076	714.53998	 30.80	
  8.510	-78.780	 24.77684	 11.40082	  9.19058	  3.83807	 17.02950	 -0.14400	 25.47763	714.53003	 30.80	
  8.500	-90.000	 24.75678	 10.06186	 10.49922	  3.76581	 17.12570	 -0.17579	 25.48111	714.47998	 30.80	
  8.510	-101.220	 24.71629	  8.76376	 11.84598	  3.86895	 16.92822	 -0.19729	 25.47030	714.57001	 30.80	
  8.492	-112.575	 24.71184	  7.54876	 13.20432	  4.19687	 16.46671	 -0.21019	 25.48961	714.67999	 30.80	
  8.487	-123.723	 24.67375	  6.47202	 14.41262	  4.73552	 15.70170	 -0.20940	 25.45745	714.63000	 30.80	
  8.495	-135.039	 24.67338	  5.54242	 15.52916	  5.50364	 14.72229	 -0.20812	 25.47146	714.57001	 30.70	
  8.494	-146.194	 24.65337	  4.80516	 16.40623	  6.43854	 13.59823	 -0.20546	 25.47254	714.60999	 30.70	
  8.502	-157.493	 24.67202	  4.24524	 17.08681	  7.59223	 12.30745	 -0.19614	 25.47955	714.51001	 30.70	
  8.491	-168.704	 24.68482	  3.91769	 17.48141	  8.87279	 10.95905	 -0.19950	 25.47915	714.53003	 30.70	
  8.500	180.000	 24.68280	  3.81617	 17.58589	 10.18380	  9.62022	 -0.20068	 25.47140	714.59998	 30.70	
 10.200	180.000	 24.26472	  2.30956	 18.69817	  9.83895	  9.21560	 -0.43823	 25.47737	714.59003	 30.70	
 10.191	-170.497	 24.26180	  2.39677	 18.61132	  8.52301	 10.56047	 -0.43057	 25.47878	714.59003	 30.70	
 10.210	-161.034	 24.25674	  2.62480	 18.30399	  7.18895	 11.93084	 -0.42555	 25.49298	714.53998	 30.70	
 10.194	-151.526	 24.24195	  3.06548	 17.71212	  5.97531	 13.26346	 -0.43168	 25.48135	714.63000	 30.70	
 10.190	-142.105	 24.24775	  3.67962	 16.94300	  4.93337	 14.49055	 -0.45073	 25.48681	714.44000	 30.70	
 10.215	-132.646	 24.24463	  4.50505	 15.95649	  4.04998	 15.61523	 -0.46277	 25.46938	714.51001	 30.70	
 10.203	-123.092	 24.26075	  5.44424	 14.80459	  3.30555	 16.57800	 -0.46128	 25.48299	714.47998	 30.60	
 10.192	-113.678	 24.27451	  6.52544	 13.55445	  2.80482	 17.33718	 -0.45336	 25.46684	714.40997	 30.60	
 10.208	-104.249	 24.30704	  7.71560	 12.21725	  2.40767	 17.91121	 -0.45606	 25.47859	714.60999	 30.60	
 10.210	-94.801	 24.33977	  8.99319	 10.84931	  2.23885	 18.20335	 -0.45199	 25.48546	714.42999	 30.60	
 10.210	-85.199	 24.34953	 10.34276	  9.46627	  2.25669	 18.24871	 -0.42901	 25.46477	714.46997	 30.60	
 10.208	-75.751	 24.37518	 11.68900	  8.16813	  2.42294	 18.03577	 -0.39420	 25.45940	714.23999	 30.60	
 10.192	-66.322	 24.41163	 13.04621	  6.94474	  2.72628	 17.57967	 -0.36410	 25.46679	714.40997	 30.60	
 10.203	-56.908	 24.45123	 14.34890	  5.85203	  3.22393	 16.90676	 -0.34409	 25.48132	714.41998	 30.50	
 10.215	-47.354	 24.48182	 15.55571	  4.81996	  3.89797	 16.00940	 -0.32950	 25.49468	714.46997	 30.50	
 10.190	-37.895	 24.48107	 16.57951	  3.97828	  4.73622	 14.90022	 -0.28611	 25.47649	714.35999	 30.50	
 10.194	-28.474	 24.51017	 17.43219	  3.31807	  5.74950	 13.69513	 -0.21360	 25.47790	714.46997	 30.50	
 10.210	-18.966	 24.53083	 18.07572	  2.81071	  6.95514	 12.37765	 -0.15313	 25.48625	714.48999	 30.50	
 10.191	 -9.503	 24.53372	 18.44661	  2.56512	  8.25910	 11.01914	 -0.12847	 25.47786	714.53998	 30.50	
 10.200	  0.000	 24.53835	 18.59765	  2.43933	  9.55904	  9.68806	 -0.09705	 25.46875	714.34998	 30.50	
 10.191	  9.503	 24.52349	 18.48289	  2.55543	 10.96852	  8.33548	 -0.07091	 25.46932	714.34003	 30.50	
 10.210	 18.966	 24.51980	 18.15227	  2.78557	 12.31989	  7.06026	 -0.04326	 25.47596	714.39001	 30.50	
 10.194	 28.474	 24.51375	 17.54477	  3.21721	 13.62963	  5.90644	 -0.06151	 25.46299	714.44000	 30.50	
 10.190	 37.895	 24.51865	 16.75630	  3.82571	 14.90314	  4.86299	 -0.12906	 25.47411	714.46002	 30.40	
 10.215	 47.354	 24.51878	 15.76690	  4.60241	 16.04438	  3.95054	 -0.19486	 25.47787	714.46002	 30.40	
 10.203	 56.908	 24.51786	 14.61786	  5.54625	 16.99134	  3.22978	 -0.22536	 25.48615	714.46997	 30.40	
 10.192	 66.322	 24.51033	 13.37852	  6.60981	 17.71093	  2.71017	 -0.23483	 25.48172	714.47998	 30.40	
 10.208	 75.751	 24.49299	 12.04572	  7.80390	 18.22391	  2.29786	 -0.25008	 25.47355	714.39001	 30.40	
 10.210	 85.199	 24.46178	 10.66424	  9.06121	 18.49573	  2.06903	 -0.28709	 25.46126	714.42999	 30.40	
 10.210	 94.801	 24.46713	  9.30355	 10.42465	 18.53125	  2.06330	 -0.30599	 25.48812	714.38000	 30.40	
 10.208	104.249	 24.43298	  7.98410	 11.77123	 18.30007	  2.19653	 -0.30803	 25.47939	714.37000	 30.40	
 10.192	113.678	 24.39883	  6.74534	 13.12595	 17.82119	  2.51131	 -0.31756	 25.46626	714.38000	 30.40	
 10.203	123.092	 24.36706	  5.63367	 14.38885	 17.14508	  2.95631	 -0.34220	 25.45552	714.41998	 30.30	
 10.215	132.646	 24.35629	  4.62126	 15.60062	 16.23337	  3.63825	 -0.36280	 25.47697	714.44000	 30.30	
 10.190	142.105	 24.32977	  3.82766	 16.63053	 15.12508	  4.53781	 -0.37121	 25.46980	714.37000	 30.30	
 10.194	151.526	 24.31865	  3.19282	 17.48246	 13.90415	  5.54924	 -0.36867	 25.48382	714.41998	 30.30	
 10.210	161.034	 24.28149	  2.73690	 18.12028	 12.59270	  6.66818	 -0.38059	 25.47333	714.39001	 30.30	
 10.191	170.497	 24.27583	  2.43845	 18.51389	 11.24286	  7.85945	 -0.41570	 25.47606	714.39001	 30.30	
 11.899	171.783	 23.76266	  0.95911	 19.55957	 10.85509	  7.36331	 -0.62457	 25.46331	714.40997	 30.30	
 11.890	163.610	 23.78752	  1.22400	 19.20461	 12.21692	  6.11345	 -0.60493	 25.46900	714.41998	 30.30	
 11.889	155.445	 23.79016	  1.55373	 18.63609	 13.52448	  4.97363	 -0.59598	 25.44866	714.40002	 30.30	
 11.909	147.299	 23.80279	  2.07323	 17.88772	 14.82618	  3.89378	 -0.61542	 25.45166	714.47998	 30.20	
 11.902	139.148	 23.83828	  2.77601	 16.95707	 16.03311	  2.99956	 -0.61541	 25.46408	714.40002	 30.20	
 11.894	130.867	 23.87585	  3.64116	 15.85894	 17.10117	  2.22958	 -0.60521	 25.47464	714.44000	 30.20	
 11.897	122.732	 23.89430	  4.62617	 14.65043	 17.97982	  1.60906	 -0.56661	 25.46330	714.48999	 30.20	
 11.903	114.597	 23.91775	  5.71394	 13.36533	 18.69026	  1.13056	 -0.55644	 25.46799	714.42999	 30.20	
 11.893	106.346	 23.94448	  6.92618	 12.00407	 19.21592	  0.80433	 -0.55971	 25.47259	714.39001	 30.20	
 11.892	 98.155	 23.96632	  8.24453	 10.63235	 19.50165	  0.66500	 -0.55810	 25.45472	714.27002	 30.20	
 11.900	 90.000	 23.99553	  9.60386	  9.30114	 19.60555	  0.63737	 -0.54739	 25.46675	714.35999	 30.20	
 11.892	 81.845	 24.00660	 10.95998	  7.99528	 19.46411	  0.70959	 -0.52877	 25.46173	714.37000	 30.20	
 11.893	 73.654	 24.01705	 12.33753	  6.71713	 19.11945	  0.90726	 -0.50080	 25.47368	714.37000	 30.20	
 11.903	 65.403	 24.02778	 13.68935	  5.53393	 18.55835	  1.32054	 -0.49054	 25.46688	714.29999	 30.10	
 11.897	 57.268	 24.02306	 14.92622	  4.49059	 17.80110	  1.85251	 -0.46916	 25.45784	714.28003	 30.10	
 11.894	 49.133	 24.03699	 16.09298	  3.55233	 16.88401	  2.53006	 -0.45052	 25.45998	714.38000	 30.10	
 11.902	 40.852	 24.02187	 17.14273	  2.71752	 15.77341	  3.35022	 -0.39171	 25.44733	714.32001	 30.10	
 11.909	 32.701	 24.01489	 18.02051	  2.04896	 14.54432	  4.31024	 -0.31275	 25.44407	714.42999	 30.10	
 11.889	 24.555	 24.03471	 18.71284	  1.57310	 13.22142	  5.44739	 -0.27343	 25.46239	714.37000	 30.10	
 11.890	 16.390	 24.04169	 19.23108	  1.22589	 11.89655	  6.61914	 -0.28911	 25.45716	714.38000	 30.10	
 11.899	  8.217	 24.04517	 19.53601	  1.01370	 10.51423	  7.90492	 -0.31705	 25.45373	714.31000	 30.10	
 11.900	  0.000	 24.03719	 19.61499	  0.96355	  9.10739	  9.30165	 -0.35026	 25.44949	714.33002	 30.10	
 11.899	 -8.217	 24.03650	 19.48334	  1.06725	  7.79519	 10.65811	 -0.36051	 25.44513	714.39001	 30.10	
 11.890	-16.390	 24.04050	 19.13857	  1.30793	  6.48311	 12.04438	 -0.37846	 25.45622	714.33002	 30.10	
 11.889	-24.555	 24.01329	 18.58187	  1.68814	  5.27961	 13.38348	 -0.43473	 25.43954	714.33002	 30.10	
 11.909	-32.701	 24.01307	 17.84823	  2.22786	  4.21508	 14.65926	 -0.48227	 25.45561	714.34003	 30.10	
 11.902	-40.852	 23.98164	 16.92761	  2.92971	  3.23328	 15.79288	 -0.52341	 25.44812	714.34003	 30.00	
 11.894	-49.133	 23.95751	 15.80451	  3.84478	  2.40977	 16.86636	 -0.56037	 25.45652	714.28998	 30.00	
 11.897	-57.268	 23.93136	 14.58483	  4.84689	  1.75465	 17.76154	 -0.55853	 25.44746	714.28003	 30.00	
 11.903	-65.403	 23.89895	 13.29610	  5.91962	  1.24272	 18.45384	 -0.55878	 25.44662	714.32001	 30.00	
 11.893	-73.654	 23.88527	 11.94121	  7.15907	  0.94413	 18.93189	 -0.57451	 25.44407	714.23999	 30.00	
 11.892	-81.845	 23.84942	 10.56663	  8.45428	  0.81842	 19.20842	 -0.60135	 25.43931	714.31000	 30.00	
 11.900	-90.000	 23.83531	  9.21905	  9.79288	  0.76409	 19.26329	 -0.60714	 25.45693	714.16998	 30.00	
 11.892	-98.155	 23.79268	  7.89973	 11.14513	  0.78463	 19.09988	 -0.60186	 25.44362	714.28003	 30.00	
 11.893	-106.346	 23.75521	  6.63021	 12.51420	  1.00224	 18.73219	 -0.59608	 25.44617	714.27002	 30.00	
 11.903	-114.597	 23.72497	  5.45838	 13.85747	  1.37433	 18.13121	 -0.59440	 25.44774	714.27002	 30.00	
 11.897	-122.732	 23.70601	  4.41288	 15.11291	  1.91948	 17.36756	 -0.60311	 25.44592	714.32001	 30.00	
 11.894	-130.867	 23.68228	  3.47970	 16.26264	  2.58444	 16.41226	 -0.61551	 25.43405	714.34003	 29.90	
 11.902	-139.148	 23.67750	  2.65294	 17.32215	  3.42586	 15.29695	 -0.61709	 25.44223	714.31000	 29.90	
 11.909	-147.299	 23.67894	  1.99581	 18.18314	  4.42641	 14.08032	 -0.60643	 25.44247	714.27002	 29.90	
 11.889	-155.445	 23.68350	  1.49910	 18.85666	  5.52156	 12.80449	 -0.59841	 25.44142	714.27002	 29.90	
 11.890	-163.610	 23.69244	  1.13970	 19.34370	  6.77671	 11.44326	 -0.61478	 25.42903	714.32001	 29.90	
 11.899	-171.783	 23.69628	  0.92462	 19.63158	  8.09383	 10.05820	 -0.62629	 25.42562	714.42999	 29.90	
 11.900	180.000	 23.71333	  0.86988	 19.70189	  9.43360	  8.72117	 -0.63754	 25.43681	714.48999	 29.90	
 13.600	180.000	 23.12909	 -0.54785	 20.66194	  8.97710	  8.19712	 -0.80637	 25.43905	714.35999	 29.90	
 13.608	-172.853	 23.09550	 -0.52744	 20.60546	  7.64039	  9.50948	 -0.80067	 25.43369	714.34003	 29.90	
 13.611	-165.583	 23.07678	 -0.34462	 20.35189	  6.29070	 10.90810	 -0.77335	 25.41603	714.28998	 29.90	
 13.601	-158.353	 23.07663	 -0.03140	 19.92063	  5.05395	 12.27549	 -0.74339	 25.42674	714.41998	 29.90	
 13.609	-151.210	 23.05310	  0.35409	 19.31987	  3.95435	 13.58842	 -0.73061	 25.41796	714.44000	 29.90	
 13.611	-143.999	 23.05165	  0.95543	 18.53876	  2.88305	 14.91027	 -0.72417	 25.42187	714.34003	 29.80	
 13.601	-136.825	 23.05252	  1.59967	 17.61018	  1.93075	 16.08977	 -0.72244	 25.43269	714.28998	 29.80	
 13.596	-129.640	 23.07455	  2.43204	 16.54573	  1.16429	 17.15295	 -0.71394	 25.42311	714.40997	 29.80	
 13.611	-122.431	 23.08872	  3.36466	 15.36523	  0.53218	 18.08624	 -0.69942	 25.42909	714.33002	 29.80	
 13.604	-115.211	 23.11187	  4.38209	 14.09387	  0.01713	 18.86758	 -0.66957	 25.41458	714.29999	 29.80	
 13.595	-108.042	 23.13835	  5.52566	 12.76060	 -0.35901	 19.49589	 -0.67092	 25.42248	714.31000	 29.80	
 13.607	-100.793	 23.16154	  6.74078	 11.38354	 -0.59233	 19.94693	 -0.68866	 25.42063	714.22998	 29.80	
 13.601	-93.617	 23.20156	  8.04526	 10.01335	 -0.67381	 20.18952	 -0.69483	 25.42541	714.26001	 29.80	
 13.601	-86.383	 23.23062	  9.38408	  8.66380	 -0.68637	 20.25720	 -0.70740	 25.42129	714.23999	 29.80	
 13.607	-79.207	 23.24358	 10.74462	  7.35067	 -0.64832	 20.11922	 -0.70214	 25.41489	714.29999	 29.80	
 13.595	-71.958	 23.28777	 12.13743	  6.09636	 -0.46149	 19.78231	 -0.67489	 25.42275	714.28998	 29.80	
 13.604	-64.789	 23.30502	 13.46299	  4.93476	 -0.14768	 19.24864	 -0.69259	 25.41130	714.29999	 29.70	
 13.611	-57.569	 23.33682	 14.77811	  3.81417	  0.32752	 18.54861	 -0.69687	 25.42218	714.25000	 29.80	
 13.596	-50.360	 23.34342	 16.00716	  2.76933	  0.92654	 17.66507	 -0.71722	 25.40385	714.31000	 29.80	
 13.601	-43.175	 23.38674	 17.14516	  1.90010	  1.67776	 16.65305	 -0.71690	 25.42974	714.22998	 29.70	
 13.611	-36.001	 23.38012	 18.11957	  1.14727	  2.57520	 15.47384	 -0.68914	 25.41426	714.17999	 29.70	
 13.609	-28.790	 23.41076	 18.97588	  0.51597	  3.60295	 14.21007	 -0.64035	 25.42148	714.20001	 29.70	
 13.601	-21.647	 23.42004	 19.64436	  0.03254	  4.70985	 12.90459	 -0.60099	 25.41869	714.25000	 29.70	
 13.611	-14.417	 23.43394	 20.15582	 -0.29884	  5.94291	 11.57866	 -0.57540	 25.41817	714.34998	 29.70	
 13.608	 -7.147	 23.43528	 20.46259	 -0.48043	  7.25750	 10.17406	 -0.57019	 25.42415	714.17999	 29.70	
 13.600	  0.000	 23.43757	 20.57718	 -0.53845	  8.58855	  8.82463	 -0.57255	 25.40953	714.29999	 29.70	
 13.608	  7.147	 23.44511	 20.51112	 -0.49969	  9.95877	  7.47586	 -0.55863	 25.43342	714.32001	 29.70	
 13.611	 14.417	 23.42781	 20.23248	 -0.31085	 11.36609	  6.16723	 -0.53260	 25.41948	714.28998	 29.70	
 13.601	 21.647	 23.43756	 19.77417	 -0.00197	 12.72620	  4.98409	 -0.51192	 25.42591	714.40002	 29.70	
 13.609	 28.790	 23.41939	 19.15074	  0.39589	 14.04681	  3.81944	 -0.51781	 25.41241	714.26001	 29.70	
 13.611	 36.001	 23.41713	 18.36073	  0.95167	 15.35252	  2.77366	 -0.57236	 25.40584	714.15002	 29.70	
 13.601	 43.175	 23.43929	 17.43321	  1.64770	 16.52926	  1.89810	 -0.65466	 25.42343	714.21002	 29.70	
 13.596	 50.360	 23.44547	 16.36655	  2.45225	 17.61625	  1.10060	 -0.70801	 25.42744	714.23999	 29.60	
 13.611	 57.569	 23.43628	 15.16237	  3.38771	 18.54810	  0.42632	 -0.72492	 25.42068	714.15002	 29.60	
 13.604	 64.789	 23.41349	 13.87545	  4.42926	 19.31427	 -0.07407	 -0.75448	 25.42083	714.21002	 29.60	
 13.595	 71.958	 23.42001	 12.55635	  5.55022	 19.90311	 -0.46396	 -0.76647	 25.43504	714.17999	 29.60	
 13.607	 79.207	 23.40370	 11.18637	  6.77437	 20.31937	 -0.72516	 -0.79270	 25.43482	714.19000	 29.60	
 13.601	 86.383	 23.40178	  9.82173	  8.08545	 20.53029	 -0.80430	 -0.80848	 25.43538	714.17999	 29.60	
 13.601	 93.617	 23.37340	  8.39144	  9.43598	 20.55075	 -0.88396	 -0.82484	 25.43684	714.21002	 29.60	
 13.607	100.793	 23.35908	  7.07662	 10.80503	 20.38924	 -0.76976	 -0.82269	 25.43436	714.31000	 29.60	
 13.595	108.042	 23.34022	  5.80255	 12.16751	 20.01225	 -0.52400	 -0.81423	 25.43298	714.20001	 29.60	
 13.604	115.211	 23.31417	  4.65825	 13.49749	 19.47820	 -0.18566	 -0.80334	 25.42782	714.31000	 29.60	
 13.611	122.431	 23.28138	  3.58437	 14.79395	 18.73761	  0.24927	 -0.80589	 25.42802	714.41998	 29.60	
 13.596	129.640	 23.25638	  2.62364	 16.02074	 17.83287	  0.85158	 -0.83180	 25.41945	714.29999	 29.60	
 13.601	136.825	 23.24067	  1.82682	 17.13536	 16.82301	  1.53107	 -0.85941	 25.42525	714.28003	 29.60	
 13.611	143.999	 23.20745	  1.09602	 18.12753	 15.67738	  2.32976	 -0.84606	 25.43116	714.28998	 29.60	
 13.609	151.210	 23.18774	  0.49124	 18.98636	 14.40643	  3.32521	 -0.81868	 25.43579	714.26001	 29.50	
 13.601	158.353	 23.15550	  0.09106	 19.66954	 13.07492	  4.40035	 -0.79312	 25.41861	714.29999	 29.60	
 13.611	165.583	 23.13637	 -0.25614	 20.18666	 11.73889	  5.55788	 -0.80550	 25.41846	714.34998	 29.50	
 13.608	172.853	 23.11102	 -0.48347	 20.50915	 10.34683	  6.85277	 -0.79790	 25.41033	714.26001	 29.50	
 15.298	173.587	 22.45346	 -1.84672	 21.38474	  9.83765	  6.31673	 -0.95397	 25.42156	714.32001	 29.50	
 15.291	167.167	 22.47697	 -1.64433	 21.09567	 11.21570	  5.06125	 -0.96978	 25.41904	714.34003	 29.50	
 15.307	160.676	 22.47461	 -1.37654	 20.62412	 12.53595	  3.86146	 -0.97545	 25.40989	714.28998	 29.50	
 15.300	154.261	 22.49119	 -1.02072	 19.99464	 13.88599	  2.74871	 -0.99170	 25.40556	714.22998	 29.50	
 15.288	147.854	 22.53233	 -0.50198	 19.22537	 15.18691	  1.75939	 -1.03219	 25.41795	714.13000	 29.50	
 15.293	141.428	 22.56008	  0.10449	 18.30829	 16.40043	  0.85916	 -1.06451	 25.41181	714.16998	 29.50	
 15.299	134.985	 22.57420	  0.83898	 17.23850	 17.54011	  0.04832	 -1.07736	 25.40973	714.31000	 29.50	
 15.305	128.583	 22.60914	  1.65425	 16.09668	 18.56304	 -0.55112	 -1.07174	 25.42791	714.26001	 29.50	
 15.309	122.142	 22.62053	  2.56571	 14.85411	 19.44307	 -1.06792	 -1.04744	 25.41777	714.20001	 29.50	
 15.304	115.711	 22.64408	  3.58514	 13.54532	 20.15944	 -1.50197	 -1.03570	 25.40470	714.19000	 29.50	
 15.297	109.291	 22.67657	  4.71011	 12.23300	 20.73150	 -1.80674	 -1.05461	 25.40368	714.20001	 29.50	
 15.293	102.897	 22.69457	  5.91753	 10.88565	 21.12740	 -2.06131	 -1.06959	 25.41005	714.15997	 29.50	
 15.293	 96.458	 22.71517	  7.22131	  9.54515	 21.36460	 -2.22888	 -1.07246	 25.40852	714.13000	 29.40	
 15.300	 90.000	 22.72907	  8.54850	  8.17566	 21.43718	 -2.27674	 -1.07342	 25.40649	714.23999	 29.40	
 15.293	 83.542	 22.74454	  9.98375	  6.85881	 21.30877	 -2.13091	 -1.06636	 25.40152	714.15997	 29.40	
 15.293	 77.103	 22.75579	 11.36184	  5.58761	 21.02441	 -1.97949	 -1.04598	 25.40367	714.19000	 29.40	
 15.297	 70.709	 22.76462	 12.69528	  4.43134	 20.60094	 -1.71597	 -1.02811	 25.40703	714.25000	 29.40	
 15.304	 64.289	 22.76231	 13.99338	  3.33434	 20.00365	 -1.40854	 -1.01648	 25.40919	714.32001	 29.40	
 15.309	 57.858	 22.76706	 15.29461	  2.30617	 19.22556	 -0.94512	 -0.99297	 25.41022	714.15002	 29.40	
 15.305	 51.417	 22.76540	 16.50056	  1.38700	 18.28369	 -0.32434	 -0.97253	 25.39961	714.27002	 29.40	
 15.299	 45.015	 22.79008	 17.61354	  0.58189	 17.24526	  0.41396	 -0.94074	 25.40809	714.17999	 29.40	
 15.293	 38.572	 22.79737	 18.61028	 -0.12915	 16.08077	  1.27535	 -0.87178	 25.41603	714.17999	 29.40	
 15.288	 32.146	 22.77535	 19.46274	 -0.73120	 14.81691	  2.21518	 -0.79397	 25.40796	714.16998	 29.40	
 15.300	 25.739	 22.77169	 20.18678	 -1.21563	 13.48004	  3.28192	 -0.77910	 25.40842	714.19000	 29.40	
 15.307	 19.324	 22.77349	 20.75150	 -1.56143	 12.13904	  4.42259	 -0.77544	 25.40882	714.15997	 29.40	
 15.291	 12.833	 22.76781	 21.13270	 -1.81796	 10.77667	  5.64400	 -0.79169	 25.39577	714.14001	 29.40	
 15.298	  6.413	 22.77537	 21.36723	 -1.98226	  9.37707	  6.93110	 -0.80019	 25.39906	714.23999	 29.40	
 15.300	  0.000	 22.77671	 21.43873	 -1.99094	  7.98922	  8.30274	 -0.81861	 25.39398	714.15002	 29.40	
 15.298	 -6.413	 22.80021	 21.34768	 -1.89123	  6.67220	  9.67575	 -0.81003	 25.41027	714.19000	 29.40	
 15.291	-12.833	 22.78609	 21.04768	 -1.65032	  5.36084	 11.04387	 -0.77683	 25.39435	714.15997	 29.40	
 15.307	-19.324	 22.76970	 20.58762	 -1.37499	  4.09389	 12.44777	 -0.77856	 25.39847	714.14001	 29.40	
 15.300	-25.739	 22.77230	 19.98476	 -0.98942	  2.99200	 13.77222	 -0.79073	 25.40026	714.12000	 29.30	
 15.288	-32.146	 22.74944	 19.21146	 -0.50127	  1.94084	 15.06517	 -0.80770	 25.40153	714.21997	 29.30	
 15.293	-38.572	 22.73011	 18.29843	  0.19513	  0.99737	 16.30292	 -0.82402	 25.39793	714.28003	 29.30	
 15.299	-45.015	 22.70549	 17.26818	  0.95031	  0.18592	 17.42068	 -0.81998	 25.39965	714.29999	 29.30	
 15.305	-51.417	 22.68361	 16.13497	  1.80712	 -0.52654	 18.38440	 -0.80397	 25.39835	714.29999	 29.30	
 15.309	-57.858	 22.65256	 14.89192	  2.77350	 -1.13687	 19.27229	 -0.77617	 25.40872	714.09003	 29.30	
 15.304	-64.289	 22.63558	 13.57254	  3.85661	 -1.58337	 19.99281	 -0.75173	 25.40343	714.09003	 29.30	
 15.297	-70.709	 22.58407	 12.21402	  4.99663	 -1.91453	 20.53124	 -0.71630	 25.38404	714.17999	 29.30	
 15.293	-77.103	 22.55626	 10.85695	  6.20732	 -2.11693	 20.91065	 -0.71813	 25.38268	714.15002	 29.30	
 15.293	-83.542	 22.52492	  9.47789	  7.48425	 -2.21004	 21.11340	 -0.70818	 25.38349	714.15997	 29.30	
 15.300	-90.000	 22.50616	  8.12685	  8.81367	 -2.26182	 21.14645	 -0.70352	 25.40907	714.17999	 29.30	
 15.293	-96.458	 22.47636	  6.81940	 10.16940	 -2.17890	 20.99767	 -0.69173	 25.39649	714.14001	 29.30	
 15.293	-102.897	 22.43332	  5.54455	 11.54602	 -2.00374	 20.67515	 -0.67280	 25.38935	714.19000	 29.30	
 15.297	-109.291	 22.40847	  4.38782	 12.89467	 -1.74598	 20.19491	 -0.67432	 25.39278	714.15002	 29.30	
 15.304	-115.711	 22.38663	  3.29392	 14.22064	 -1.36636	 19.55934	 -0.68169	 25.39776	714.15997	 29.30	
 15.309	-122.142	 22.35785	  2.28139	 15.50273	 -0.85252	 18.75124	 -0.69519	 25.38743	714.16998	 29.20	
 15.305	-128.583	 22.35024	  1.38903	 16.69697	 -0.23354	 17.83423	 -0.71984	 25.39524	714.17999	 29.20	
 15.299	-134.985	 22.34596	  0.62238	 17.79262	  0.48666	 16.79158	 -0.73425	 25.38962	714.13000	 29.20	
 15.293	-141.428	 22.32947	 -0.04825	 18.75770	  1.28722	 15.63004	 -0.76159	 25.38315	714.10999	 29.20	
 15.288	-147.854	 22.33513	 -0.65630	 19.60745	  2.24011	 14.37184	 -0.77843	 25.38716	714.21997	 29.20	
 15.300	-154.261	 22.33212	 -1.16712	 20.30650	  3.31925	 13.03862	 -0.78560	 25.37821	714.12000	 29.20	
 15.307	-160.676	 22.35089	 -1.48779	 20.84087	  4.51138	 11.69291	 -0.83233	 25.38141	714.09998	 29.20	
 15.291	-167.167	 22.37593	 -1.74845	 21.22073	  5.78937	 10.28633	 -0.88094	 25.38260	714.16998	 29.20	
 15.298	-173.587	 22.39601	 -1.90062	 21.44233	  7.11761	  8.92305	 -0.91585	 25.39445	714.14001	 29.20	
 15.300	180.000	 22.40256	 -1.93998	 21.48451	  8.43503	  7.61115	 -0.92526	 25.38835	714.16998	 29.20	
 17.000	180.000	 21.64133	 -3.28966	 22.27951	  7.85553	  6.97190	 -1.00782	 25.39023	714.15002	 29.20	
 16.990	-174.179	 21.64052	 -3.29303	 22.24942	  6.53919	  8.29001	 -0.96764	 25.39479	714.08002	 29.20	
 17.009	-168.383	 21.62108	 -3.14655	 22.06919	  5.23605	  9.63002	 -0.90643	 25.39707	714.20001	 29.20	
 17.000	-162.596	 21.60526	 -2.93119	 21.72995	  3.97009	 11.02664	 -0.86107	 25.39045	714.16998	 29.20	
 16.990	-156.759	 21.60335	 -2.63431	 21.24352	  2.83519	 12.38784	 -0.82795	 25.40128	714.21997	 29.20	
 16.995	-150.919	 21.56710	 -2.23044	 20.59535	  1.68818	 13.75598	 -0.78234	 25.38997	714.13000	 29.20	
 16.988	-145.161	 21.56140	 -1.70408	 19.83327	  0.72996	 15.04764	 -0.76080	 25.38784	714.21002	 29.20	
 17.014	-139.343	 21.56738	 -1.10604	 18.95042	 -0.13491	 16.27068	 -0.73636	 25.40016	714.21002	 29.20	
 17.007	-133.546	 21.58201	 -0.40355	 17.93795	 -0.91487	 17.41681	 -0.69523	 25.38940	714.16998	 29.20	
 17.001	-127.699	 21.56878	  0.35486	 16.80631	 -1.62614	 18.46037	 -0.65653	 25.37868	714.16998	 29.20	
 17.006	-121.937	 21.57078	  1.15664	 15.61780	 -2.19360	 19.37224	 -0.66011	 25.37938	714.19000	 29.20	
 17.002	-116.134	 21.58287	  2.11432	 14.34252	 -2.68671	 20.16550	 -0.62716	 25.37655	714.17999	 29.10	
 17.001	-110.310	 21.63237	  3.22043	 13.01577	 -3.05515	 20.80869	 -0.63522	 25.38828	714.26001	 29.10	
 16.988	-104.517	 21.66593	  4.40159	 11.67147	 -3.28195	 21.30644	 -0.62347	 25.36861	714.15002	 29.10	
 17.008	-98.662	 21.68436	  5.61504	 10.28652	 -3.49028	 21.69309	 -0.62549	 25.37910	714.15002	 29.10	
 16.996	-92.909	 21.72141	  6.89383	  8.93419	 -3.57606	 21.89567	 -0.63009	 25.38080	714.12000	 29.10	
 16.996	-87.091	 21.74401	  8.20764	  7.61220	 -3.58998	 21.96115	 -0.65938	 25.37168	714.09003	 29.10	
 17.012	-81.253	 21.77735	  9.57361	  6.28847	 -3.52563	 21.86180	 -0.64829	 25.37524	714.09003	 29.10	
 16.988	-75.483	 21.81466	 10.94320	  5.05506	 -3.35333	 21.59620	 -0.66924	 25.37482	714.10999	 29.10	
 17.001	-69.690	 21.85000	 12.29552	  3.86055	 -3.15002	 21.20136	 -0.69393	 25.38571	714.10999	 29.10	
 17.002	-63.866	 21.85590	 13.63284	  2.73140	 -2.84652	 20.62572	 -0.73566	 25.36942	714.03003	 29.10	
 17.006	-58.063	 21.89016	 14.95159	  1.68562	 -2.42833	 19.91591	 -0.75853	 25.38203	714.01001	 29.10	
 17.001	-52.301	 21.90718	 16.18357	  0.75779	 -1.90057	 19.07366	 -0.78854	 25.37013	714.07001	 29.10	
 17.007	-46.454	 21.93209	 17.34926	 -0.09866	 -1.25758	 18.07598	 -0.82468	 25.37551	714.14001	 29.10	
 17.014	-40.657	 21.93097	 18.40410	 -0.85909	 -0.54202	 16.99786	 -0.84017	 25.35578	714.09998	 29.10	
 16.988	-34.839	 21.94053	 19.34024	 -1.51855	  0.31047	 15.80597	 -0.84905	 25.33226	714.02002	 29.10	
 16.995	-29.081	 21.93454	 20.15267	 -2.05375	  1.30872	 14.51803	 -0.81544	 25.31765	714.07001	 29.10	
 16.990	-23.241	 21.93523	 20.83036	 -2.42101	  2.40979	 13.17887	 -0.79312	 25.30982	714.03003	 29.10	
 17.000	-17.404	 21.89630	 21.34593	 -2.73705	  3.51338	 11.83707	 -0.80283	 25.27094	714.07001	 29.10	
 17.009	-11.617	 21.91501	 21.77376	 -3.00446	  4.72737	 10.45013	 -0.82334	 25.27662	714.13000	 29.00	
 16.990	 -5.821	 21.88661	 21.98703	 -3.12535	  6.03495	  9.10814	 -0.82960	 25.24139	714.07001	 29.10	
 17.000	  0.000	 21.87488	 22.07394	 -3.19788	  7.35348	  7.74793	 -0.86457	 25.23285	714.06000	 29.00	
 16.990	  5.821	 21.85217	 21.98210	 -3.16800	  8.73980	  6.43077	 -0.85996	 25.20733	714.00000	 29.00	
 17.009	 11.617	 21.83134	 21.78578	 -3.07091	 10.12346	  5.13197	 -0.84666	 25.20351	714.10999	 29.00	
 17.000	 17.404	 21.84600	 21.44705	 -2.86622	 11.43471	  4.00626	 -0.84308	 25.21080	714.06000	 29.00	
 16.990	 23.241	 21.83060	 20.94792	 -2.57882	 12.74920	  2.87522	 -0.83886	 25.21347	714.10999	 29.00	
 16.995	 29.081	 21.81616	 20.31485	 -2.21748	 14.11755	  1.77330	 -0.87660	 25.20659	714.15002	 29.00	
 16.988	 34.839	 21.81509	 19.53600	 -1.69260	 15.36715	  0.84709	 -0.92753	 25.20110	714.07001	 29.00	
 17.014	 40.657	 21.83319	 18.62771	 -1.10699	 16.59873	 -0.05929	 -1.01616	 25.21703	713.98999	 29.00	
 17.007	 46.454	 21.85121	 17.59150	 -0.39194	 17.74764	 -0.85922	 -1.07558	 25.22362	714.14001	 29.00	
 17.001	 52.301	 21.86650	 16.46069	  0.42183	 18.78671	 -1.55197	 -1.11256	 25.24285	714.15997	 29.00	
 17.006	 58.063	 21.86790	 15.26460	  1.30405	 19.67526	 -2.06506	 -1.13440	 25.24187	714.25000	 29.00	
 17.002	 63.866	 21.87049	 13.99308	  2.27271	 20.44928	 -2.50357	 -1.15611	 25.24944	714.21997	 29.00	
 17.001	 69.690	 21.86225	 12.69242	  3.30304	 21.08300	 -2.84475	 -1.17440	 25.25111	714.26001	 29.00	
 16.988	 75.483	 21.86831	 11.37405	  4.40607	 21.56942	 -3.10598	 -1.18924	 25.25834	714.14001	 29.00	
 17.012	 81.253	 21.84122	 10.02831	  5.57654	 21.89234	 -3.33642	 -1.20544	 25.25432	714.13000	 29.00	
 16.996	 87.091	 21.83222	  8.66133	  6.86492	 22.07368	 -3.44182	 -1.21853	 25.25450	714.17999	 29.00	
 16.996	 92.909	 21.81359	  7.29888	  8.17792	 22.10191	 -3.52850	 -1.22590	 25.25319	714.17999	 29.00	
 17.008	 98.662	 21.78696	  6.00684	  9.51932	 21.97793	 -3.44994	 -1.22122	 25.25636	714.21002	 29.00	
 16.988	104.517	 21.79318	  4.76359	 10.84721	 21.67879	 -3.18733	 -1.20215	 25.25679	714.16998	 29.00	
 17.001	110.310	 21.77357	  3.61714	 12.18183	 21.23837	 -2.91729	 -1.17904	 25.25196	714.15997	 29.00	
 17.002	116.134	 21.76972	  2.64860	 13.50332	 20.65175	 -2.59751	 -1.15519	 25.26346	714.27002	 29.00	
 17.006	121.937	 21.72647	  1.62362	 14.79130	 19.92014	 -2.19606	 -1.16417	 25.25663	714.14001	 29.00	
 17.001	127.699	 21.69489	  0.74771	 15.99385	 19.06918	 -1.76210	 -1.15868	 25.25392	714.20001	 29.00	
 17.007	133.546	 21.66279	 -0.08728	 17.15295	 18.07898	 -1.23957	 -1.17415	 25.24796	714.12000	 29.00	
 17.014	139.343	 21.62712	 -0.82108	 18.23831	 16.98448	 -0.51450	 -1.15868	 25.25237	714.16998	 29.00	
 16.988	145.161	 21.61962	 -1.40469	 19.21299	 15.80575	  0.35035	 -1.11384	 25.25496	714.12000	 29.00	
 16.995	150.919	 21.58496	 -1.90317	 20.04019	 14.57947	  1.24038	 -1.07959	 25.24637	714.03003	 29.00	
 16.990	156.759	 21.58356	 -2.29830	 20.76538	 13.27289	  2.26310	 -1.02697	 25.25724	714.07001	 28.90	
 17.000	162.596	 21.55758	 -2.63481	 21.33225	 11.90809	  3.35514	 -0.99116	 25.25805	713.98999	 28.90	
 17.009	168.383	 21.53831	 -2.91963	 21.76249	 10.60737	  4.50150	 -0.97441	 25.26137	714.01001	 28.90	
 16.990	174.179	 21.50999	 -3.11053	 22.01365	  9.23185	  5.71829	 -0.94099	 25.24357	714.07001	 28.90	
 18.709	174.675	 20.68145	 -4.43323	 22.75255	  8.58569	  5.08959	 -0.96432	 25.27101	714.03003	 28.90	
 18.703	169.441	 20.71586	 -4.25104	 22.50134	  9.94994	  3.88504	 -1.02355	 25.26463	714.12000	 28.90	
 18.691	164.085	 20.72422	 -3.96086	 22.08200	 11.27954	  2.73047	 -1.07488	 25.24007	714.09003	 28.90	
 18.706	158.818	 20.74941	 -3.65848	 21.57607	 12.63951	  1.64125	 -1.11919	 25.24669	714.09998	 28.90	
 18.695	153.537	 20.77834	 -3.29440	 20.91297	 13.96716	  0.62128	 -1.16494	 25.26004	714.13000	 28.90	
 18.704	148.255	 20.81832	 -2.86502	 20.13428	 15.21824	 -0.30263	 -1.21275	 25.25585	714.19000	 28.90	
 18.698	142.952	 20.82828	 -2.35760	 19.22683	 16.43609	 -1.16448	 -1.27672	 25.25574	714.22998	 28.90	
 18.699	137.625	 20.80332	 -1.82468	 18.16432	 17.51630	 -1.98641	 -1.43617	 25.18317	714.04999	 28.90	
 18.705	132.343	 20.84269	 -1.11632	 17.07841	 18.58955	 -2.59836	 -1.46402	 25.19407	714.04999	 28.90	
 18.713	127.067	 20.87500	 -0.31199	 15.91926	 19.54859	 -3.04878	 -1.46394	 25.19250	714.15002	 28.90	
 18.700	121.794	 20.90604	  0.55036	 14.71061	 20.38276	 -3.43359	 -1.46867	 25.19039	714.15002	 28.90	
 18.698	116.504	 20.93064	  1.51836	 13.43002	 21.11862	 -3.83116	 -1.50457	 25.18780	714.12000	 28.90	
 18.707	111.165	 20.94519	  2.56461	 12.08763	 21.72590	 -4.13966	 -1.52459	 25.18005	714.09998	 28.90	
 18.690	105.863	 20.97249	  3.60869	 10.76301	 22.20028	 -4.39060	 -1.54724	 25.19328	714.02002	 28.90	
 18.696	100.583	 20.96804	  4.74125	  9.46500	 22.52085	 -4.67605	 -1.55005	 25.17704	714.13000	 28.90	
 18.700	 95.309	 20.98749	  6.01207	  8.11226	 22.71655	 -4.81357	 -1.56539	 25.19456	714.09003	 28.90	
 18.700	 90.000	 20.98395	  7.29134	  6.78299	 22.75209	 -4.85495	 -1.57801	 25.18398	714.16998	 28.90	
 18.700	 84.691	 21.01604	  8.66474	  5.52253	 22.67059	 -4.70467	 -1.59300	 25.20184	714.13000	 28.90	
 18.696	 79.417	 21.02581	  9.99782	  4.30969	 22.44256	 -4.56141	 -1.57587	 25.19474	714.06000	 28.90	
 18.690	 74.137	 21.03868	 11.32245	  3.17025	 22.07399	 -4.34136	 -1.55365	 25.19870	714.15997	 28.90	
 18.707	 68.835	 21.04698	 12.64094	  2.08593	 21.57220	 -4.10248	 -1.55275	 25.19658	714.15997	 28.90	
 18.698	 63.496	 21.05045	 13.95471	  1.06149	 20.89937	 -3.72070	 -1.53689	 25.17803	714.06000	 28.90	
 18.700	 58.206	 21.07596	 15.23559	  0.12687	 20.12785	 -3.29908	 -1.51609	 25.20414	714.12000	 28.90	
 18.713	 52.933	 21.08105	 16.43391	 -0.71415	 19.23830	 -2.83570	 -1.51482	 25.20200	714.03003	 28.90	
 18.705	 47.657	 21.08620	 17.57751	 -1.49807	 18.23359	 -2.22848	 -1.48297	 25.20796	714.04999	 28.90	
 18.699	 42.375	 21.07325	 18.63794	 -2.19209	 17.10865	 -1.49710	 -1.46250	 25.19948	714.07001	 28.90	
 18.698	 37.048	 21.05772	 19.60061	 -2.81075	 15.90276	 -0.77405	 -1.37863	 25.19727	714.09998	 28.90	
 18.704	 31.745	 21.04591	 20.45233	 -3.34178	 14.63105	  0.10588	 -1.31818	 25.18756	714.02002	 28.80	
 18.695	 26.463	 21.04899	 21.16651	 -3.72617	 13.35325	  1.05815	 -1.27522	 25.19823	714.09003	 28.90	
 18.706	 21.182	 21.06186	 21.76552	 -4.04793	 12.01476	  2.10473	 -1.24363	 25.20083	714.09003	 28.80	
 18.691	 15.915	 21.08394	 22.22913	 -4.31086	 10.71321	  3.25942	 -1.22032	 25.20922	714.15002	 28.80	
 18.703	 10.559	 21.06515	 22.54249	 -4.50104	  9.33330	  4.45982	 -1.20602	 25.20844	714.03003	 28.80	
 18.709	  5.325	 21.06049	 22.71331	 -4.59823	  7.95445	  5.74905	 -1.18312	 25.20166	714.03003	 28.80	
 18.700	  0.000	 21.06247	 22.75669	 -4.60386	  6.58533	  7.04641	 -1.14191	 25.20264	714.10999	 28.80	
 18.709	 -5.325	 21.06420	 22.67530	 -4.53591	  5.27560	  8.37647	 -1.09525	 25.20356	714.12000	 28.80	
 18.703	-10.559	 21.06607	 22.43938	 -4.36496	  4.01472	  9.74596	 -1.04431	 25.19904	714.17999	 28.80	
 18.691	-15.915	 21.05856	 22.05696	 -4.14396	  2.81402	 11.13780	 -0.98566	 25.18192	714.07001	 28.80	
 18.706	-21.182	 21.06230	 21.56871	 -3.83892	  1.69883	 12.48782	 -0.94588	 25.20049	714.21002	 28.80	
 18.695	-26.463	 21.03255	 20.91495	 -3.46738	  0.65882	 13.80747	 -0.90865	 25.18291	714.01001	 28.80	
 18.704	-31.745	 21.02528	 20.16897	 -3.03954	 -0.33889	 15.11917	 -0.87681	 25.20020	714.01001	 28.80	
 18.698	-37.048	 21.00420	 19.31443	 -2.48156	 -1.22885	 16.34266	 -0.87111	 25.19865	714.10999	 28.80	
 18.699	-42.375	 20.97258	 18.30838	 -1.80387	 -1.99853	 17.50952	 -0.82306	 25.19205	714.15002	 28.80	
 18.705	-47.657	 20.95334	 17.21517	 -1.06324	 -2.69888	 18.59867	 -0.78862	 25.20166	714.09003	 28.80	
 18.713	-52.933	 20.92200	 16.03068	 -0.25215	 -3.24813	 19.53916	 -0.76960	 25.18871	714.04999	 28.80	
 18.700	-58.206	 20.90287	 14.80608	  0.64583	 -3.68278	 20.34433	 -0.74802	 25.18630	714.03003	 28.80	
 18.698	-63.496	 20.89305	 13.53673	  1.63935	 -4.03271	 21.03198	 -0.70484	 25.19199	714.06000	 28.80	
 18.707	-68.835	 20.84499	 12.17578	  2.71635	 -4.37191	 21.62252	 -0.69043	 25.18068	714.03998	 28.80	
 18.690	-74.137	 20.83259	 10.85273	  3.86127	 -4.59732	 22.07761	 -0.66211	 25.19449	714.14001	 28.80	
 18.696	-79.417	 20.80705	  9.50058	  5.06569	 -4.75238	 22.37906	 -0.64710	 25.19753	714.17999	 28.80	
 18.700	-84.691	 20.75673	  8.14092	  6.31007	 -4.87601	 22.53194	 -0.63268	 25.19317	714.03998	 28.80	
 18.700	-90.000	 20.74144	  6.84301	  7.60285	 -4.87870	 22.54560	 -0.62508	 25.20039	714.07001	 28.80	
 18.700	-95.309	 20.69832	  5.56853	  8.92224	 -4.81567	 22.41512	 -0.60714	 25.19197	714.07001	 28.80	
 18.696	-100.583	 20.67455	  4.34073	 10.26981	 -4.70111	 22.14174	 -0.60294	 25.19531	714.03003	 28.80	
 18.690	-105.863	 20.65970	  3.18553	 11.61413	 -4.48830	 21.74543	 -0.60297	 25.21082	714.10999	 28.80	
 18.707	-111.165	 20.61872	  2.09132	 12.94039	 -4.18456	 21.21969	 -0.61280	 25.19707	713.98999	 28.80	
 18.698	-116.504	 20.60336	  1.07082	 14.28163	 -3.78989	 20.55003	 -0.60333	 25.20632	714.08002	 28.80	
 18.700	-121.794	 20.58051	  0.16235	 15.54212	 -3.35637	 19.76473	 -0.62786	 25.20532	714.08002	 28.80	
 18.713	-127.067	 20.54762	 -0.67705	 16.70872	 -2.90394	 18.87140	 -0.64781	 25.18619	713.96997	 28.80	
 18.705	-132.343	 20.55961	 -1.41052	 17.83965	 -2.30899	 17.86961	 -0.66079	 25.21179	714.00000	 28.80	
 18.699	-137.625	 20.54989	 -2.07987	 18.86890	 -1.56855	 16.73287	 -0.68947	 25.20055	714.01001	 28.80	
 18.698	-142.952	 20.55065	 -2.67082	 19.79993	 -0.75708	 15.53417	 -0.72177	 25.18446	714.04999	 28.80	
 18.704	-148.255	 20.56295	 -3.16817	 20.61709	  0.11246	 14.29564	 -0.76506	 25.20308	714.00000	 28.80	
 18.695	-153.537	 20.58603	 -3.56653	 21.30626	  1.08629	 12.99033	 -0.80724	 25.19933	713.91998	 28.80	
 18.706	-158.818	 20.60814	 -3.92136	 21.88589	  2.16748	 11.64605	 -0.86506	 25.21186	714.03003	 28.80	
 18.691	-164.085	 20.63448	 -4.18533	 22.30966	  3.31801	 10.30653	 -0.90512	 25.20983	714.09998	 28.80	
 18.703	-169.441	 20.63334	 -4.41840	 22.63471	  4.56258	  8.92282	 -0.96635	 25.21898	714.03003	 28.80	
 18.709	-174.675	 20.62966	 -4.56556	 22.79119	  5.83856	  7.57561	 -0.99064	 25.21471	714.04999	 28.80	
 18.700	180.000	 20.65507	 -4.56537	 22.82138	  7.14903	  6.29811	 -1.05790	 25.21106	714.03003	 28.80	
 20.400	180.000	 19.74885	 -5.80151	 23.42491	  6.47333	  5.62642	 -1.01334	 25.20954	714.08002	 28.70	
 20.401	-175.153	 19.72516	 -5.76444	 23.39895	  5.18333	  6.88548	 -0.96600	 25.19888	714.06000	 28.80	
 20.407	-170.264	 19.72352	 -5.64156	 23.26050	  3.91990	  8.20991	 -0.91582	 25.21864	714.01001	 28.70	
 20.410	-165.423	 19.70761	 -5.48538	 22.99510	  2.72292	  9.53658	 -0.86840	 25.20925	714.01001	 28.80	
 20.392	-160.496	 19.69212	 -5.26273	 22.58941	  1.57513	 10.87855	 -0.81688	 25.19640	714.08002	 28.80	
 20.401	-155.705	 19.66915	 -4.97907	 22.09126	  0.49056	 12.21130	 -0.78167	 25.19769	713.92999	 28.80	
 20.405	-150.835	 19.65587	 -4.61503	 21.46209	 -0.51046	 13.55607	 -0.73883	 25.20440	714.00000	 28.70	
 20.397	-145.903	 19.64504	 -4.16505	 20.70254	 -1.43970	 14.84657	 -0.69835	 25.20994	714.02002	 28.70	
 20.392	-141.062	 19.63334	 -3.66171	 19.83394	 -2.32140	 16.08109	 -0.67533	 25.20994	714.03003	 28.80	
 20.396	-136.227	 19.64538	 -3.05836	 18.88527	 -2.96570	 17.23997	 -0.65045	 25.20674	714.07001	 28.70	
 20.408	-131.372	 19.64956	 -2.41611	 17.83072	 -3.50596	 18.30764	 -0.64384	 25.20140	714.08002	 28.70	
 20.410	-126.511	 19.69262	 -1.71496	 16.73925	 -3.93987	 19.29416	 -0.63131	 25.20904	713.97998	 28.70	
 20.400	-121.604	 19.69138	 -0.91337	 15.51453	 -4.45705	 20.20839	 -0.62370	 25.21159	714.14001	 28.70	
 20.403	-116.741	 19.69925	 -0.04445	 14.26875	 -4.91878	 21.01669	 -0.61014	 25.22348	714.03998	 28.70	
 20.413	-111.900	 19.69974	  0.91687	 12.96426	 -5.30302	 21.68375	 -0.59560	 25.20330	714.09003	 28.70	
 20.398	-107.004	 19.72956	  1.98707	 11.60627	 -5.61953	 22.22934	 -0.59014	 25.19608	714.08002	 28.70	
 20.394	-102.132	 19.76432	  3.10251	 10.28495	 -5.85972	 22.66709	 -0.59104	 25.21218	714.19000	 28.70	
 20.403	-97.332	 19.78460	  4.26377	  8.96611	 -5.99447	 22.96842	 -0.60065	 25.20732	714.10999	 28.70	
 20.392	-92.440	 19.83061	  5.53377	  7.62331	 -6.04917	 23.14483	 -0.61092	 25.20746	713.98999	 28.70	
 20.392	-87.560	 19.85828	  6.80225	  6.32860	 -6.08484	 23.21669	 -0.60587	 25.20276	714.06000	 28.70	
 20.403	-82.668	 19.88928	  8.12777	  5.04478	 -6.04078	 23.16772	 -0.61444	 25.22161	714.07001	 28.70	
 20.394	-77.868	 19.91965	  9.44460	  3.83146	 -5.90638	 22.95750	 -0.62438	 25.20673	714.03003	 28.70	
 20.398	-72.996	 19.95563	 10.79124	  2.67021	 -5.72438	 22.62287	 -0.63971	 25.20923	713.92999	 28.70	
 20.413	-68.100	 19.96118	 12.13310	  1.52142	 -5.51892	 22.14822	 -0.66939	 25.20081	713.89001	 28.70	
 20.403	-63.259	 20.01253	 13.46866	  0.49718	 -5.17865	 21.57115	 -0.67631	 25.20673	714.02002	 28.70	
 20.400	-58.396	 20.04031	 14.75575	 -0.43215	 -4.78341	 20.85295	 -0.70402	 25.20306	714.03003	 28.70	
 20.410	-53.489	 20.06583	 15.98532	 -1.30806	 -4.36740	 20.05837	 -0.72512	 25.21362	713.94000	 28.70	
 20.408	-48.628	 20.06919	 17.15807	 -2.10343	 -3.88005	 19.10720	 -0.74797	 25.20359	714.09003	 28.70	
 20.396	-43.773	 20.09475	 18.27464	 -2.80923	 -3.29132	 18.06272	 -0.76665	 25.19672	714.09998	 28.70	
 20.392	-38.938	 20.12325	 19.30569	 -3.45759	 -2.60862	 16.92812	 -0.79777	 25.20267	714.13000	 28.70	
 20.397	-34.097	 20.15128	 20.22100	 -4.01823	 -1.82948	 15.72824	 -0.82495	 25.21107	714.16998	 28.70	
 20.405	-29.165	 20.15674	 21.03739	 -4.48104	 -0.99538	 14.46517	 -0.87628	 25.21395	714.14001	 28.70	
 20.401	-24.295	 20.16275	 21.71660	 -4.87940	 -0.03359	 13.13880	 -0.92684	 25.19801	714.12000	 28.70	
 20.392	-19.504	 20.18642	 22.29334	 -5.19824	  1.02231	 11.80607	 -0.99064	 25.19241	714.08002	 28.70	
 20.410	-14.577	 20.17900	 22.75796	 -5.45984	  2.16700	 10.43728	 -1.03736	 25.19312	714.10999	 28.70	
 20.407	 -9.736	 20.20579	 23.09683	 -5.64172	  3.36095	  9.08281	 -1.09856	 25.21741	714.09003	 28.70	
 20.401	 -4.847	 20.20419	 23.30530	 -5.77144	  4.60809	  7.71385	 -1.15199	 25.20025	714.09003	 28.70	
 20.400	  0.000	 20.19994	 23.39883	 -5.87208	  5.87078	  6.40705	 -1.20278	 25.20697	714.07001	 28.70	
 20.401	  4.847	 20.18962	 23.33865	 -5.87577	  7.18907	  5.10675	 -1.27251	 25.18825	714.19000	 28.70	
 20.407	  9.736	 20.19775	 23.20780	 -5.80853	  8.55159	  3.83999	 -1.31777	 25.21941	714.17999	 28.70	
 20.410	 14.577	 20.19498	 22.92265	 -5.64951	  9.89696	  2.67707	 -1.39539	 25.20940	714.15002	 28.70	
 20.392	 19.504	 20.20722	 22.50119	 -5.39222	 11.25136	  1.53031	 -1.44394	 25.20825	714.15997	 28.70	
 20.401	 24.295	 20.18920	 21.94715	 -5.08512	 12.58346	  0.42292	 -1.46451	 25.20812	714.19000	 28.70	
 20.405	 29.165	 20.19942	 21.27703	 -4.71513	 13.90485	 -0.56629	 -1.52439	 25.21469	714.06000	 28.70	
 20.397	 34.097	 20.20433	 20.48730	 -4.25068	 15.21515	 -1.45077	 -1.56868	 25.20925	714.08002	 28.70	
 20.392	 38.938	 20.20840	 19.58974	 -3.73179	 16.44158	 -2.23619	 -1.63520	 25.21256	714.06000	 28.70	
 20.396	 43.773	 20.23183	 18.62853	 -3.14791	 17.57956	 -2.80429	 -1.68738	 25.21813	714.14001	 28.70	
 20.408	 48.628	 20.23021	 17.55124	 -2.50592	 18.65940	 -3.43519	 -1.72096	 25.20822	714.08002	 28.70	
 20.410	 53.489	 20.22822	 16.40172	 -1.77436	 19.67695	 -3.95663	 -1.75583	 25.20852	713.98999	 28.70	
 20.400	 58.396	 20.21184	 15.17927	 -0.97381	 20.56751	 -4.42808	 -1.77594	 25.21203	714.08002	 28.70	
 20.403	 63.259	 20.19180	 13.91795	 -0.10133	 21.34921	 -4.86823	 -1.77381	 25.20582	714.09998	 28.70	
 20.413	 68.100	 20.18596	 12.61492	  0.90006	 22.01329	 -5.25069	 -1.78899	 25.19777	714.06000	 28.70	
 20.398	 72.996	 20.19800	 11.28703	  1.97448	 22.54990	 -5.49717	 -1.77650	 25.20693	713.98999	 28.70	
 20.394	 77.868	 20.20279	  9.99317	  3.08104	 22.94629	 -5.69032	 -1.79315	 25.20966	713.91998	 28.70	
 20.403	 82.668	 20.17342	  8.66510	  4.23954	 23.21599	 -5.88107	 -1.79434	 25.20056	713.97998	 28.70	
 20.392	 87.560	 20.16154	  7.32012	  5.48692	 23.36061	 -6.01340	 -1.77885	 25.19943	714.00000	 28.60	
 20.392	 92.440	 20.13913	  6.04081	  6.75850	 23.38220	 -6.05153	 -1.77679	 25.19886	713.98999	 28.70	
 20.403	 97.332	 20.14035	  4.82295	  8.06308	 23.29301	 -5.96632	 -1.79547	 25.21179	714.03998	 28.60	
 20.394	102.132	 20.15128	  3.64561	  9.37825	 23.04871	 -5.76139	 -1.77208	 25.20121	713.96997	 28.60	
 20.398	107.004	 20.11930	  2.50818	 10.71660	 22.69041	 -5.57814	 -1.74568	 25.20595	713.98999	 28.60	
 20.413	111.900	 20.08702	  1.40499	 12.06013	 22.20083	 -5.33250	 -1.73194	 25.20391	714.06000	 28.60	
 20.403	116.741	 20.06561	  0.41011	 13.36395	 21.59454	 -5.01579	 -1.71168	 25.21000	714.08002	 28.60	
 20.400	121.604	 20.04532	 -0.50004	 14.63145	 20.86283	 -4.62795	 -1.65849	 25.20584	714.00000	 28.60	
 20.410	126.511	 20.01909	 -1.34328	 15.85441	 20.04651	 -4.26407	 -1.61005	 25.19760	714.01001	 28.60	
 20.408	131.372	 19.99159	 -2.13433	 17.04098	 19.09359	 -3.80010	 -1.57832	 25.20327	713.98999	 28.60	
 20.396	136.227	 19.98275	 -2.80151	 18.15652	 18.06280	 -3.23552	 -1.53739	 25.21829	714.00000	 28.60	
 20.392	141.062	 19.94813	 -3.39207	 19.15626	 16.96597	 -2.62106	 -1.47844	 25.21315	714.06000	 28.60	
 20.397	145.903	 19.92270	 -3.90780	 20.09214	 15.76358	 -1.88656	 -1.44724	 25.21293	713.94000	 28.60	
 20.405	150.835	 19.88536	 -4.37471	 20.91875	 14.45382	 -1.00060	 -1.39319	 25.19689	713.97998	 28.60	
 20.401	155.705	 19.85226	 -4.76352	 21.63958	 13.16606	 -0.07389	 -1.34162	 25.19397	714.06000	 28.60	
 20.392	160.496	 19.83293	 -5.08469	 22.23868	 11.86582	  0.89444	 -1.28657	 25.20756	713.98999	 28.60	
 20.410	165.423	 19.80504	 -5.37322	 22.73692	 10.48333	  1.96927	 -1.21969	 25.20464	714.08002	 28.60	
 20.407	170.264	 19.76137	 -5.66366	 23.08767	  9.16069	  3.08615	 -1.14850	 25.18813	714.03003	 28.60	
 20.401	175.153	 19.74908	 -5.77857	 23.31950	  7.79430	  4.32948	 -1.07147	 25.19696	713.97998	 28.60	
  0.141	 45.000	 25.20994	 11.01876	 10.98944	 10.93476	 10.52687	  0.58518	 25.20965	713.90002	 28.60	
  4.001	128.691	 25.10322	  8.82213	 12.84287	 13.25898	  7.97247	  0.40988	 25.22301	713.94000	 28.60	
  4.002	 76.995	 25.14588	 11.50404	 10.12931	 13.86545	  7.48553	  0.52287	 25.21799	714.09998	 28.60	
  4.002	 25.892	 25.15879	 13.75762	  8.08413	 12.01123	  9.11838	  0.56968	 25.20292	714.03998	 28.60	
  4.002	-25.892	 25.17437	 13.72806	  8.13382	  9.27020	 11.86801	  0.53134	 25.22283	714.12000	 28.60	
  4.002	-76.995	 25.12156	 11.43875	 10.24129	  7.70482	 13.60981	  0.43109	 25.20181	714.14001	 28.60	
  4.001	-128.691	 25.08005	  8.77561	 12.98470	  8.30273	 12.88534	  0.34783	 25.19521	714.12000	 28.60	
  4.000	180.000	 25.06853	  7.66408	 14.17873	 10.71320	 10.33306	  0.35086	 25.19936	714.06000	 28.60	
  8.000	180.000	 24.50281	  4.21399	 17.03987	 10.16494	  9.59758	 -0.15729	 25.20436	714.08002	 28.60	
  7.991	-152.370	 24.50977	  4.84706	 16.32557	  7.26762	 12.65370	 -0.15270	 25.21198	714.03998	 28.60	
  7.997	-124.550	 24.51419	  6.65291	 14.18459	  5.14074	 15.19489	 -0.16424	 25.20153	714.07001	 28.60	
  8.006	-96.837	 24.57166	  9.32120	 11.22908	  4.22354	 16.50469	 -0.14210	 25.21088	714.08002	 28.60	
  7.988	-69.228	 24.64148	 12.39458	  8.25513	  4.58755	 16.17095	 -0.02196	 25.20519	713.96997	 28.60	
  7.997	-41.563	 24.69571	 15.09545	  5.90699	  5.91401	 14.37145	  0.02983	 25.20881	713.96997	 28.60	
  8.008	-13.821	 24.72146	 16.71652	  4.62206	  8.49672	 11.53622	  0.21673	 25.20438	714.06000	 28.60	
  8.008	 13.821	 24.72411	 16.76036	  4.57952	 11.51017	  8.51254	  0.26891	 25.22050	714.02002	 28.60	
  7.997	 41.563	 24.71465	 15.22527	  5.72747	 14.41445	  5.96217	  0.13549	 25.20451	713.96997	 28.60	
  7.988	 69.228	 24.68401	 12.58004	  7.97056	 16.37356	  4.35873	  0.05611	 25.20089	713.96997	 28.60	
  8.006	 96.837	 24.63555	  9.49961	 10.88837	 16.84811	  3.97336	 -0.00950	 25.19806	714.02002	 28.60	
  7.997	124.550	 24.58508	  6.76513	 13.88298	 15.69030	  4.78962	 -0.05105	 25.19560	714.00000	 28.60	
  7.991	152.370	 24.52987	  4.91458	 16.13460	 13.21227	  6.80891	 -0.10031	 25.19905	713.96002	 28.60	
 12.009	161.059	 23.48743	  1.21177	 18.90106	 12.49928	  5.60846	 -0.63407	 25.20179	713.92999	 28.60	
 12.013	142.081	 23.51596	  2.39261	 17.15479	 15.45550	  3.17301	 -0.65636	 25.20288	713.88000	 28.60	
 12.006	123.113	 23.58209	  4.44050	 14.56161	 17.78314	  1.52794	 -0.60777	 25.19181	713.90997	 28.60	
 12.007	104.200	 23.64501	  7.11402	 11.49819	 19.16031	  0.64867	 -0.59876	 25.21324	713.83002	 28.60	
 11.989	 85.301	 23.71099	 10.23537	  8.41833	 19.38672	  0.55405	 -0.57709	 25.21142	713.84998	 28.60	
 12.013	 66.294	 23.71183	 13.38002	  5.51531	 18.47307	  1.10124	 -0.52758	 25.19732	713.90997	 28.60	
 12.012	 47.388	 23.72683	 16.18720	  3.23170	 16.51492	  2.58751	 -0.48886	 25.19018	713.76001	 28.60	
 11.990	 28.440	 23.74291	 18.26298	  1.68933	 13.70987	  4.80885	 -0.32011	 25.19970	713.91998	 28.60	
 11.991	  9.464	 23.74318	 19.34212	  0.95908	 10.60227	  7.62812	 -0.35182	 25.19181	713.84003	 28.50	
 11.991	 -9.464	 23.76188	 19.29105	  1.00715	  7.46374	 10.75291	 -0.40142	 25.19605	713.89001	 28.50	
 11.990	-28.440	 23.72245	 18.09898	  1.81894	  4.62742	 13.87363	 -0.49208	 25.18623	713.87000	 28.60	
 12.012	-47.388	 23.67252	 15.90503	  3.49747	  2.42184	 16.54259	 -0.59675	 25.20828	713.85999	 28.60	
 12.013	-66.294	 23.60938	 13.01143	  5.94528	  1.11455	 18.38103	 -0.60491	 25.18546	713.91998	 28.50	
 11.989	-85.301	 23.55915	  9.84776	  8.89478	  0.70121	 19.13453	 -0.65523	 25.19071	713.83002	 28.50	
 12.007	-104.200	 23.49084	  6.83607	 12.02289	  0.84993	 18.73801	 -0.63805	 25.20158	713.90997	 28.50	
 12.006	-123.113	 23.40807	  4.25919	 15.01820	  1.84045	 17.19970	 -0.65779	 25.18580	713.94000	 28.60	
 12.013	-142.081	 23.38942	  2.31386	 17.49831	  3.64568	 14.74605	 -0.65429	 25.17959	713.94000	 28.50	
 12.009	-161.059	 23.41895	  1.13569	 19.07104	  6.24136	 11.76307	 -0.64285	 25.19698	713.92999	 28.50	
 16.000	180.000	 21.92350	 -2.44757	 21.63325	  8.14812	  7.29939	 -1.00320	 25.19461	713.84003	 28.50	
 15.990	-165.604	 21.90300	 -2.18166	 21.28507	  5.09730	 10.42530	 -0.91668	 25.19166	713.84998	 28.50	
 16.002	-151.165	 21.85382	 -1.43264	 20.09362	  2.34899	 13.60258	 -0.82583	 25.19530	713.94000	 28.50	
 16.002	-136.836	 21.85227	 -0.08392	 18.11369	  0.19743	 16.47364	 -0.77341	 25.19175	713.88000	 28.50	
 15.995	-122.439	 21.86394	  1.76907	 15.50375	 -1.38318	 18.80850	 -0.68998	 25.19113	713.90997	 28.50	
 15.993	-107.966	 21.93050	  4.19926	 12.46649	 -2.37402	 20.48171	 -0.68854	 25.19311	713.90997	 28.50	
 16.005	-93.629	 21.99209	  7.05468	  9.30782	 -2.76975	 21.25310	 -0.70538	 25.17967	714.02002	 28.50	
 15.992	-79.234	 22.06588	 10.18675	  6.25309	 -2.67237	 21.18021	 -0.73342	 25.18850	713.85999	 28.50	
 16.009	-64.774	 22.11843	 13.34169	  3.47490	 -2.14890	 20.17502	 -0.75819	 25.18491	713.90997	 28.50	
 15.997	-50.364	 22.18795	 16.29217	  1.16284	 -0.92659	 18.32553	 -0.84157	 25.17938	713.85999	 28.50	
 15.997	-36.045	 22.23584	 18.73697	 -0.63123	  0.81657	 15.82596	 -0.87838	 25.18908	713.88000	 28.50	
 16.000	-21.597	 22.28017	 20.50871	 -1.79176	  3.23356	 12.81699	 -0.86496	 25.19768	713.90997	 28.50	
 16.003	 -7.169	 22.30170	 21.44807	 -2.36407	  6.13126	  9.58933	 -0.89994	 25.19363	713.91998	 28.50	
 16.003	  7.169	 22.29768	 21.51169	 -2.49367	  9.27005	  6.44477	 -0.91867	 25.19978	713.90002	 28.50	
 16.000	 21.597	 22.28162	 20.68871	 -2.00452	 12.43130	  3.62321	 -0.88204	 25.20134	713.96002	 28.50	
 15.997	 36.045	 22.28761	 19.04228	 -0.94173	 15.50883	  1.18120	 -0.96191	 25.18806	713.94000	 28.50	
 15.997	 50.364	 22.29039	 16.66748	  0.74766	 18.15169	 -0.71451	 -1.09984	 25.19782	713.97998	 28.50	
 16.009	 64.774	 22.27212	 13.76407	  2.94976	 20.13012	 -1.92625	 -1.14767	 25.18874	713.85999	 28.50	
 15.992	 79.234	 22.25564	 10.67380	  5.57593	 21.28292	 -2.61210	 -1.18901	 25.19225	713.96002	 28.50	
 16.005	 93.629	 22.21825	  7.47426	  8.59994	 21.57290	 -2.85468	 -1.22066	 25.19406	713.89001	 28.50	
 15.993	107.966	 22.18887	  4.54137	 11.73796	 20.93875	 -2.38228	 -1.17298	 25.18698	713.98999	 28.50	
 15.995	122.439	 22.12492	  2.10822	 14.78635	 19.44891	 -1.56436	 -1.16337	 25.18312	713.97998	 28.50	
 16.002	136.836	 22.05551	  0.11600	 17.53157	 17.20471	 -0.23439	 -1.18094	 25.17581	713.90997	 28.50	
 16.002	151.165	 22.00680	 -1.27947	 19.70906	 14.43150	  1.81600	 -1.10800	 25.19773	714.03998	 28.50	
 15.990	165.604	 21.95814	 -2.10110	 21.07965	 11.32228	  4.35100	 -1.03824	 25.18386	713.94000	 28.50	
 20.003	168.362	 19.98661	 -5.23245	 22.80367	  9.79224	  2.89400	 -1.18134	 25.17616	714.02002	 28.50	
 20.008	156.764	 20.04580	 -4.52173	 21.64806	 12.93233	  0.39777	 -1.30885	 25.17708	714.01001	 28.50	
 20.000	145.147	 20.10056	 -3.52225	 19.82310	 15.92305	 -1.73561	 -1.41731	 25.16853	713.87000	 28.50	
 19.995	133.545	 20.19253	 -2.14996	 17.51089	 18.57367	 -3.28560	 -1.52398	 25.18577	713.92999	 28.50	
 20.009	121.926	 20.24161	 -0.29428	 14.72438	 20.69946	 -4.33806	 -1.61600	 25.17627	713.88000	 28.50	
 20.005	110.327	 20.30291	  2.01167	 11.69053	 22.23938	 -5.12385	 -1.67866	 25.19513	713.94000	 28.50	
 19.989	 98.733	 20.34666	  4.69384	  8.56687	 23.07218	 -5.61070	 -1.72671	 25.18519	713.91998	 28.50	
 19.999	 87.075	 20.36023	  7.60566	  5.52145	 23.18978	 -5.71054	 -1.74147	 25.17971	714.08002	 28.50	
 19.992	 75.457	 20.39222	 10.72352	  2.74747	 22.60822	 -5.31749	 -1.73341	 25.18760	714.00000	 28.50	
 20.009	 63.844	 20.38317	 13.79151	  0.27477	 21.32355	 -4.63257	 -1.72621	 25.18789	713.96002	 28.50	
 19.989	 52.269	 20.43351	 16.66290	 -1.66792	 19.33736	 -3.55346	 -1.68762	 25.19024	713.92999	 28.50	
 19.999	 40.602	 20.40048	 19.18524	 -3.26480	 16.80669	 -2.16217	 -1.60238	 25.18644	713.91998	 28.50	
 20.004	 29.051	 20.38622	 21.16671	 -4.42511	 13.89844	 -0.27714	 -1.45295	 25.18314	713.92999	 28.50	
 20.005	 17.433	 20.40355	 22.55023	 -5.21733	 10.79466	  2.23151	 -1.38271	 25.19957	713.85999	 28.50	
 20.006	  5.780	 20.40135	 23.18483	 -5.56977	  7.60263	  5.04511	 -1.26646	 25.20464	713.91998	 28.50	
 20.006	 -5.780	 20.39440	 23.11644	 -5.44890	  4.55173	  8.10741	 -1.14787	 25.18625	713.95001	 28.50	
 20.005	-17.433	 20.38038	 22.36421	 -5.00573	  1.73880	 11.29965	 -1.01310	 25.18487	713.90997	 28.50	
 20.004	-29.051	 20.35240	 20.91987	 -4.18037	 -0.71073	 14.44362	 -0.88290	 25.17992	713.92999	 28.50	
 19.999	-40.602	 20.31941	 18.88124	 -2.94343	 -2.60498	 17.28743	 -0.78821	 25.19297	713.88000	 28.50	
 19.989	-52.269	 20.29038	 16.26235	 -1.19854	 -3.98302	 19.72685	 -0.73713	 25.18935	713.94000	 28.50	
 20.009	-63.844	 20.20583	 13.34146	  0.89143	 -4.93963	 21.51245	 -0.69448	 25.18666	713.82001	 28.50	
 19.992	-75.457	 20.14214	 10.20583	  3.48003	 -5.52642	 22.63684	 -0.63251	 25.18919	713.95001	 28.50	
 19.999	-87.075	 20.06922	  7.08186	  6.36978	 -5.80112	 23.06453	 -0.60992	 25.20071	713.92999	 28.50	
 19.989	-98.733	 19.99895	  4.12890	  9.46642	 -5.67933	 22.74515	 -0.60320	 25.20615	713.90002	 28.50	
 20.005	-110.327	 19.92750	  1.49954	 12.57451	 -5.11875	 21.74341	 -0.59887	 25.19222	713.84998	 28.50	
 20.009	-121.926	 19.88970	 -0.71014	 15.58479	 -4.17292	 20.05223	 -0.62594	 25.19812	713.97998	 28.50	
 19.995	-133.545	 19.86483	 -2.43755	 18.25237	 -3.03779	 17.79689	 -0.64478	 25.19842	713.98999	 28.50	
 20.000	-145.147	 19.87562	 -3.80380	 20.47073	 -1.29684	 15.04894	 -0.71810	 25.20124	713.87000	 28.50	
 20.008	-156.764	 19.91917	 -4.77324	 22.10315	  0.94553	 11.98398	 -0.84605	 25.21436	713.90002	 28.50	
 20.003	-168.362	 19.95722	 -5.31662	 23.05475	  3.61855	  8.84014	 -0.92636	 25.22223	713.78998	 28.50	
 20.000	180.000	 19.98096	 -5.54311	 23.30422	  6.62220	  5.76917	 -1.03898	 25.21738	713.79999	 28.50	
