FileType=PCF
NHL=14
Date=05/30/19	12:19:17
Facility=APL
Serial=16071-6
Customer=NASA
NP=6
Mach=0.550000
Calibration=1:1
CalPts=490
TstPts=95
PortNumbering=AP Standard
Units=Torr C m/s kg/m^3 deg mm 
Theta[deg]	Phi[deg]	P1[Torr]	P2[Torr]	P3[Torr]	P4[Torr]	P5[Torr]	P6[Torr]	Pt[Torr]	Ps[Abs,Torr]	Ts[C]	
  0.000	  0.000	161.80653	 76.87574	 78.55190	 73.51577	 78.36788	  6.40641	161.70091	702.03003	 41.10	
  1.691	128.401	161.85555	 72.19582	 83.37412	 79.69875	 72.16199	  6.33559	161.77011	702.14001	 41.10	
  1.692	 77.194	161.88884	 78.73685	 76.82800	 81.31061	 70.63504	  6.37005	161.79123	702.15002	 41.00	
  1.699	 26.182	161.92775	 84.17261	 71.45467	 77.02372	 74.70418	  6.33809	161.84058	702.03003	 41.00	
  1.699	-26.182	161.86209	 83.73201	 71.39078	 69.88573	 81.59969	  6.28291	161.78424	702.09998	 41.10	
  1.692	-77.194	161.86665	 78.30304	 76.59885	 65.64188	 85.96938	  6.21573	161.81967	701.98999	 41.10	
  1.691	-128.401	161.84596	 71.85380	 83.20338	 67.15571	 84.48235	  6.22991	161.83948	702.03003	 41.10	
  1.700	180.000	161.87631	 69.09922	 86.33573	 73.31988	 78.30406	  6.27694	161.85730	701.95001	 41.10	
  3.400	180.000	161.56712	 60.75417	 93.99336	 72.67937	 77.88176	  5.77691	161.91013	702.04999	 41.20	
  3.388	-152.325	161.42957	 62.45281	 91.85809	 65.38721	 85.20291	  5.75133	161.84929	702.09998	 41.20	
  3.397	-124.529	161.44522	 67.10989	 86.75699	 59.85223	 91.09241	  5.74765	161.88353	702.06000	 41.20	
  3.399	-96.763	161.52850	 73.96629	 79.65514	 57.36125	 93.83648	  5.74982	161.90179	702.50000	 41.20	
  3.394	-69.283	161.65753	 81.50260	 72.32088	 58.25825	 92.81202	  5.80379	161.90480	702.73999	 41.20	
  3.400	-41.398	161.74742	 87.99303	 66.14935	 62.45798	 88.06969	  5.80144	161.89636	702.70001	 41.20	
  3.401	-14.021	161.87991	 91.71201	 62.87015	 69.17616	 81.21348	  5.88435	161.93181	702.00000	 41.20	
  3.401	 14.021	161.96536	 92.06606	 62.88654	 77.06429	 73.64294	  5.94779	161.95721	702.07001	 41.30	
  3.400	 41.398	161.99352	 88.92094	 66.35912	 83.88001	 67.27290	  5.99553	161.96056	702.40997	 41.30	
  3.394	 69.283	162.00139	 82.84464	 72.62380	 88.40894	 63.29728	  6.06207	161.96519	702.09998	 41.30	
  3.399	 96.763	162.02701	 74.89565	 80.12028	 89.35399	 62.71939	  6.09443	162.01489	702.17999	 41.30	
  3.397	124.529	161.91136	 67.84755	 87.23230	 86.42328	 65.22416	  6.01715	162.00870	702.71002	 41.30	
  3.388	152.325	161.78525	 62.81342	 92.24653	 80.37521	 70.69319	  5.87807	161.97905	702.79999	 41.30	
  5.099	161.165	161.00211	 54.03869	100.08308	 79.67014	 69.51183	  5.17881	161.95505	702.73999	 41.30	
  5.109	142.013	161.26572	 57.76511	 96.38510	 86.98956	 62.97343	  5.34128	162.03371	702.77002	 41.40	
  5.095	123.033	161.44292	 63.46071	 90.64736	 92.80696	 58.08059	  5.45278	162.04819	702.76001	 41.40	
  5.105	104.191	161.55458	 70.41556	 83.13284	 96.18427	 55.00810	  5.52482	162.04135	702.78003	 41.40	
  5.093	 85.207	161.66620	 78.34200	 75.38711	 96.82382	 54.44831	  5.54349	162.05591	702.85999	 41.40	
  5.104	 66.290	161.71327	 86.24007	 67.92416	 94.97241	 56.21020	  5.55055	162.06235	702.82001	 41.40	
  5.094	 47.331	161.74667	 92.34063	 61.64320	 90.27963	 59.93179	  5.47950	162.09328	702.71002	 41.40	
  5.089	 28.397	161.68904	 97.10770	 57.12638	 83.82109	 65.41641	  5.41245	162.05537	702.75000	 41.40	
  5.096	  9.576	161.63925	 99.67841	 54.67629	 76.41471	 72.67149	  5.35399	162.07645	702.72998	 41.40	
  5.096	 -9.576	161.48566	 99.55809	 54.65287	 67.98060	 80.46637	  5.32918	162.03078	702.71997	 41.50	
  5.089	-28.397	161.37047	 96.41441	 56.97725	 60.51754	 88.13725	  5.27753	162.07361	702.71997	 41.60	
  5.094	-47.331	161.21638	 91.45551	 61.38845	 55.00550	 94.67941	  5.23579	162.09038	702.75000	 41.60	
  5.104	-66.290	161.12570	 84.93579	 67.66190	 50.99380	 99.11923	  5.23726	162.14397	702.88000	 41.60	
  5.093	-85.207	160.92210	 76.99303	 75.03938	 49.09051	101.06427	  5.17472	162.11363	702.76001	 41.60	
  5.105	-104.191	160.82822	 69.37808	 82.70879	 49.64288	100.44947	  5.15232	162.16565	702.66998	 41.60	
  5.095	-123.033	160.76085	 62.56641	 89.91965	 52.79031	 97.17894	  5.11773	162.13367	702.66998	 41.60	
  5.109	-142.013	160.76961	 57.17744	 95.99637	 57.65438	 91.81671	  5.12808	162.14471	702.06000	 41.60	
  5.099	-161.165	160.84854	 53.87995	 99.87410	 64.01790	 84.66804	  5.12387	162.12024	702.76001	 41.70	
  5.100	180.000	160.99738	 52.82037	101.34450	 71.85802	 77.04398	  5.13533	162.13066	702.77002	 41.60	
  6.800	180.000	159.77744	 44.84021	108.24587	 70.23574	 75.91943	  4.53613	162.14209	702.66998	 41.70	
  6.796	-166.229	159.58945	 45.42918	107.18015	 62.64221	 83.24046	  4.58083	162.15146	702.71002	 41.60	
  6.808	-152.311	159.40630	 47.60011	104.20879	 56.29866	 90.56667	  4.59707	162.14063	702.63000	 41.70	
  6.795	-138.383	159.38162	 51.51600	 99.68158	 50.65947	 97.06828	  4.55687	162.16864	702.71997	 41.70	
  6.792	-124.591	159.37404	 56.75280	 93.83264	 46.05431	102.12062	  4.55453	162.20212	702.70001	 41.70	
  6.787	-110.754	159.41011	 63.02434	 86.74879	 42.85584	105.84084	  4.56041	162.16985	702.72998	 41.70	
  6.800	-96.985	159.52446	 70.17030	 79.39169	 41.11969	107.80897	  4.58636	162.19159	702.64001	 41.70	
  6.800	-83.015	159.67384	 77.60567	 71.97214	 41.07958	107.89882	  4.62482	162.19762	702.57001	 41.70	
  6.787	-69.246	159.84209	 85.36832	 64.93649	 42.75769	105.95741	  4.69986	162.19292	702.59003	 41.70	
  6.792	-55.409	160.12558	 91.94725	 58.70816	 46.23320	102.28719	  4.75021	162.24684	702.57001	 41.70	
  6.795	-41.617	160.32628	 97.93618	 53.52294	 50.84834	 97.08472	  4.76669	162.26482	702.77002	 41.70	
  6.808	-27.689	160.48677	103.07795	 49.64679	 56.23134	 90.54208	  4.81793	162.23114	702.58002	 41.80	
  6.796	-13.771	160.69290	105.96326	 47.13625	 63.03628	 83.03042	  4.83949	162.26784	702.67999	 41.80	
  6.800	  0.000	160.80531	107.00997	 46.27110	 71.07173	 75.50539	  4.80378	162.23404	702.64001	 41.80	
  6.796	 13.771	160.93700	106.30212	 47.26048	 79.04831	 67.77753	  4.80671	162.25395	702.67999	 41.80	
  6.808	 27.689	160.97827	103.85086	 49.86473	 86.35144	 61.09160	  4.86135	162.23170	702.65997	 41.80	
  6.795	 41.617	161.03236	 99.45425	 53.83456	 93.02171	 55.46333	  4.82876	162.23734	702.63000	 41.80	
  6.792	 55.409	161.04388	 93.24798	 59.04792	 98.25937	 51.26997	  4.85830	162.22887	702.56000	 41.80	
  6.787	 69.246	160.99611	 86.88653	 65.35410	101.96159	 48.07223	  4.87964	162.21315	702.65002	 41.80	
  6.800	 83.015	160.99785	 79.42676	 72.46243	103.89562	 46.39934	  4.89496	162.23755	702.67999	 41.70	
  6.800	 96.985	160.90642	 71.57210	 79.98139	103.88301	 46.35568	  4.88397	162.24672	702.65002	 41.70	
  6.787	110.754	160.79477	 64.36262	 87.83820	101.89191	 48.10685	  4.91990	162.24213	702.63000	 41.80	
  6.792	124.591	160.67189	 57.68183	 94.86861	 98.10172	 51.43810	  4.89446	162.28542	702.64001	 41.80	
  6.795	138.383	160.50813	 52.49762	100.72443	 92.64587	 55.97382	  4.81935	162.29442	702.62000	 41.90	
  6.808	152.311	160.33972	 48.32145	105.21419	 85.95712	 61.82728	  4.70235	162.31209	702.64001	 41.90	
  6.796	166.229	160.16646	 45.93482	107.81969	 78.30838	 68.67316	  4.59479	162.30292	702.65997	 41.90	
  8.491	168.704	158.43358	 37.50728	114.62431	 76.74506	 67.03099	  4.32190	162.29422	702.65002	 41.90	
  8.502	157.493	158.64645	 39.46767	112.34886	 84.64085	 60.00061	  4.39643	162.28270	702.64001	 41.90	
  8.494	146.194	158.90045	 42.87893	108.50654	 91.98965	 53.68340	  4.52826	162.30350	702.67999	 41.90	
  8.495	135.039	159.06203	 47.32485	103.42518	 98.44104	 48.39152	  4.59125	162.26024	702.70001	 41.90	
  8.487	123.723	159.29013	 52.95151	 97.25875	103.71260	 44.02574	  4.57493	162.30426	702.64001	 41.90	
  8.492	112.575	159.45145	 59.35255	 90.33273	107.60528	 40.85023	  4.54679	162.31746	702.71997	 41.80	
  8.510	101.220	159.63188	 66.58297	 82.16104	110.14111	 38.93102	  4.45247	162.31897	702.69000	 41.90	
  8.500	 90.000	159.72278	 74.25204	 74.61879	110.94528	 38.44375	  4.42144	162.28159	702.57001	 41.80	
  8.510	 78.780	159.78256	 82.23667	 67.09238	110.15881	 38.86569	  4.43056	162.31778	702.66998	 41.80	
  8.492	 67.425	159.83745	 89.63097	 60.12030	107.62778	 41.00291	  4.42976	162.30968	702.77002	 41.90	
  8.487	 56.277	159.85587	 95.94482	 54.07425	103.77826	 44.25240	  4.42620	162.31676	702.70001	 41.90	
  8.495	 44.961	159.85982	102.48296	 48.69859	 98.67015	 48.50034	  4.44704	162.32404	702.75000	 41.90	
  8.494	 33.806	159.80092	107.49769	 44.32026	 92.30594	 53.68409	  4.50646	162.34264	702.67999	 41.90	
  8.502	 22.507	159.75693	110.94127	 40.99511	 85.28943	 59.37278	  4.54345	162.31844	702.73999	 41.90	
  8.491	 11.296	159.68217	112.96378	 38.95228	 77.59086	 66.23566	  4.57891	162.34131	702.59998	 41.90	
  8.500	  0.000	159.48689	113.57343	 38.20021	 69.10803	 73.93873	  4.58591	162.30005	702.60999	 41.90	
  8.491	-11.296	159.31895	112.47980	 38.76497	 61.38354	 81.75290	  4.68879	162.32036	702.65002	 41.90	
  8.502	-22.507	159.13428	109.94745	 40.51273	 54.64461	 89.57764	  4.70755	162.33815	702.65997	 41.90	
  8.494	-33.806	158.92090	106.33786	 43.85147	 48.64960	 96.59690	  4.69378	162.33614	702.48999	 41.90	
  8.495	-44.961	158.70389	101.15816	 48.27584	 43.40596	102.72189	  4.63498	162.30496	702.59998	 41.90	
  8.487	-56.277	158.51703	 94.41776	 53.58735	 38.89477	107.91084	  4.62533	162.33414	702.66998	 41.90	
  8.492	-67.425	158.26662	 87.49047	 59.79916	 35.59747	111.72958	  4.56317	162.31631	702.62000	 41.90	
  8.510	-78.780	158.02278	 79.77771	 66.72684	 33.44114	114.16322	  4.49202	162.35403	702.59998	 41.90	
  8.500	-90.000	157.90076	 72.23611	 74.17767	 32.91977	114.90119	  4.42429	162.38492	702.71997	 41.90	
  8.510	-101.220	157.78603	 64.82324	 81.76128	 33.51949	114.11962	  4.37715	162.38235	702.65002	 42.00	
  8.492	-112.575	157.56151	 57.78495	 89.68185	 35.37822	111.49780	  4.33088	162.31502	702.64001	 42.00	
  8.487	-123.723	157.60091	 51.76802	 96.42776	 38.76275	107.50529	  4.29641	162.36598	702.59998	 42.00	
  8.495	-135.039	157.63519	 46.26211	102.97369	 43.12993	102.35434	  4.27811	162.36429	702.67999	 42.10	
  8.494	-146.194	157.68172	 41.90596	108.02191	 48.28038	 96.50706	  4.35989	162.37740	702.57001	 42.10	
  8.502	-157.493	157.86029	 38.67601	112.00088	 54.63288	 89.28368	  4.39265	162.40831	702.64001	 42.10	
  8.491	-168.704	158.06320	 36.99709	114.43021	 61.32140	 81.96659	  4.38482	162.39171	702.60999	 42.10	
  8.500	180.000	158.29709	 36.72995	115.36491	 68.63596	 74.39389	  4.28528	162.39304	702.65997	 42.10	
 10.200	180.000	156.02939	 28.45139	121.58260	 66.76233	 72.42161	  4.39333	162.34299	702.58002	 42.20	
 10.191	-170.497	155.78960	 28.49399	120.76271	 59.78502	 80.01250	  4.44043	162.33955	702.62000	 42.20	
 10.210	-161.034	155.55309	 29.63336	118.78643	 52.50558	 87.54944	  4.49119	162.39099	702.66998	 42.30	
 10.194	-151.526	155.29858	 32.11538	115.31287	 45.90622	 94.95478	  4.40640	162.33963	702.66998	 42.30	
 10.190	-142.105	155.18256	 35.83102	110.82706	 40.06084	101.63538	  4.33319	162.35274	702.59998	 42.30	
 10.215	-132.646	155.17897	 40.68307	105.31809	 35.07912	107.51640	  4.37618	162.39439	702.66998	 42.30	
 10.203	-123.092	155.16100	 46.20999	 98.88640	 31.07185	112.73930	  4.45298	162.38058	702.71002	 42.30	
 10.192	-113.678	155.18526	 52.34378	 91.77315	 27.84189	116.61507	  4.42364	162.34506	702.60999	 42.40	
 10.208	-104.249	155.36334	 59.24586	 83.67099	 25.69415	119.46180	  4.52439	162.42241	702.62000	 42.40	
 10.210	-94.801	155.43256	 66.47010	 75.99872	 24.65896	120.96156	  4.54406	162.37328	702.54999	 42.40	
 10.210	-85.199	155.60706	 74.05239	 68.47253	 24.57265	121.10045	  4.60790	162.42497	702.59003	 42.30	
 10.208	-75.751	155.78366	 81.71899	 61.13450	 25.45454	119.72562	  4.65388	162.39253	702.59998	 42.30	
 10.192	-66.322	156.08130	 89.14146	 54.45298	 27.71763	117.23633	  4.70645	162.43092	702.46997	 42.30	
 10.203	-56.908	156.33076	 96.44193	 48.12100	 30.95665	113.37426	  4.78097	162.43761	702.51001	 42.30	
 10.215	-47.354	156.54550	103.47703	 42.51696	 35.31289	108.31720	  4.74786	162.41414	702.53003	 42.40	
 10.190	-37.895	156.81204	108.95078	 37.91993	 40.50468	102.25497	  4.80097	162.42828	702.57001	 42.40	
 10.194	-28.474	157.04640	113.49455	 34.20187	 46.39342	 95.40088	  4.80236	162.40726	702.48999	 42.40	
 10.210	-18.966	157.18810	117.10509	 31.46940	 52.96313	 87.85801	  4.77797	162.39754	702.54999	 42.40	
 10.191	 -9.503	157.43118	119.18554	 30.28514	 60.12983	 80.19899	  4.73217	162.38596	702.42999	 42.40	
 10.200	  0.000	157.61426	120.09332	 29.75788	 67.18290	 72.20963	  4.71542	162.39749	702.44000	 42.40	
 10.191	  9.503	157.82198	119.59991	 30.28662	 75.70205	 64.56413	  4.63296	162.40321	702.53003	 42.50	
 10.210	 18.966	157.92348	117.73611	 32.05408	 83.77969	 57.58012	  4.61941	162.40826	702.56000	 42.40	
 10.194	 28.474	157.97661	114.53301	 34.86713	 91.13242	 51.39257	  4.56570	162.40263	702.53998	 42.40	
 10.190	 37.895	158.08183	110.37329	 38.59735	 98.09962	 45.82494	  4.43820	162.43781	702.46997	 42.40	
 10.215	 47.354	158.09972	105.05794	 43.25602	104.23394	 40.71548	  4.37732	162.44083	702.44000	 42.40	
 10.203	 56.908	158.11963	 98.25462	 48.81577	109.25796	 36.76457	  4.30773	162.43309	702.48999	 42.30	
 10.192	 66.322	158.11388	 91.62228	 54.83618	113.24655	 33.45229	  4.32148	162.42812	702.48999	 42.30	
 10.208	 75.751	158.15442	 84.51277	 61.52370	116.21577	 31.25787	  4.33860	162.47429	702.50000	 42.40	
 10.210	 85.199	158.08066	 76.72758	 68.89759	117.49025	 30.28713	  4.29867	162.43964	702.50000	 42.40	
 10.210	 94.801	157.98790	 68.86157	 76.54901	117.43267	 30.28782	  4.32600	162.42053	702.54999	 42.40	
 10.208	104.249	157.88875	 61.14195	 84.36240	116.23121	 31.27887	  4.38131	162.47182	702.50000	 42.40	
 10.192	113.678	157.74908	 54.29268	 92.47076	113.07231	 33.38614	  4.51244	162.48610	702.53998	 42.40	
 10.203	123.092	157.52100	 47.86549	 99.41891	109.11646	 36.51917	  4.49517	162.43913	702.45001	 42.50	
 10.215	132.646	157.28580	 42.02799	105.91579	103.96126	 40.44198	  4.64785	162.42381	702.45001	 42.50	
 10.190	142.105	157.12283	 37.38739	111.39181	 97.76919	 45.49745	  4.62665	162.45168	702.53998	 42.60	
 10.194	151.526	156.83148	 33.71431	115.90190	 90.67500	 51.33508	  4.61677	162.43021	702.58002	 42.60	
 10.210	161.034	156.61176	 30.99434	119.22665	 82.89251	 57.98832	  4.49050	162.42493	702.53003	 42.50	
 10.191	170.497	156.40816	 29.28752	121.14649	 74.64432	 65.18321	  4.41330	162.46500	702.40997	 42.60	
 11.899	171.783	153.68840	 19.93261	127.14635	 72.09637	 62.87599	  4.61539	162.42415	702.40997	 42.60	
 11.890	163.610	154.00275	 21.49832	125.45892	 80.78011	 55.78469	  4.75019	162.44827	702.45001	 42.50	
 11.889	155.445	154.21156	 24.34064	122.54720	 88.63896	 48.95421	  4.83346	162.43121	702.40997	 42.50	
 11.909	147.299	154.42485	 27.80561	118.63903	 96.06599	 42.66558	  4.82468	162.46567	702.50000	 42.50	
 11.902	139.148	154.63956	 32.11582	113.70780	102.92284	 37.10760	  4.78187	162.43033	702.46002	 42.60	
 11.894	130.867	154.94171	 37.41718	107.69227	109.07581	 32.37095	  4.62260	162.45502	702.45001	 42.60	
 11.897	122.732	155.16377	 42.72944	101.08805	114.26085	 28.49597	  4.57064	162.49403	702.48999	 42.60	
 11.903	114.597	155.31125	 48.76970	 94.03352	118.25895	 25.47188	  4.64399	162.44774	702.57001	 42.60	
 11.893	106.346	155.54103	 55.81988	 85.97754	121.32849	 23.38481	  4.57508	162.47667	702.52002	 42.60	
 11.892	 98.155	155.67090	 63.06937	 78.15800	123.34048	 22.17813	  4.49546	162.44264	702.42999	 42.60	
 11.900	 90.000	155.78618	 70.67903	 70.57718	123.99259	 21.91604	  4.49874	162.48068	702.53003	 42.60	
 11.892	 81.845	155.82204	 78.48961	 63.06853	123.34837	 21.93577	  4.47295	162.44032	702.52002	 42.60	
 11.893	 73.654	155.82695	 86.24113	 56.04277	121.40369	 22.69509	  4.48690	162.42384	702.46002	 42.60	
 11.903	 65.403	155.84818	 93.61262	 49.25715	118.41915	 24.93775	  4.49739	162.46080	702.46002	 42.70	
 11.897	 57.268	155.78072	100.37415	 43.53052	114.27095	 28.94288	  4.52487	162.38258	702.51001	 42.70	
 11.894	 49.133	155.80499	107.14051	 37.71291	109.14655	 33.03426	  4.52794	162.40114	702.44000	 42.80	
 11.902	 40.852	155.73260	112.94378	 32.51928	103.13557	 37.55014	  4.61014	162.41377	702.40997	 42.90	
 11.909	 32.701	155.66293	117.64140	 28.64133	 96.52469	 43.00099	  4.66136	162.40706	702.37000	 42.90	
 11.889	 24.555	155.62627	121.40540	 25.61675	 89.18705	 49.18864	  4.72951	162.39198	702.46997	 42.90	
 11.890	 16.390	155.55147	124.14807	 23.16427	 81.69184	 55.64046	  4.78993	162.40938	702.38000	 42.90	
 11.899	  8.217	155.41692	125.83345	 21.42117	 72.97705	 62.50100	  4.81833	162.42931	702.35999	 43.00	
 11.900	  0.000	155.20863	126.17644	 21.04220	 65.25675	 70.16698	  4.93490	162.46173	702.42999	 43.00	
 11.899	 -8.217	154.98018	125.37411	 21.56293	 58.07757	 78.02571	  4.92548	162.44164	702.60999	 42.90	
 11.890	-16.390	154.84444	123.40351	 22.84940	 51.02667	 85.83778	  4.92942	162.45891	702.48999	 42.90	
 11.889	-24.555	154.60399	120.33671	 24.86696	 44.11464	 93.50908	  4.90576	162.44225	702.52002	 42.80	
 11.909	-32.701	154.34573	116.12043	 27.79206	 37.58030	100.91838	  4.97283	162.49316	702.53998	 42.80	
 11.902	-40.852	154.07271	110.89108	 31.74817	 31.79445	107.54691	  4.98437	162.48056	702.42999	 42.80	
 11.894	-49.133	153.89578	105.23401	 36.78775	 27.06103	113.40335	  4.96008	162.48613	702.53003	 42.80	
 11.897	-57.268	153.59590	 98.11585	 42.34042	 22.91244	118.12313	  4.97422	162.45270	702.45001	 42.70	
 11.903	-65.403	153.24962	 90.65119	 48.55849	 19.70215	122.19878	  4.88126	162.43086	702.53003	 42.60	
 11.893	-73.654	153.04990	 83.19054	 55.44277	 17.53692	125.06738	  4.88354	162.48671	702.46997	 42.60	
 11.892	-81.845	152.83125	 75.39869	 62.71077	 16.23679	126.70840	  4.83301	162.47900	702.39001	 42.60	
 11.900	-90.000	152.65546	 67.86695	 70.00563	 16.20857	127.26801	  4.81714	162.48282	702.51001	 42.60	
 11.892	-98.155	152.52283	 60.61736	 77.43607	 16.34146	126.45170	  4.77194	162.45134	702.47998	 42.60	
 11.893	-106.346	152.48027	 53.29991	 85.80676	 17.73249	124.47897	  4.80386	162.46997	702.54999	 42.60	
 11.903	-114.597	152.34399	 46.56791	 93.42403	 19.87816	121.47217	  4.68267	162.47876	702.60999	 42.60	
 11.897	-122.732	152.31108	 40.46449	100.59888	 23.15137	117.46361	  4.65744	162.46622	702.53003	 42.70	
 11.894	-130.867	152.36472	 34.86885	107.16046	 27.07895	112.53475	  4.70203	162.50269	702.46997	 42.70	
 11.902	-139.148	152.44321	 30.01910	113.22798	 31.78836	106.44703	  4.69120	162.50955	702.46002	 42.70	
 11.909	-147.299	152.52957	 26.33001	118.22057	 37.13444	100.18891	  4.74327	162.50229	702.56000	 42.70	
 11.889	-155.445	152.73712	 23.32788	122.11919	 43.41514	 92.92611	  4.73614	162.46147	702.33002	 42.70	
 11.890	-163.610	152.98962	 20.69822	125.07203	 50.34455	 85.41525	  4.75904	162.46469	702.16998	 42.70	
 11.899	-171.783	153.27425	 19.57232	126.92812	 57.61035	 77.76911	  4.73159	162.51016	702.34998	 42.70	
 11.900	180.000	153.46353	 19.71093	127.56287	 64.85714	 70.28465	  4.57218	162.47691	702.34998	 42.60	
 13.600	180.000	150.18983	 10.57438	133.15947	 62.28313	 67.74162	  4.88393	162.47615	702.34003	 42.60	
 13.608	-172.853	149.91638	 10.35329	132.59937	 55.18332	 74.95490	  4.98821	162.49394	702.31000	 42.70	
 13.611	-165.583	149.62987	 11.31046	130.93321	 47.77047	 82.80115	  4.93195	162.46768	702.32001	 42.70	
 13.601	-158.353	149.37097	 13.25220	128.27490	 40.63255	 90.53203	  4.85129	162.43468	702.35999	 42.70	
 13.609	-151.210	149.12982	 16.14896	124.65012	 34.17686	 97.94693	  4.87420	162.42523	702.34003	 42.80	
 13.611	-143.999	148.93130	 19.76233	120.10574	 28.47212	104.78747	  4.92357	162.44809	702.39001	 42.80	
 13.601	-136.825	148.85913	 24.73410	114.77515	 23.44198	111.11572	  4.95507	162.48744	702.39001	 42.80	
 13.596	-129.640	148.79094	 28.83114	108.65323	 18.89289	116.86914	  4.89131	162.48474	702.42999	 42.90	
 13.611	-122.431	148.77357	 34.27004	101.88165	 14.86785	121.78543	  4.97866	162.48402	702.34998	 43.00	
 13.604	-115.211	148.77127	 40.56075	 94.52319	 11.71416	125.85659	  4.99267	162.43774	702.28003	 43.00	
 13.595	-108.042	148.90944	 47.05455	 87.09869	  9.38309	129.04985	  4.98983	162.46518	702.39001	 43.00	
 13.607	-100.793	148.96097	 54.21365	 78.61606	  7.69365	131.35268	  4.96464	162.45709	702.40997	 43.00	
 13.601	-93.617	149.08102	 61.40251	 70.89584	  7.16106	132.68950	  4.96043	162.43825	702.35999	 43.00	
 13.601	-86.383	149.20891	 68.47296	 63.90211	  7.03460	132.83282	  4.95699	162.42799	702.39001	 43.10	
 13.607	-79.207	149.45128	 76.48454	 56.38065	  7.45372	131.85101	  4.97523	162.45787	702.34998	 43.10	
 13.595	-71.958	149.73103	 84.23786	 49.29525	  9.09817	129.82980	  4.97874	162.46335	702.44000	 43.10	
 13.604	-64.789	149.94020	 91.85275	 42.52368	 11.27086	126.77906	  5.01348	162.45569	702.31000	 43.10	
 13.611	-57.569	150.20222	 99.40871	 36.23029	 14.48213	122.81235	  5.07639	162.44847	702.33002	 43.10	
 13.596	-50.360	150.53021	106.50586	 30.70260	 18.64270	117.95520	  5.05820	162.46252	702.28998	 43.00	
 13.601	-43.175	150.74681	112.49695	 25.68699	 23.27159	112.24191	  5.08333	162.44496	702.46002	 43.00	
 13.611	-36.001	151.00903	118.15723	 21.46667	 28.58626	105.82357	  5.08652	162.42374	702.34998	 42.90	
 13.609	-28.790	151.31711	123.05817	 18.05306	 34.57868	 98.69437	  5.05397	162.42294	702.38000	 42.90	
 13.601	-21.647	151.52866	126.59577	 15.59778	 41.28117	 90.98676	  4.95110	162.37801	702.42999	 43.00	
 13.611	-14.417	151.74829	129.39389	 13.56351	 48.34200	 82.87878	  4.97505	162.40187	702.35999	 43.00	
 13.608	 -7.147	151.97728	131.08411	 12.62458	 55.70087	 74.87368	  4.99527	162.43268	702.39001	 43.10	
 13.600	  0.000	152.21106	131.81218	 11.83843	 62.69444	 67.61749	  5.00192	162.48740	702.39001	 43.10	
 13.608	  7.147	152.44951	131.45694	 12.25585	 70.35692	 60.52660	  4.95501	162.44066	702.28003	 43.10	
 13.611	 14.417	152.53835	130.20747	 13.81992	 78.71854	 53.20895	  4.91083	162.44057	702.28998	 43.10	
 13.601	 21.647	152.72977	127.71736	 16.10964	 86.84283	 46.41024	  4.90738	162.42656	702.37000	 43.10	
 13.609	 28.790	152.84344	124.41232	 18.96818	 94.26864	 40.10214	  4.87142	162.47635	702.19000	 43.10	
 13.611	 36.001	152.93091	119.95927	 22.45382	101.65280	 34.37194	  4.81994	162.47139	702.19000	 43.10	
 13.601	 43.175	153.05676	114.79519	 26.73875	107.96113	 29.12194	  4.81474	162.48792	702.27002	 43.10	
 13.596	 50.360	153.05161	108.85738	 32.21646	113.78467	 24.30164	  4.77228	162.41168	702.31000	 43.10	
 13.611	 57.569	152.96562	102.25146	 37.67858	118.97623	 20.13921	  4.68552	162.42686	702.23999	 43.00	
 13.604	 64.789	152.94991	 94.92702	 43.86523	123.20216	 16.80316	  4.70077	162.40448	702.25000	 43.00	
 13.595	 71.958	152.94382	 87.67934	 50.32954	126.27547	 14.32529	  4.61689	162.35077	702.15002	 43.00	
 13.607	 79.207	152.89145	 79.77962	 57.45402	128.55914	 13.17177	  4.63548	162.38774	702.16998	 43.00	
 13.601	 86.383	152.92307	 71.69111	 64.31683	129.50671	 12.71461	  4.70680	162.44339	702.21002	 43.00	
 13.601	 93.617	152.83949	 64.34843	 71.54578	129.52782	 12.59904	  4.70168	162.45897	702.12000	 43.00	
 13.607	100.793	152.70694	 57.07903	 79.33806	128.51801	 13.25029	  4.75650	162.43843	702.19000	 43.00	
 13.595	108.042	152.61140	 49.88666	 87.42487	126.24792	 14.96579	  4.87325	162.44870	702.10999	 43.00	
 13.604	115.211	152.42670	 43.66295	 95.30108	123.02770	 17.40259	  4.85765	162.43779	702.09998	 43.00	
 13.611	122.431	152.17929	 37.28892	102.52066	118.80574	 20.63544	  4.79895	162.40770	702.08002	 43.00	
 13.596	129.640	152.04939	 31.62767	109.31100	113.64561	 24.41029	  4.79045	162.46979	702.22998	 43.00	
 13.601	136.825	151.81522	 26.53629	115.31164	107.71355	 28.77768	  4.88236	162.44981	702.21997	 43.00	
 13.611	143.999	151.56299	 21.96695	120.66425	101.09026	 33.88159	  5.04322	162.44717	702.20001	 43.00	
 13.609	151.210	151.23901	 17.87564	125.22359	 93.77231	 39.79899	  5.08617	162.47955	702.29999	 43.00	
 13.601	158.353	151.08455	 14.74456	128.73930	 86.17349	 46.21213	  5.05864	162.50589	702.14001	 43.00	
 13.611	165.583	150.77538	 12.28308	131.36003	 77.53686	 53.16774	  4.91432	162.46806	702.14001	 43.10	
 13.608	172.853	150.43677	 10.93300	132.79710	 69.32510	 60.43287	  4.87700	162.43848	702.20001	 43.10	
 15.298	173.587	146.71547	  1.85347	138.00478	 66.69880	 57.65897	  4.86052	162.46992	702.20001	 43.10	
 15.291	167.167	147.01614	  3.18427	136.65250	 74.35919	 50.32341	  4.85673	162.42241	702.13000	 43.10	
 15.307	160.676	147.22487	  5.10723	134.41440	 83.00689	 43.30574	  5.00632	162.39986	702.17999	 43.10	
 15.300	154.261	147.55121	  8.31538	131.17047	 90.82278	 36.81347	  5.12166	162.44392	702.21997	 43.10	
 15.288	147.854	147.92616	 12.14945	127.06335	 98.35609	 30.80745	  5.12364	162.45650	702.09003	 43.20	
 15.293	141.428	148.22969	 16.24529	122.12155	105.51846	 25.35140	  4.90732	162.45155	702.27002	 43.20	
 15.299	134.985	148.43910	 20.72967	116.51290	112.09184	 20.50723	  4.70301	162.45790	702.23999	 43.20	
 15.305	128.583	148.56845	 25.60412	110.31176	117.96689	 16.15679	  4.67496	162.41750	702.26001	 43.20	
 15.309	122.142	148.83284	 31.25317	103.58167	123.02350	 12.26483	  4.78358	162.45564	702.25000	 43.30	
 15.304	115.711	149.05946	 37.59428	 96.29462	127.36405	  8.63206	  4.90213	162.45387	702.17999	 43.30	
 15.297	109.291	149.22269	 44.41265	 88.65276	130.72911	  6.05786	  5.00266	162.46681	702.23999	 43.30	
 15.293	102.897	149.42220	 51.43503	 80.90928	133.15576	  4.50064	  5.07473	162.49100	702.20001	 43.20	
 15.293	 96.458	149.47015	 58.18952	 72.71105	134.79158	  3.33433	  5.06007	162.46877	702.21002	 43.20	
 15.300	 90.000	149.56003	 65.50222	 64.78181	135.30354	  2.84453	  4.87516	162.46130	702.21997	 43.20	
 15.293	 83.542	149.58363	 72.41784	 58.47974	134.84642	  2.77429	  4.88060	162.44104	702.09998	 43.20	
 15.293	 77.103	149.60133	 81.05965	 51.15644	133.23589	  3.65979	  4.83280	162.40625	702.15002	 43.10	
 15.297	 70.709	149.67216	 88.71895	 44.37754	130.90182	  5.57197	  4.84635	162.45337	702.23999	 43.10	
 15.304	 64.289	149.66019	 96.10243	 37.89478	127.62578	  8.69821	  4.85308	162.47601	702.27002	 43.10	
 15.309	 57.858	149.63449	103.18436	 31.82907	123.31124	 12.42956	  4.79989	162.45335	702.14001	 43.00	
 15.305	 51.417	149.71324	110.03746	 25.88040	118.29979	 16.17486	  4.95728	162.48811	702.20001	 43.00	
 15.299	 45.015	149.69589	116.15529	 20.74474	112.38142	 20.60482	  4.94965	162.47212	702.15002	 43.00	
 15.293	 38.572	149.64253	121.60226	 16.56321	105.84983	 25.63176	  4.98005	162.42262	702.25000	 43.00	
 15.288	 32.146	149.59888	126.41977	 12.66629	 98.80888	 31.27516	  4.92667	162.43871	702.21002	 43.00	
 15.300	 25.739	149.46567	130.28531	  9.48653	 91.48589	 37.24639	  4.93031	162.45085	702.21997	 43.00	
 15.307	 19.324	149.28343	133.31972	  6.74356	 83.76797	 43.69481	  4.91104	162.46980	702.25000	 43.10	
 15.291	 12.833	149.17133	135.31863	  4.78456	 75.35058	 50.66525	  4.92062	162.47545	702.21997	 43.20	
 15.298	  6.413	148.98723	136.68243	  3.31037	 67.56025	 57.84504	  4.95621	162.48112	702.20001	 43.20	
 15.300	  0.000	148.69417	136.85390	  2.82745	 59.68420	 65.15259	  5.02153	162.40663	702.20001	 43.20	
 15.298	 -6.413	148.48985	136.26414	  3.71079	 52.80689	 72.03198	  5.01501	162.40727	702.15997	 43.30	
 15.291	-12.833	148.31546	134.68561	  4.42768	 45.67772	 79.64413	  4.91399	162.44363	702.19000	 43.30	
 15.307	-19.324	148.02710	132.33406	  6.15705	 38.35231	 87.65445	  4.88142	162.45914	702.21002	 43.40	
 15.300	-25.739	147.75868	128.97118	  8.41201	 31.57368	 95.66977	  4.92607	162.42287	702.22998	 43.40	
 15.288	-32.146	147.50667	124.71826	 11.38943	 25.36436	103.23145	  4.97762	162.42010	702.22998	 43.30	
 15.293	-38.572	147.20662	119.57946	 15.14825	 19.54037	110.09602	  5.03164	162.44124	702.21997	 43.30	
 15.299	-45.015	146.89867	113.68483	 19.50581	 14.21305	116.49294	  5.07439	162.47169	702.15002	 43.20	
 15.305	-51.417	146.69885	107.46851	 24.57719	  9.79327	122.07607	  5.05099	162.46745	702.13000	 43.20	
 15.309	-57.858	146.44098	100.22209	 30.14817	  6.05330	127.01588	  5.04393	162.47151	702.20001	 43.10	
 15.304	-64.289	146.16080	 92.39695	 36.35418	  2.81776	130.98810	  4.95482	162.45082	702.13000	 43.10	
 15.297	-70.709	145.91890	 84.84779	 43.06612	 -0.47921	134.18442	  4.91159	162.44472	702.10999	 43.10	
 15.293	-77.103	145.67567	 76.97808	 50.02563	 -2.11795	136.49409	  4.92581	162.46770	702.09003	 43.20	
 15.293	-83.542	145.52007	 69.03847	 57.41288	 -2.80929	137.70360	  4.98190	162.48994	702.06000	 43.30	
 15.300	-90.000	145.30072	 61.64198	 64.68169	 -2.30710	138.06036	  4.93339	162.47260	702.03998	 43.30	
 15.293	-96.458	145.08105	 54.84721	 71.46346	 -2.36232	137.45996	  4.90869	162.45088	702.12000	 43.30	
 15.293	-102.897	145.00391	 47.55378	 79.52596	 -0.90666	135.92883	  4.90832	162.46584	702.04999	 43.30	
 15.297	-109.291	144.93449	 40.80009	 87.51270	  1.00749	133.30913	  4.92455	162.47624	702.15002	 43.30	
 15.304	-115.711	144.84097	 34.19963	 95.43363	  3.29871	129.89862	  4.97888	162.44266	702.09998	 43.30	
 15.309	-122.142	144.82977	 28.06846	102.78807	  6.50777	125.75622	  4.96882	162.43996	702.03998	 43.30	
 15.305	-128.583	144.85312	 22.73111	109.56270	 10.32652	120.84220	  4.91882	162.44423	701.96002	 43.40	
 15.299	-134.985	144.99347	 17.81440	115.83864	 14.95967	115.31113	  4.87413	162.46117	702.09003	 43.30	
 15.293	-141.428	145.12267	 13.44967	121.55970	 19.86657	109.08116	  4.83207	162.49864	701.98999	 43.30	
 15.288	-147.854	145.20418	  9.52953	126.51742	 25.37663	102.20164	  4.81372	162.45132	702.02002	 43.30	
 15.300	-154.261	145.41406	  6.33353	130.68538	 31.34089	 94.88139	  4.76231	162.47026	701.98999	 43.30	
 15.307	-160.676	145.61134	  3.64983	134.00502	 37.86760	 87.43497	  4.77799	162.45656	702.13000	 43.30	
 15.291	-167.167	145.96228	  2.31687	136.21094	 45.14649	 79.50500	  4.88259	162.44363	702.12000	 43.40	
 15.298	-173.587	146.14653	  1.42093	137.67995	 52.46456	 71.80535	  4.95980	162.42972	702.03998	 43.40	
 15.300	180.000	146.45744	  1.55673	138.32104	 59.11977	 64.97182	  4.95103	162.46573	702.06000	 43.40	
 17.000	180.000	142.22882	 -7.46497	142.94591	 55.48086	 61.92708	  4.87372	162.47501	702.21997	 43.40	
 16.990	-174.179	142.03606	 -7.33903	142.41779	 49.12606	 68.39767	  4.91219	162.47130	702.13000	 43.40	
 17.009	-168.383	141.69194	 -6.91000	141.13451	 41.97338	 75.91367	  4.81917	162.43767	702.09998	 43.50	
 17.000	-162.596	141.45909	 -5.53537	139.10071	 34.97171	 83.78079	  4.72517	162.47849	702.07001	 43.50	
 16.990	-156.759	141.20085	 -3.27738	136.07092	 28.19595	 91.48682	  4.62816	162.50214	702.09003	 43.60	
 16.995	-150.919	140.90956	 -0.41964	132.26924	 21.94375	 98.94739	  4.60516	162.46765	701.98999	 43.60	
 16.988	-145.161	140.75380	  2.98415	127.75464	 16.41118	105.99151	  4.70922	162.48399	702.10999	 43.60	
 17.014	-139.343	140.55135	  6.98076	122.51863	 11.11335	112.67317	  4.76326	162.44945	702.00000	 43.50	
 17.007	-133.546	140.47391	 11.39400	116.57458	  6.20340	118.81013	  4.76893	162.42062	702.06000	 43.50	
 17.001	-127.699	140.43086	 16.41816	110.07385	  0.78592	124.43443	  4.79549	162.43607	702.01001	 43.50	
 17.006	-121.937	140.36609	 21.69934	103.13834	 -3.25212	129.32518	  4.82367	162.39558	702.03998	 43.40	
 17.002	-116.134	140.41338	 27.79537	 95.88051	 -6.37093	133.53609	  4.87220	162.41237	702.03998	 43.40	
 17.001	-110.310	140.44250	 34.16813	 88.08431	 -9.01514	137.10431	  4.82054	162.43898	701.96002	 43.30	
 16.988	-104.517	140.49947	 40.79363	 79.94810	 -9.84836	139.68942	  4.80400	162.42560	702.03003	 43.30	
 17.008	-98.662	140.46562	 48.03582	 71.78300	-11.35649	141.48277	  4.73534	162.36168	702.03998	 43.20	
 16.996	-92.909	140.67436	 55.10358	 64.40067	-11.86058	142.58385	  4.78961	162.45633	702.10999	 43.20	
 16.996	-87.091	140.86653	 61.35282	 58.09496	-12.22821	142.70779	  4.82719	162.42889	702.06000	 43.20	
 17.012	-81.253	141.06700	 69.21488	 50.49199	-12.27913	142.01909	  4.84090	162.42722	702.14001	 43.20	
 16.988	-75.483	141.43105	 77.25988	 43.40305	-11.19055	140.41756	  4.77341	162.45729	702.13000	 43.20	
 17.001	-69.690	141.55347	 85.11091	 36.48032	 -9.59039	138.02197	  4.78583	162.41240	702.07001	 43.30	
 17.002	-63.866	141.87450	 92.79587	 29.96813	 -7.06831	134.78622	  4.81030	162.40758	702.06000	 43.30	
 17.006	-58.063	142.17781	100.28844	 23.91594	 -3.97770	130.79652	  4.86234	162.41161	702.09998	 43.30	
 17.001	-52.301	142.45883	107.77992	 18.40387	 -0.23962	125.88748	  4.84376	162.41141	702.03998	 43.30	
 17.007	-46.454	142.67369	114.23066	 13.31407	  4.39510	120.35480	  4.88335	162.41095	702.14001	 43.30	
 17.014	-40.657	142.85168	120.23040	  8.58897	  9.98914	114.27919	  4.86523	162.43355	702.08002	 43.30	
 16.988	-34.839	143.22244	125.73605	  4.82589	 15.72374	107.24819	  4.86763	162.41663	702.04999	 43.30	
 16.995	-29.081	143.56201	130.37024	  1.43512	 21.69741	100.02528	  4.82987	162.36314	702.16998	 43.30	
 16.990	-23.241	143.89964	134.25243	 -0.97557	 28.35998	 92.43685	  4.79783	162.38666	702.15997	 43.30	
 17.000	-17.404	144.11182	137.43185	 -3.12023	 35.38573	 84.55122	  4.76751	162.37288	702.13000	 43.40	
 17.009	-11.617	144.28146	139.58313	 -4.64146	 42.54207	 76.42294	  4.81160	162.28986	702.07001	 43.40	
 16.990	 -5.821	144.57974	140.90877	 -5.11560	 49.39958	 69.12249	  4.83046	162.30247	702.08002	 43.40	
 17.000	  0.000	144.82938	141.53874	 -5.79550	 56.43319	 62.32533	  4.89514	162.35513	702.08002	 43.40	
 16.990	  5.821	145.01805	141.41100	 -5.49345	 64.30299	 54.44339	  4.89231	162.39810	702.09003	 43.40	
 17.009	 11.617	145.21201	140.27156	 -4.35102	 72.22290	 47.55604	  4.81754	162.43227	702.15002	 43.40	
 17.000	 17.404	145.38908	138.45961	 -2.47515	 80.01108	 40.51412	  4.79820	162.45108	702.20001	 43.40	
 16.990	 23.241	145.58829	135.63454	 -0.00127	 88.14894	 33.82039	  4.77184	162.39444	702.12000	 43.40	
 16.995	 29.081	145.72043	132.09695	  2.82358	 95.80875	 27.92479	  4.87606	162.43091	702.16998	 43.40	
 16.988	 34.839	145.75906	127.90830	  6.25332	103.26629	 22.31063	  4.87018	162.43596	702.12000	 43.30	
 17.014	 40.657	145.78873	122.80378	 10.39155	109.94914	 16.95739	  4.90611	162.46432	702.12000	 43.30	
 17.007	 46.454	145.85466	117.06348	 14.95634	116.25117	 12.03532	  4.86688	162.42476	702.04999	 43.40	
 17.001	 52.301	145.81458	110.71632	 20.07726	122.03752	  7.35591	  4.84404	162.40186	702.10999	 43.40	
 17.006	 58.063	145.79752	103.72039	 25.55004	127.17033	  3.35880	  4.83109	162.40826	702.04999	 43.30	
 17.002	 63.866	145.77411	 96.71329	 31.63988	131.47261	 -0.01256	  4.80530	162.40562	702.04999	 43.30	
 17.001	 69.690	145.73309	 89.25869	 38.03572	134.93695	 -2.73701	  4.76887	162.38367	702.08002	 43.30	
 16.988	 75.483	145.65198	 81.47976	 44.81114	137.39828	 -4.74924	  4.75011	162.30313	702.06000	 43.30	
 17.012	 81.253	145.60489	 73.08303	 51.79052	139.21671	 -6.19727	  4.83337	162.36189	702.03003	 43.30	
 16.996	 87.091	145.58170	 66.04742	 58.46964	140.08200	 -6.58765	  4.85300	162.38399	702.03998	 43.30	
 16.996	 92.909	145.57661	 59.30872	 65.71049	140.08690	 -6.43264	  4.92132	162.43472	702.03003	 43.20	
 17.008	 98.662	145.43269	 52.16520	 73.31925	139.23372	 -5.56396	  5.00657	162.39478	702.02002	 43.20	
 16.988	104.517	145.40689	 44.84534	 81.39873	137.27184	 -4.23397	  4.99048	162.37138	702.13000	 43.20	
 17.001	110.310	145.26137	 37.84722	 89.12883	134.71469	 -2.67476	  4.94888	162.39438	701.98999	 43.20	
 17.002	116.134	145.16331	 31.38092	 96.81847	131.18813	 -0.19915	  4.86677	162.43913	702.15002	 43.30	
 17.006	121.937	144.98909	 25.22505	104.18276	126.80422	  3.04106	  4.66039	162.42735	702.03003	 43.30	
 17.001	127.699	144.74495	 19.72088	110.84750	121.68359	  7.63610	  4.51399	162.40070	702.09003	 43.30	
 17.007	133.546	144.49406	 14.49857	117.30250	116.03136	 11.94561	  4.57157	162.43839	702.13000	 43.30	
 17.014	139.343	144.19409	  9.84061	123.08556	109.55328	 16.64391	  4.58910	162.39761	701.97998	 43.20	
 16.988	145.161	144.05475	  5.94255	128.33366	102.70594	 21.95737	  4.86726	162.46326	702.08002	 43.20	
 16.995	150.919	143.75897	  2.26532	132.78397	 95.17574	 27.62655	  5.02555	162.42505	702.07001	 43.20	
 16.990	156.759	143.54941	 -0.62580	136.44751	 87.54082	 33.76331	  5.00279	162.43025	702.08002	 43.20	
 17.000	162.596	143.14168	 -3.56657	139.44621	 78.86428	 40.32009	  4.88741	162.41248	701.96997	 43.20	
 17.009	168.383	142.75304	 -5.93328	141.51962	 71.11679	 47.17090	  4.76373	162.38791	702.08002	 43.20	
 16.990	174.179	142.51628	 -7.11751	142.68196	 63.34005	 54.45637	  4.80763	162.41495	702.04999	 43.10	
 18.709	174.675	137.74306	-15.73201	146.91655	 59.58801	 50.84877	  4.70460	162.38985	701.98999	 43.10	
 18.703	169.441	138.03201	-14.24224	145.94478	 67.35188	 43.85475	  4.65261	162.40689	702.07001	 43.10	
 18.691	164.085	138.47533	-12.16077	144.01678	 75.04658	 36.98220	  4.71901	162.39304	702.09998	 43.10	
 18.706	158.818	138.77713	 -9.87042	141.39645	 83.26328	 30.40016	  4.84672	162.43713	702.02002	 43.20	
 18.695	153.537	139.11758	 -7.21027	137.95155	 91.55145	 24.44931	  4.92813	162.43178	702.03003	 43.20	
 18.704	148.255	139.39977	 -4.06498	133.86192	 99.07027	 18.53361	  4.82272	162.43687	701.96997	 43.30	
 18.698	142.952	139.60428	 -0.56593	129.03137	106.47019	 12.93287	  4.58872	162.44086	702.03003	 43.30	
 18.699	137.625	139.90553	  3.67978	123.57169	113.09534	  7.90582	  4.43488	162.40077	702.02002	 43.40	
 18.705	132.343	140.13898	  8.23936	117.66386	119.47252	  3.21524	  4.41509	162.43762	701.96002	 43.40	
 18.713	127.067	140.35562	 13.43262	111.11347	125.15620	 -1.20669	  4.46038	162.42836	701.96002	 43.50	
 18.700	121.794	140.62068	 18.89356	104.30413	130.27101	 -5.77154	  4.61396	162.40720	702.09003	 43.60	
 18.698	116.504	140.78600	 24.83069	 97.04010	134.62486	 -8.80167	  4.74123	162.43855	702.00000	 43.70	
 18.707	111.165	140.86217	 31.24683	 89.29536	138.18842	-11.19096	  4.87124	162.33734	702.02002	 43.70	
 18.690	105.863	141.06543	 38.04107	 81.62888	141.01649	-12.54087	  4.85631	162.39757	702.06000	 43.80	
 18.696	100.583	141.15570	 45.30732	 73.70726	143.06776	-13.67989	  4.87877	162.38579	702.09003	 43.80	
 18.700	 95.309	141.22887	 52.72720	 65.87930	144.34750	-14.89886	  4.82236	162.41257	702.07001	 43.70	
 18.700	 90.000	141.24582	 59.95737	 58.26109	144.69600	-15.72896	  4.72563	162.35794	702.21002	 43.70	
 18.700	 84.691	141.35898	 65.82969	 52.13358	144.32729	-15.26787	  4.67008	162.36374	702.20001	 43.70	
 18.696	 79.417	141.30139	 73.15714	 45.12933	143.18840	-14.33904	  4.61752	162.34253	702.10999	 43.70	
 18.690	 74.137	141.43628	 81.52008	 38.17598	141.22099	-12.80774	  4.66139	162.37994	702.03003	 43.70	
 18.707	 68.835	141.43044	 89.38137	 31.48959	138.47177	-10.75340	  4.67620	162.35852	702.02002	 43.80	
 18.698	 63.496	141.45483	 96.94232	 25.15394	134.88097	 -7.99091	  4.68829	162.36044	702.00000	 43.80	
 18.700	 58.206	141.53525	103.94481	 19.39133	130.56747	 -4.69507	  4.73348	162.34035	702.02002	 43.80	
 18.713	 52.933	141.46309	110.91229	 13.87050	125.41773	 -1.19784	  4.68216	162.29599	702.15997	 43.80	
 18.705	 47.657	141.49730	117.37655	  8.88840	119.79608	  3.00379	  4.68918	162.29008	702.13000	 43.80	
 18.699	 42.375	141.48431	123.30377	  3.79092	113.36097	  7.74878	  4.71911	162.31445	702.06000	 43.90	
 18.698	 37.048	141.43564	128.77861	 -0.32961	106.76867	 12.80131	  4.76706	162.33736	702.20001	 43.90	
 18.704	 31.745	141.30927	133.37555	 -3.78769	 99.39258	 18.41762	  4.73819	162.32120	702.08002	 43.90	
 18.695	 26.463	141.26225	137.28426	 -6.85694	 91.88399	 24.55378	  4.70634	162.32596	702.12000	 43.90	
 18.706	 21.182	141.13869	140.58058	 -9.42016	 84.18153	 30.86066	  4.68127	162.38950	702.04999	 43.90	
 18.691	 15.915	140.92177	142.96649	-11.49890	 76.26343	 36.98690	  4.70669	162.36177	702.08002	 43.90	
 18.703	 10.559	140.63947	144.62439	-13.24045	 68.23236	 43.97684	  4.67443	162.34906	701.98999	 43.90	
 18.709	  5.325	140.47141	145.59904	-14.34624	 60.46408	 51.06981	  4.70028	162.32883	702.10999	 43.80	
 18.700	  0.000	140.26868	145.80058	-14.62589	 52.64560	 58.61572	  4.76062	162.35048	702.09003	 43.80	
 18.709	 -5.325	140.00433	145.20158	-14.38080	 45.19968	 66.18730	  4.76723	162.32899	702.00000	 43.70	
 18.703	-10.559	139.83972	144.08217	-13.81728	 39.35787	 72.86456	  4.77388	162.37305	702.08002	 43.70	
 18.691	-15.915	139.59659	142.03027	-12.53399	 31.97344	 81.05450	  4.66261	162.33905	701.96002	 43.70	
 18.706	-21.182	139.34254	139.30765	-10.72631	 24.93326	 88.87636	  4.67915	162.38728	702.04999	 43.70	
 18.695	-26.463	139.14502	135.59966	 -8.32634	 18.29561	 96.45329	  4.69578	162.37112	702.12000	 43.70	
 18.704	-31.745	138.82169	131.29361	 -5.41888	 11.83340	103.85989	  4.75339	162.37451	702.09998	 43.80	
 18.698	-37.048	138.41818	126.31909	 -1.90047	  5.54013	110.92436	  4.70304	162.33688	702.12000	 43.80	
 18.699	-42.375	138.21918	120.37516	  2.30292	  0.16524	117.77440	  4.74311	162.34247	702.00000	 43.90	
 18.705	-47.657	137.94160	114.46821	  6.85516	 -4.62246	123.75175	  4.72962	162.32780	702.09003	 43.90	
 18.713	-52.933	137.74857	107.80802	 11.97134	 -8.72128	129.18965	  4.73105	162.36298	702.09003	 43.90	
 18.700	-58.206	137.46443	100.28041	 17.40863	-12.25816	133.88321	  4.67157	162.34158	702.10999	 43.90	
 18.698	-63.496	137.29787	 92.79471	 23.38500	-15.07799	137.99013	  4.66637	162.34003	702.09003	 43.90	
 18.707	-68.835	136.95137	 85.07339	 29.70963	-17.52534	141.30711	  4.66471	162.32329	702.15002	 43.90	
 18.690	-74.137	136.74110	 77.19399	 36.45648	-18.94305	143.80949	  4.69270	162.33926	702.03998	 43.90	
 18.696	-79.417	136.44591	 69.04037	 43.52809	-19.93430	145.69278	  4.70384	162.37993	702.03003	 43.90	
 18.700	-84.691	136.16293	 61.21678	 50.91965	-20.82847	146.67062	  4.78343	162.37459	702.03003	 43.90	
 18.700	-90.000	135.99348	 53.56088	 58.26988	-20.78464	146.98460	  4.74815	162.39781	701.91998	 43.90	
 18.700	-95.309	135.80530	 47.96512	 64.10790	-20.53508	146.43007	  4.60497	162.36850	701.98999	 43.80	
 18.696	-100.583	135.73232	 40.69685	 72.02578	-19.50661	145.07570	  4.58973	162.34166	702.06000	 43.80	
 18.690	-105.863	135.65077	 33.92696	 79.93267	-18.07254	142.97562	  4.61082	162.37692	702.03998	 43.80	
 18.707	-111.165	135.52570	 27.38766	 87.84231	-16.77889	140.21655	  4.71257	162.39926	702.07001	 43.80	
 18.698	-116.504	135.51582	 21.21538	 95.95100	-14.44233	136.74837	  4.72003	162.38954	702.06000	 43.80	
 18.700	-121.794	135.51607	 15.24634	103.22800	-11.39355	132.53157	  4.68716	162.41214	702.03003	 43.90	
 18.713	-127.067	135.58298	  9.84120	110.24512	 -8.06062	127.55184	  4.65646	162.41742	702.02002	 44.00	
 18.705	-132.343	135.59607	  5.01795	116.79642	 -3.79966	121.95638	  4.69337	162.39992	702.08002	 44.00	
 18.699	-137.625	135.62831	  0.47201	122.84058	  1.44400	115.82990	  4.62090	162.38945	702.09003	 44.10	
 18.698	-142.952	135.77505	 -3.52208	128.38376	  7.16827	109.25140	  4.57120	162.37929	702.06000	 44.10	
 18.704	-148.255	135.99345	 -6.97475	133.20087	 12.89359	102.20020	  4.57886	162.32271	702.09003	 44.10	
 18.695	-153.537	136.23390	-10.16339	137.31525	 18.87162	 94.97816	  4.54451	162.32710	702.08002	 44.10	
 18.706	-158.818	136.40222	-12.90214	140.87010	 24.85641	 87.39379	  4.54933	162.36136	702.09998	 44.10	
 18.691	-164.085	136.75966	-14.79136	143.58679	 31.40347	 79.77087	  4.65167	162.40419	702.10999	 44.20	
 18.703	-169.441	136.89627	-16.03424	145.54156	 38.66845	 71.82568	  4.79855	162.37457	702.09998	 44.20	
 18.709	-174.675	137.15517	-16.53439	146.66975	 44.81690	 64.97365	  4.80587	162.33325	702.06000	 44.20	
 18.700	180.000	137.39218	-16.52890	147.12111	 51.53906	 58.15009	  4.78690	162.32355	702.10999	 44.30	
 20.400	180.000	132.41348	-25.25546	150.78391	 47.46106	 54.35839	  4.70856	162.38277	702.03003	 44.20	
 20.401	-175.153	131.96771	-25.32132	150.35197	 40.49365	 61.09483	  4.73754	162.37148	702.14001	 44.20	
 20.407	-170.264	131.69749	-24.74503	149.34250	 34.50988	 67.71947	  4.76305	162.36658	702.03998	 44.10	
 20.410	-165.423	131.45213	-23.99608	147.60757	 28.02347	 75.04023	  4.58683	162.30586	702.12000	 44.00	
 20.392	-160.496	131.22433	-22.13474	145.07283	 21.44466	 82.96901	  4.51691	162.29878	702.07001	 44.00	
 20.401	-155.705	130.94499	-19.66408	141.95476	 15.17796	 90.55185	  4.43290	162.30531	702.01001	 44.00	
 20.405	-150.835	130.68813	-16.90465	138.05328	  8.86939	 98.10551	  4.45462	162.31302	702.00000	 43.90	
 20.397	-145.903	130.54080	-13.49951	133.55652	  2.41207	105.33737	  4.48206	162.35612	702.15997	 43.90	
 20.392	-141.062	130.43231	 -9.83664	128.45422	 -2.91754	112.07793	  4.59755	162.31895	702.07001	 43.80	
 20.396	-136.227	130.21744	 -5.95747	122.79915	 -7.72674	118.52528	  4.57172	162.30299	702.08002	 43.80	
 20.408	-131.372	130.07935	 -1.56698	116.61800	-11.88026	124.61031	  4.59266	162.29468	702.15997	 43.80	
 20.410	-126.511	130.03360	  3.45816	109.91560	-15.73308	130.23193	  4.59948	162.30620	702.09998	 43.80	
 20.400	-121.604	130.06085	  8.69826	102.86371	-18.91612	135.08514	  4.55399	162.29607	702.06000	 43.80	
 20.403	-116.741	129.99339	 14.30568	 95.33408	-21.99292	139.33955	  4.58648	162.26685	701.96002	 43.90	
 20.413	-111.900	129.92015	 20.27850	 87.49223	-24.53045	142.92680	  4.57991	162.24718	702.00000	 43.90	
 20.398	-107.004	130.09390	 26.86409	 79.50033	-25.91495	145.85097	  4.52104	162.32028	702.00000	 43.90	
 20.394	-102.132	130.18179	 33.43999	 71.70924	-27.50786	148.09169	  4.52458	162.31197	701.95001	 44.00	
 20.403	-97.332	130.18257	 40.35299	 63.86802	-28.67635	149.60556	  4.52796	162.28665	702.03998	 44.00	
 20.392	-92.440	130.32283	 46.89479	 56.97979	-29.24134	150.40547	  4.57496	162.28656	702.03998	 44.00	
 20.392	-87.560	130.56335	 52.86233	 51.04255	-29.49025	150.47769	  4.65192	162.27397	701.98999	 44.00	
 20.403	-82.668	130.75505	 60.73435	 43.50653	-29.26712	150.03534	  4.62672	162.30258	702.00000	 44.10	
 20.394	-77.868	131.17044	 68.53748	 36.35331	-28.12509	148.80078	  4.61891	162.26073	701.97998	 44.10	
 20.398	-72.996	131.47452	 76.31865	 29.53968	-26.90439	146.84462	  4.58222	162.24187	701.92999	 44.20	
 20.413	-68.100	131.60973	 84.46674	 22.82001	-25.35554	144.24606	  4.54670	162.29955	702.03998	 44.20	
 20.403	-63.259	131.93674	 92.20244	 16.75962	-22.94750	140.84236	  4.62661	162.23828	701.97998	 44.30	
 20.400	-58.396	132.26721	 99.66422	 10.94412	-20.25398	136.79724	  4.67574	162.34998	702.02002	 44.30	
 20.410	-53.489	132.45154	107.29998	  5.41708	-16.91786	132.16292	  4.62454	162.25453	701.96997	 44.30	
 20.408	-48.628	132.75302	114.09070	  0.47162	-13.09377	126.52456	  4.64074	162.23076	701.96997	 44.40	
 20.396	-43.773	133.02051	120.31108	 -4.16030	 -8.82498	120.63573	  4.59203	162.28528	701.95001	 44.30	
 20.392	-38.938	133.23692	126.20544	 -8.24716	 -4.23536	114.05013	  4.59353	162.22990	701.98999	 44.40	
 20.397	-34.097	133.48622	131.36113	-11.94350	  1.15195	107.17817	  4.63241	162.24500	702.07001	 44.40	
 20.405	-29.165	133.84941	136.09174	-15.09388	  7.26212	 99.87819	  4.64015	162.24516	701.96997	 44.40	
 20.401	-24.295	134.17667	140.19629	-17.65065	 14.19504	 92.18737	  4.62536	162.23625	701.92999	 44.40	
 20.392	-19.504	134.60074	143.36932	-19.69264	 21.30388	 84.86462	  4.59687	162.21681	701.97998	 44.40	
 20.410	-14.577	134.79161	146.01170	-21.40680	 28.40894	 76.90967	  4.62396	162.20113	702.00000	 44.40	
 20.407	 -9.736	135.07976	147.84288	-22.74649	 35.66715	 68.96074	  4.63547	162.29471	702.02002	 44.30	
 20.401	 -4.847	135.28560	148.99345	-23.16065	 41.16449	 62.52927	  4.65412	162.31395	701.96997	 44.30	
 20.400	  0.000	135.55359	149.45355	-23.22440	 48.65379	 55.01569	  4.68605	162.24434	701.92999	 44.30	
 20.401	  4.847	135.67383	149.24870	-22.81984	 56.40657	 47.44514	  4.69766	162.21777	702.00000	 44.30	
 20.407	  9.736	135.95938	148.42209	-21.87770	 64.18641	 40.27242	  4.65724	162.23778	702.06000	 44.30	
 20.410	 14.577	136.13536	146.91742	-20.49806	 72.01892	 33.98025	  4.62600	162.21022	702.09998	 44.20	
 20.392	 19.504	136.30414	144.77737	-18.47348	 79.98756	 26.67017	  4.62635	162.26471	702.03003	 44.20	
 20.401	 24.295	136.38425	141.88849	-16.24013	 87.57153	 20.31094	  4.58282	162.20181	701.97998	 44.20	
 20.405	 29.165	136.49094	138.21796	-13.60553	 95.17838	 14.39051	  4.60419	162.21155	702.02002	 44.20	
 20.397	 34.097	136.62196	133.79910	-10.27122	102.94797	  8.84894	  4.55563	162.21977	701.97998	 44.20	
 20.392	 38.938	136.79149	128.94217	 -6.85241	109.88292	  3.69227	  4.63060	162.23814	702.01001	 44.20	
 20.396	 43.773	136.78816	123.39783	 -2.98520	116.50708	 -1.02289	  4.57048	162.25514	701.96002	 44.20	
 20.408	 48.628	136.69728	117.24969	  1.91803	122.78772	 -5.40424	  4.52179	162.21274	701.90002	 44.20	
 20.410	 53.489	136.70161	110.84005	  7.12384	128.42850	 -9.45179	  4.57740	162.24318	701.87000	 44.20	
 20.400	 58.396	136.62877	103.70642	 12.78247	133.45508	-12.84872	  4.56161	162.20914	701.92999	 44.30	
 20.403	 63.259	136.64014	 96.71121	 18.59417	137.80618	-15.88718	  4.54568	162.26393	701.87000	 44.30	
 20.413	 68.100	136.53438	 89.10133	 24.65922	141.42021	-18.69104	  4.52198	162.22113	701.92999	 44.20	
 20.398	 72.996	136.60686	 80.97894	 31.31961	144.33586	-20.76871	  4.54208	162.23132	701.92999	 44.20	
 20.394	 77.868	136.53589	 73.30355	 38.04175	146.46603	-22.43647	  4.56032	162.23505	701.92999	 44.20	
 20.403	 82.668	136.45648	 65.81396	 45.02053	147.89656	-23.63053	  4.53100	162.27890	701.98999	 44.10	
 20.392	 87.560	136.40723	 59.50416	 50.97018	148.57063	-24.42980	  4.60010	162.27434	702.00000	 44.10	
 20.392	 92.440	136.34721	 52.65070	 57.88549	148.44690	-24.40773	  4.58339	162.20628	701.90997	 44.00	
 20.403	 97.332	136.25919	 45.30643	 65.62830	147.79385	-22.99908	  4.64483	162.27379	701.98999	 44.00	
 20.394	102.132	136.29137	 38.22035	 73.37581	146.36026	-21.95336	  4.75077	162.26146	701.89001	 44.00	
 20.398	107.004	136.25307	 31.19320	 81.22466	144.13318	-20.93071	  4.72613	162.26788	701.91998	 44.00	
 20.413	111.900	136.11130	 24.53815	 89.02940	141.13687	-19.37435	  4.74377	162.25595	702.00000	 44.10	
 20.403	116.741	136.03284	 18.24957	 96.64027	137.43927	-16.91746	  4.64708	162.28693	701.90997	 44.20	
 20.400	121.604	135.81146	 12.39174	103.93771	133.06107	-13.98182	  4.57577	162.30022	701.91998	 44.20	
 20.410	126.511	135.56512	  6.86775	110.91872	127.97638	-10.48518	  4.44808	162.26404	701.89001	 44.20	
 20.408	131.372	135.24344	  1.75417	117.41988	122.34003	 -5.48927	  4.37584	162.26024	702.04999	 44.20	
 20.396	136.227	135.06494	 -2.75455	123.52084	116.06351	 -0.97722	  4.32252	162.24722	702.00000	 44.20	
 20.392	141.062	134.82014	 -6.80571	129.04852	109.51208	  3.73711	  4.42678	162.24591	702.07001	 44.20	
 20.397	145.903	134.56639	-10.59830	134.04771	102.50362	  8.97428	  4.66286	162.23483	702.07001	 44.20	
 20.405	150.835	134.25331	-13.80680	138.59126	 94.91139	 14.83945	  4.80647	162.22826	701.97998	 44.20	
 20.401	155.705	133.93019	-16.87333	142.41821	 87.05682	 20.75155	  4.83293	162.21844	701.94000	 44.20	
 20.392	160.496	133.64879	-19.54714	145.46240	 78.86593	 26.74504	  4.72513	162.22359	702.00000	 44.20	
 20.410	165.423	133.24622	-21.84218	147.97308	 71.07835	 33.16631	  4.61730	162.27950	701.94000	 44.30	
 20.407	170.264	132.88606	-23.37360	149.59763	 63.28904	 40.04454	  4.62976	162.23596	702.04999	 44.30	
 20.401	175.153	132.49954	-24.69665	150.47566	 55.14144	 47.19399	  4.68638	162.20619	701.97998	 44.30	
  0.141	 45.000	162.36156	 77.67367	 78.39928	 74.23690	 78.23956	  6.46004	162.19904	702.03998	 44.40	
  4.001	128.691	161.98215	 65.19290	 89.85892	 87.80820	 63.65468	  5.81446	162.19498	701.97998	 44.40	
  4.002	 76.995	162.14977	 81.49341	 73.89474	 91.88620	 60.13871	  5.91817	162.19936	702.03003	 44.40	
  4.002	 25.892	162.14995	 93.47953	 61.58569	 81.38455	 69.26983	  5.80133	162.21103	701.96997	 44.40	
  4.002	-25.892	161.96346	 92.93692	 61.37276	 64.23220	 85.55318	  5.63375	162.17937	701.94000	 44.40	
  4.002	-76.995	161.67606	 79.87258	 73.53815	 54.87255	 96.24536	  5.52317	162.18393	701.84003	 44.30	
  4.001	-128.691	161.56168	 64.64206	 89.31866	 58.37237	 92.49602	  5.49922	162.24893	701.96002	 44.30	
  4.000	180.000	161.69142	 58.08923	 96.81956	 72.65127	 77.64157	  5.50211	162.20625	701.94000	 44.30	
  8.000	180.000	158.73203	 39.14852	113.30576	 69.11779	 74.80252	  4.31258	162.21706	701.95001	 44.30	
  7.991	-152.370	158.27905	 42.19433	108.65061	 53.08717	 92.00039	  4.34847	162.23007	701.96997	 44.30	
  7.997	-124.550	158.08493	 52.85646	 95.90963	 41.03251	105.75040	  4.24398	162.23973	701.88000	 44.30	
  8.006	-96.837	158.29745	 68.61721	 78.77641	 35.55778	112.61707	  4.35922	162.20035	701.96002	 44.20	
  7.988	-69.228	158.64752	 86.15427	 61.90298	 37.29795	110.43300	  4.52371	162.18954	701.91998	 44.20	
  7.997	-41.563	159.17665	101.52957	 48.69723	 46.50936	100.05183	  4.58574	162.21423	702.00000	 44.20	
  8.008	-13.821	159.58337	110.19926	 41.24197	 60.62993	 83.38831	  4.68446	162.12679	701.90997	 44.30	
  8.008	 13.821	159.96835	110.70374	 41.56966	 79.39711	 65.37174	  4.57011	162.16724	701.88000	 44.40	
  7.997	 41.563	160.13783	102.64420	 49.22382	 95.86835	 51.60275	  4.53198	162.20641	701.98999	 44.40	
  7.988	 69.228	160.08249	 87.95395	 62.41521	106.40781	 42.58314	  4.50767	162.15685	702.00000	 44.40	
  8.006	 96.837	159.94635	 70.15066	 79.39881	108.68367	 40.82292	  4.52723	162.16019	701.95001	 44.50	
  7.997	124.550	159.62794	 53.98930	 96.89336	101.77559	 46.40926	  4.59522	162.19759	702.02002	 44.40	
  7.991	152.370	159.16136	 43.06198	109.04317	 87.34303	 58.46340	  4.45960	162.15494	702.00000	 44.40	
 12.009	161.059	153.64600	 21.70397	124.80370	 83.07173	 53.20325	  4.75650	162.16974	701.96002	 44.40	
 12.013	142.081	154.15236	 29.98748	115.61058	100.51810	 38.55839	  4.75902	162.19138	701.91998	 44.40	
 12.006	123.113	154.64017	 42.01688	101.27143	114.14310	 28.03722	  4.52761	162.16275	701.96997	 44.40	
 12.007	104.200	155.08484	 57.26776	 83.62622	122.19870	 22.31868	  4.47326	162.16185	702.02002	 44.40	
 11.989	 85.301	155.33789	 74.92998	 65.99605	123.89193	 21.20011	  4.45217	162.13638	701.97998	 44.40	
 12.013	 66.294	155.36008	 92.71249	 49.50295	118.84850	 23.84353	  4.46464	162.12476	701.91998	 44.40	
 12.012	 47.388	155.36566	108.50338	 35.94681	107.98631	 33.34562	  4.54882	162.12991	701.88000	 44.30	
 11.990	 28.440	155.26579	119.78764	 26.51974	 92.60699	 45.77980	  4.69689	162.12915	701.90997	 44.40	
 11.991	  9.464	155.01567	125.78241	 21.14489	 74.07011	 61.10180	  4.83412	162.14508	701.84003	 44.40	
 11.991	 -9.464	154.51489	125.23737	 21.12240	 56.62350	 78.97481	  4.86754	162.10608	701.91998	 44.40	
 11.990	-28.440	154.04362	118.62025	 25.62699	 40.39434	 97.07413	  4.91078	162.10080	701.98999	 44.50	
 12.012	-47.388	153.40509	106.44655	 35.07074	 27.36728	112.23534	  4.89640	162.10385	701.94000	 44.50	
 12.013	-66.294	152.75665	 89.73486	 48.79884	 18.88552	122.61008	  4.84790	162.11586	701.88000	 44.50	
 11.989	-85.301	152.20616	 71.75644	 65.45617	 15.61438	127.15831	  4.77897	162.10014	701.97998	 44.40	
 12.007	-104.200	151.90710	 54.67393	 83.08915	 16.67740	125.24152	  4.82651	162.12521	701.90002	 44.30	
 12.006	-123.113	151.83571	 39.75086	100.82729	 22.81342	117.25332	  4.69819	162.16331	701.81000	 44.30	
 12.013	-142.081	151.96541	 28.09853	115.08432	 33.22525	104.10496	  4.63265	162.15471	701.96997	 44.30	
 12.009	-161.059	152.49442	 20.94115	124.35020	 47.87216	 87.49352	  4.70800	162.18195	701.92999	 44.30	
 16.000	180.000	144.48996	 -2.19734	140.06172	 57.62605	 63.45233	  4.91127	162.16049	701.92999	 44.30	
 15.990	-165.604	143.89522	 -1.18082	137.45670	 41.26471	 80.72267	  4.84784	162.18001	701.97998	 44.30	
 16.002	-151.165	143.27837	  4.32352	130.12146	 25.77130	 98.37070	  4.68879	162.17352	701.76001	 44.30	
 16.002	-136.836	142.94923	 13.34802	118.35449	 13.25085	114.15984	  4.82497	162.13083	701.87000	 44.30	
 15.995	-122.439	142.78558	 25.11857	103.17415	  2.95041	126.78048	  4.89410	162.12100	701.96002	 44.20	
 15.993	-107.966	142.83665	 39.77789	 85.25665	 -3.32772	135.54869	  4.86602	162.12918	701.91998	 44.20	
 16.005	-93.629	143.11237	 56.37518	 66.78825	 -6.42071	139.53920	  4.84788	162.14435	701.98999	 44.20	
 15.992	-79.234	143.64592	 73.29536	 50.48241	 -6.72989	138.68243	  4.86280	162.16228	701.90997	 44.10	
 16.009	-64.774	144.21991	 91.62781	 34.30391	 -2.27715	132.74681	  4.86793	162.14262	701.98999	 44.10	
 15.997	-50.364	144.85530	108.96655	 20.75776	  6.74898	122.22933	  4.96995	162.14389	701.92999	 44.10	
 15.997	-36.045	145.42001	122.84292	 10.19879	 18.67014	107.93336	  4.96065	162.15819	701.90997	 44.10	
 16.000	-21.597	146.11774	132.67378	  3.36289	 33.46584	 90.31224	  4.84339	162.14052	701.94000	 44.10	
 16.003	 -7.169	146.76053	137.89197	  0.27278	 50.44784	 71.79861	  4.93279	162.15561	701.96002	 44.10	
 16.003	  7.169	147.25772	138.23509	  0.02817	 67.56977	 55.32375	  4.94222	162.17397	701.91998	 44.10	
 16.000	 21.597	147.59460	133.86383	  4.24690	 86.17346	 39.03005	  4.87184	162.12636	701.92999	 44.10	
 15.997	 36.045	147.75337	124.79833	 11.59708	103.77249	 24.83883	  4.92890	162.13826	701.96997	 44.10	
 15.997	 50.364	147.93820	111.55213	 21.97171	118.46011	 13.66387	  4.90106	162.16229	702.01001	 44.10	
 16.009	 64.774	147.85442	 95.35581	 35.92899	129.46611	  4.53390	  4.83985	162.16455	701.96997	 44.10	
 15.992	 79.234	147.79202	 77.22852	 51.75607	135.68796	 -0.49231	  4.79747	162.15038	702.03003	 44.10	
 16.005	 93.629	147.66478	 59.88990	 67.76863	137.00572	 -0.92943	  4.98358	162.20139	701.83002	 44.10	
 15.993	107.966	147.41992	 43.40841	 86.61444	133.01836	  1.95018	  5.00817	162.17172	701.90002	 44.20	
 15.995	122.439	146.99844	 28.28880	104.11437	124.02571	  8.85014	  4.70496	162.10751	701.90002	 44.20	
 16.002	136.836	146.44612	 16.15145	119.09052	110.94193	 18.82390	  4.62628	162.13716	701.98999	 44.20	
 16.002	151.165	145.78922	  6.71272	130.70158	 94.53959	 31.17390	  5.09396	162.17305	702.02002	 44.20	
 15.990	165.604	145.23663	  0.07391	137.84531	 75.53706	 46.66665	  4.88461	162.16483	702.03003	 44.30	
 20.003	168.362	134.23741	-20.42933	148.19043	 66.99405	 38.49654	  4.64901	162.20450	702.02002	 44.30	
 20.008	156.764	135.02885	-15.28937	142.43620	 85.51842	 23.40338	  4.82777	162.19177	702.06000	 44.30	
 20.000	145.147	135.75887	 -8.12972	132.75102	103.47247	  9.86474	  4.60879	162.17351	702.09998	 44.20	
 19.995	133.545	136.29701	  1.40625	119.95322	119.18749	 -1.65292	  4.38204	162.21976	702.01001	 44.10	
 20.009	121.926	136.76996	 13.51948	104.31847	132.07526	-11.99662	  4.55402	162.15450	702.06000	 44.10	
 20.005	110.327	137.17583	 27.89346	 86.83364	141.24147	-18.00874	  4.73154	162.13614	701.96997	 44.10	
 19.989	 98.733	137.29184	 44.25139	 68.64771	146.39349	-20.58344	  4.69404	162.12080	701.90997	 44.10	
 19.999	 87.075	137.42012	 60.39315	 51.92665	147.49048	-22.33803	  4.57805	162.14780	701.81000	 44.20	
 19.992	 75.457	137.63409	 77.54672	 35.90553	144.53052	-19.60528	  4.52150	162.13023	701.89001	 44.20	
 20.009	 63.844	137.68085	 95.99267	 20.80398	137.40295	-14.37945	  4.55741	162.13371	701.81000	 44.30	
 19.989	 52.269	137.92047	112.33654	  7.73386	126.34351	 -6.57250	  4.59371	162.16248	701.90002	 44.30	
 19.999	 40.602	137.90709	126.56701	 -3.72715	111.91844	  3.74010	  4.59942	162.14880	701.96997	 44.30	
 20.004	 29.051	137.66972	137.63512	-11.68318	 95.17612	 16.16473	  4.69541	162.16615	701.96002	 44.30	
 20.005	 17.433	137.28944	144.94806	-17.48638	 77.08244	 31.29129	  4.68201	162.16444	701.92999	 44.40	
 20.006	  5.780	136.75269	148.26181	-20.76312	 58.60479	 46.88531	  4.64859	162.13496	701.92999	 44.40	
 20.006	 -5.780	136.27791	147.81418	-21.01942	 40.76504	 64.70452	  4.66969	162.15363	701.87000	 44.50	
 20.005	-17.433	135.68466	143.74321	-18.64664	 25.52123	 81.90400	  4.63829	162.15491	701.90997	 44.50	
 20.004	-29.051	134.90764	135.49341	-13.38153	  9.38748	 99.51807	  4.68548	162.10735	701.95001	 44.60	
 19.999	-40.602	134.32660	123.73986	 -5.08266	 -3.95534	115.98058	  4.67903	162.13123	701.84998	 44.60	
 19.989	-52.269	133.80864	108.94579	  5.93007	-13.97643	130.14345	  4.66412	162.13181	701.90002	 44.50	
 20.009	-63.844	133.21089	 91.46901	 18.93623	-21.25104	140.47029	  4.61593	162.14676	701.91998	 44.50	
 19.992	-75.457	132.51593	 73.10057	 34.20000	-25.45435	146.91978	  4.58756	162.15001	701.91998	 44.60	
 19.999	-87.075	131.74036	 54.41972	 51.18167	-27.51044	149.58258	  4.69806	162.13342	702.02002	 44.60	
 19.989	-98.733	131.44862	 39.36221	 66.89459	-26.29033	148.25523	  4.51544	162.12827	701.96002	 44.60	
 20.005	-110.327	131.27075	 23.73385	 85.32771	-23.00268	143.09413	  4.58623	162.17778	702.01001	 44.70	
 20.009	-121.926	131.28824	  9.97074	103.28922	-17.00213	134.11566	  4.61499	162.19505	702.03003	 44.70	
 19.995	-133.545	131.38335	 -1.70876	119.01736	 -8.43820	121.46624	  4.62749	162.12445	702.03998	 44.70	
 20.000	-145.147	131.67654	-11.08578	132.09604	  3.47279	106.35896	  4.52150	162.14426	702.02002	 44.70	
 20.008	-156.764	132.23180	-18.30079	141.90182	 18.03705	 89.11203	  4.48553	162.18164	701.90997	 44.60	
 20.003	-168.362	132.74484	-22.39448	147.77795	 33.28493	 71.05487	  4.67519	162.14952	701.91998	 44.50	
 20.000	180.000	133.45631	-23.30759	149.81114	 48.42415	 55.17713	  4.73456	162.19746	701.90002	 44.50	
