FileType=PCF
NHL=14
Date=03/19/19	10:53:46
Facility=APL
Serial=16071-6
Customer=NASA
NP=6
Mach=0.300000
Calibration=1:1
CalPts=490
TstPts=95
PortNumbering=AP Standard
Units=Torr C m/s kg/m^3 deg mm 
Theta[deg]	Phi[deg]	P1[Torr]	P2[Torr]	P3[Torr]	P4[Torr]	P5[Torr]	P6[Torr]	Pt[Torr]	Ps[Abs,Torr]	Ts[C]	
  0.000	  0.000	 42.92618	 18.72255	 19.11194	 18.71951	 18.46803	  1.04243	 42.98444	714.97998	 24.90	
  1.691	128.401	 42.91095	 17.24641	 20.45713	 20.57512	 16.54803	  1.00517	 42.98267	715.01001	 24.90	
  1.692	 77.194	 43.04703	 19.28293	 18.51015	 21.04719	 16.17907	  1.03647	 43.08109	714.97998	 25.00	
  1.699	 26.182	 43.06614	 20.94422	 16.98903	 19.70771	 17.47509	  1.06132	 43.08814	715.01001	 25.00	
  1.699	-26.182	 43.05234	 20.91344	 17.03619	 17.64220	 19.50436	  1.02750	 43.07441	715.00000	 25.00	
  1.692	-77.194	 43.00949	 19.18967	 18.61738	 16.49780	 20.69582	  0.95492	 43.06283	714.92999	 25.00	
  1.691	-128.401	 43.02452	 17.22907	 20.58785	 16.95243	 20.19862	  0.90121	 43.08605	714.97998	 25.10	
  1.700	180.000	 43.04436	 16.35971	 21.47842	 18.73518	 18.37820	  0.91294	 43.10674	715.08002	 25.10	
  3.400	180.000	 42.93679	 13.94488	 23.74964	 18.54772	 18.14042	  0.74603	 43.11634	715.03003	 25.10	
  3.388	-152.325	 42.92495	 14.41230	 23.24508	 16.51128	 20.27353	  0.73342	 43.09507	715.00000	 25.20	
  3.397	-124.529	 42.94417	 15.82525	 21.74896	 14.86492	 22.06979	  0.74718	 43.11193	715.03003	 25.20	
  3.399	-96.763	 42.97554	 17.90376	 19.63266	 14.07306	 22.96788	  0.78183	 43.10580	714.96997	 25.20	
  3.394	-69.283	 43.01043	 20.19699	 17.42108	 14.27547	 22.76795	  0.83372	 43.09739	715.09998	 25.20	
  3.400	-41.398	 43.09409	 22.20403	 15.58478	 15.47216	 21.48858	  0.89983	 43.15118	715.06000	 25.20	
  3.401	-14.021	 43.09617	 23.31846	 14.51489	 17.31171	 19.50687	  0.96450	 43.14085	715.03998	 25.30	
  3.401	 14.021	 43.08322	 23.35319	 14.44883	 19.53681	 17.25173	  1.00162	 43.13398	715.04999	 25.30	
  3.400	 41.398	 43.07608	 22.31297	 15.39340	 21.66301	 15.28601	  1.02601	 43.13789	715.09998	 25.30	
  3.394	 69.283	 43.04940	 20.33723	 17.18156	 23.07940	 14.00136	  0.98613	 43.13136	715.09003	 25.40	
  3.399	 96.763	 43.01612	 18.07093	 19.36533	 23.42161	 13.67624	  0.94356	 43.12209	715.09998	 25.40	
  3.397	124.529	 42.96389	 15.96034	 21.52566	 22.58621	 14.39497	  0.87255	 43.11576	715.01001	 25.40	
  3.388	152.325	 42.93307	 14.52910	 23.10836	 20.79276	 16.02257	  0.81897	 43.10651	715.03003	 25.40	
  5.099	161.165	 42.67952	 11.97597	 25.41545	 20.56452	 15.54303	  0.56914	 43.09664	715.13000	 25.40	
  5.109	142.013	 42.65945	 12.99419	 24.20801	 22.78341	 13.52037	  0.54640	 43.06223	715.06000	 25.50	
  5.095	123.033	 42.69941	 14.58032	 22.40784	 24.41511	 12.14393	  0.71787	 43.05141	715.09998	 25.50	
  5.105	104.191	 42.72294	 16.62564	 20.21756	 25.37106	 11.37535	  0.79911	 43.04931	715.10999	 25.50	
  5.093	 85.207	 42.75613	 18.94234	 17.90363	 25.51023	 11.27826	  0.84995	 43.04301	715.21997	 25.50	
  5.104	 66.290	 42.79668	 21.26941	 15.74487	 24.88559	 11.87780	  0.89909	 43.06469	715.07001	 25.50	
  5.094	 47.331	 42.81289	 23.30196	 13.89756	 23.48686	 13.06375	  0.91762	 43.05196	715.15997	 25.60	
  5.089	 28.397	 42.81895	 24.73764	 12.63137	 21.51055	 14.82850	  0.93261	 43.05872	715.15997	 25.60	
  5.096	  9.576	 42.81791	 25.47004	 11.99218	 19.22020	 16.97691	  0.90728	 43.05302	715.19000	 25.60	
  5.096	 -9.576	 42.82193	 25.42582	 12.06062	 16.90855	 19.29105	  0.87993	 43.05254	715.13000	 25.60	
  5.089	-28.397	 42.80643	 24.62101	 12.77624	 14.83243	 21.49032	  0.81157	 43.04972	715.19000	 25.70	
  5.094	-47.331	 42.74979	 23.12274	 14.12653	 13.13097	 23.37234	  0.73153	 43.02797	715.08002	 25.70	
  5.104	-66.290	 42.71132	 21.08825	 16.01319	 11.99729	 24.67898	  0.65870	 43.02286	714.96002	 25.70	
  5.093	-85.207	 42.70185	 18.77932	 18.24275	 11.55728	 25.19876	  0.57987	 43.04610	715.08002	 25.70	
  5.105	-104.191	 42.66507	 16.37286	 20.56048	 11.78434	 24.93089	  0.53533	 43.06069	715.10999	 25.70	
  5.095	-123.033	 42.63372	 14.41367	 22.69454	 12.65471	 23.86698	  0.51752	 43.06756	715.12000	 25.80	
  5.109	-142.013	 42.59178	 12.83895	 24.44130	 14.11144	 22.14735	  0.51436	 43.04356	715.12000	 25.80	
  5.099	-161.165	 42.58080	 11.86502	 25.51933	 16.10958	 19.98104	  0.52178	 43.04585	715.04999	 25.80	
  5.100	180.000	 42.58781	 11.58063	 25.82260	 18.25371	 17.76923	  0.54039	 43.03653	715.09003	 25.80	
  6.800	180.000	 42.20984	  9.17351	 27.84325	 17.90636	 17.27046	  0.22319	 43.06465	715.14001	 25.80	
  6.796	-166.229	 42.17112	  9.35878	 27.61682	 15.75998	 19.43764	  0.16997	 43.02572	715.02002	 25.90	
  6.808	-152.311	 42.19199	 10.06141	 26.85702	 13.73358	 21.64894	  0.20486	 43.04172	715.14001	 25.90	
  6.795	-138.383	 42.17408	 11.24407	 25.54533	 11.99308	 23.64692	  0.20954	 43.01318	715.17999	 25.90	
  6.792	-124.591	 42.22023	 12.75021	 23.84396	 10.63379	 25.32196	  0.10633	 43.05142	715.16998	 25.90	
  6.787	-110.754	 42.24428	 14.45757	 21.80183	  9.75392	 26.47300	  0.22619	 43.03528	715.14001	 25.90	
  6.800	-96.985	 42.26075	 16.52837	 19.56758	  9.21899	 27.13427	  0.23878	 43.01485	715.15997	 25.90	
  6.800	-83.015	 42.30986	 18.84106	 17.31468	  9.17517	 27.20789	  0.29510	 43.01968	715.13000	 25.90	
  6.787	-69.246	 42.35885	 21.17371	 15.19580	  9.60437	 26.68679	  0.34427	 43.01851	715.09998	 26.00	
  6.792	-55.409	 42.39987	 23.26510	 13.27014	 10.45639	 25.66691	  0.41954	 43.03037	715.14001	 26.00	
  6.795	-41.617	 42.42289	 24.98756	 11.68270	 11.76154	 24.12000	  0.40828	 43.02133	715.03003	 26.00	
  6.808	-27.689	 42.43339	 26.35279	 10.47886	 13.45618	 22.14577	  0.57434	 42.99710	715.07001	 26.00	
  6.796	-13.771	 42.44361	 27.21048	  9.76837	 15.46613	 19.98035	  0.66624	 42.99685	715.09003	 26.00	
  6.800	  0.000	 42.41365	 27.51693	  9.48762	 17.56342	 17.80366	  0.72466	 42.96788	715.20001	 26.00	
  6.796	 13.771	 42.41491	 27.27405	  9.69130	 19.85752	 15.59582	  0.61343	 42.97738	715.19000	 26.10	
  6.808	 27.689	 42.41967	 26.53283	 10.31371	 22.08643	 13.53457	  0.74747	 42.97805	715.16998	 26.10	
  6.795	 41.617	 42.40053	 25.21516	 11.42367	 24.05060	 11.80086	  0.71798	 42.98425	715.15997	 26.10	
  6.792	 55.409	 42.41165	 23.50520	 12.94008	 25.70210	 10.41545	  0.69693	 42.98498	715.19000	 26.10	
  6.787	 69.246	 42.37524	 21.39056	 14.81732	 26.86827	  9.42570	  0.67253	 42.97745	715.21002	 26.10	
  6.800	 83.015	 42.38097	 19.15159	 16.88725	 27.55742	  8.84153	  0.61190	 43.00851	715.15002	 26.10	
  6.800	 96.985	 42.35793	 16.87765	 19.15255	 27.59079	  8.76843	  0.57123	 43.00776	715.16998	 26.20	
  6.787	110.754	 42.32034	 14.80365	 21.35673	 27.02114	  9.19299	  0.51981	 43.00845	715.06000	 26.20	
  6.792	124.591	 42.26871	 12.91449	 23.44090	 25.90508	 10.06765	  0.47025	 43.00574	715.15002	 26.20	
  6.795	138.383	 42.22624	 11.35204	 25.23055	 24.33043	 11.36793	  0.36880	 43.01350	715.15997	 26.20	
  6.808	152.311	 42.14577	 10.15503	 26.58426	 22.37426	 13.00998	  0.35593	 42.96852	715.13000	 26.20	
  6.796	166.229	 42.13599	  9.45497	 27.45163	 20.10308	 15.05066	  0.17385	 42.98417	715.19000	 26.30	
  8.491	168.704	 41.63354	  6.90952	 29.46657	 19.71700	 14.40045	 -0.29044	 43.00972	715.15002	 26.30	
  8.502	157.493	 41.67947	  7.45044	 28.76788	 22.00230	 12.31569	 -0.23844	 43.03592	715.28998	 26.30	
  8.494	146.194	 41.74099	  8.42621	 27.55833	 24.12364	 10.50603	 -0.19069	 43.04994	715.16998	 26.30	
  8.495	135.039	 41.76975	  9.74720	 25.96740	 26.00639	  8.92597	 -0.15519	 43.04085	715.20001	 26.30	
  8.487	123.723	 41.80390	 11.39226	 24.08935	 27.55813	  7.71681	 -0.11405	 43.04984	715.19000	 26.30	
  8.492	112.575	 41.84372	 13.25640	 21.99606	 28.71016	  6.84781	 -0.00101	 43.04660	715.17999	 26.40	
  8.510	101.220	 41.89940	 15.38875	 19.72395	 29.44119	  6.33591	  0.24683	 43.06746	715.22998	 26.40	
  8.500	 90.000	 41.89750	 17.59192	 17.44872	 29.60281	  6.24621	  0.27107	 43.02244	715.17999	 26.40	
  8.510	 78.780	 41.92012	 19.84574	 15.24242	 29.32126	  6.51490	  0.23183	 43.01620	715.20001	 26.40	
  8.492	 67.425	 41.91843	 22.16386	 13.15184	 28.49065	  7.14061	  0.27074	 43.00810	715.09003	 26.40	
  8.487	 56.277	 41.94302	 24.22594	 11.38387	 27.30206	  8.13413	  0.37401	 43.00158	715.15997	 26.40	
  8.495	 44.961	 41.94978	 26.04112	  9.82250	 25.67317	  9.46167	  0.42716	 42.98162	715.22998	 26.40	
  8.494	 33.806	 41.98087	 27.52962	  8.59914	 23.78112	 11.10723	  0.45860	 43.00724	715.28998	 26.50	
  8.502	 22.507	 41.98665	 28.63437	  7.70767	 21.68718	 12.95421	  0.46828	 43.02784	715.21997	 26.50	
  8.491	 11.296	 41.96309	 29.27116	  7.19903	 19.35602	 15.09170	  0.46424	 42.99107	715.17999	 26.50	
  8.500	  0.000	 41.97443	 29.48618	  7.10367	 17.04386	 17.36952	  0.43691	 42.99083	715.27002	 26.50	
  8.491	-11.296	 41.93092	 29.17550	  7.29997	 14.84687	 19.58263	  0.39509	 42.96088	715.22998	 26.50	
  8.502	-22.507	 41.84127	 28.39710	  7.83846	 12.73687	 21.80936	  0.34254	 42.89640	715.12000	 26.50	
  8.494	-33.806	 41.78045	 27.14571	  8.78934	 10.86084	 23.92602	  0.24589	 42.86998	715.23999	 26.50	
  8.495	-44.961	 41.76757	 25.63383	 10.09609	  9.37601	 25.73331	  0.17046	 42.89011	715.10999	 26.50	
  8.487	-56.277	 41.63519	 23.73913	 11.71536	  8.19944	 27.16225	  0.01015	 42.78891	715.07001	 26.50	
  8.492	-67.425	 41.73487	 21.73185	 13.59482	  7.28361	 28.32948	  0.02256	 42.92540	715.09003	 26.50	
  8.510	-78.780	 41.75883	 19.42628	 15.71782	  6.70579	 29.04347	 -0.17064	 42.98339	715.19000	 26.50	
  8.500	-90.000	 41.72926	 17.09932	 17.94046	  6.56203	 29.22584	 -0.12411	 42.99355	715.29999	 26.60	
  8.510	-101.220	 41.69621	 14.88417	 20.23919	  6.78206	 28.93064	 -0.27686	 43.01419	715.25000	 26.60	
  8.492	-112.575	 41.56106	 12.88751	 22.48225	  7.38967	 28.07001	 -0.13580	 42.93015	715.16998	 26.60	
  8.487	-123.723	 41.44744	 11.18610	 24.48904	  8.36151	 26.78446	 -0.25605	 42.85698	715.26001	 26.60	
  8.495	-135.039	 41.41742	  9.64177	 26.30133	  9.62399	 25.18098	 -0.25932	 42.85887	715.26001	 26.60	
  8.494	-146.194	 41.42398	  8.39035	 27.76486	 11.17664	 23.29940	 -0.27283	 42.87873	715.09998	 26.60	
  8.502	-157.493	 41.39598	  7.40755	 28.84031	 13.05435	 21.13661	 -0.24285	 42.83573	715.21002	 26.70	
  8.491	-168.704	 41.39812	  6.82257	 29.46704	 15.15873	 18.89819	 -0.22675	 42.84188	715.09998	 26.70	
  8.500	180.000	 41.37475	  6.68400	 29.62638	 17.36533	 16.65169	 -0.22839	 42.81357	715.23999	 26.70	
 10.200	180.000	 40.64629	  4.11866	 31.42516	 16.80252	 15.94179	 -0.63007	 42.77625	715.16998	 26.70	
 10.191	-170.497	 40.63601	  4.27811	 31.28469	 14.58086	 18.21461	 -0.61586	 42.78828	715.14001	 26.70	
 10.210	-161.034	 40.62605	  4.77403	 30.77140	 12.39790	 20.49861	 -0.60747	 42.79600	715.16998	 26.70	
 10.194	-151.526	 40.59970	  5.59270	 29.81538	 10.40292	 22.71524	 -0.61627	 42.78133	715.17999	 26.70	
 10.190	-142.105	 40.65227	  6.65088	 28.56271	  8.68471	 24.77574	 -0.63534	 42.81536	715.12000	 26.70	
 10.215	-132.646	 40.66617	  7.91586	 26.98086	  7.14953	 26.66494	 -0.66484	 42.82473	715.10999	 26.70	
 10.203	-123.092	 40.74993	  9.50320	 25.09437	  5.93931	 28.28450	 -0.67519	 42.87527	715.15002	 26.70	
 10.192	-113.678	 40.89775	 11.24115	 23.06507	  4.98804	 29.59451	 -0.70776	 42.98064	715.21002	 26.80	
 10.208	-104.249	 40.90950	 13.15892	 20.85988	  4.29105	 30.48339	 -0.69047	 42.94218	715.28998	 26.80	
 10.210	-94.801	 40.97531	 15.23103	 18.54535	  4.01146	 30.97914	 -0.69544	 42.97074	715.14001	 26.80	
 10.210	-85.199	 41.02208	 17.60113	 16.24844	  3.94421	 31.06380	 -0.66615	 42.97674	715.21002	 26.80	
 10.208	-75.751	 41.04376	 19.99049	 14.01939	  4.22304	 30.68093	 -0.62262	 42.93021	715.27002	 26.80	
 10.192	-66.322	 41.04814	 22.24352	 11.97863	  4.89439	 29.87425	 -0.53226	 42.88215	715.26001	 26.80	
 10.203	-56.908	 41.07238	 24.33805	 10.13027	  5.75178	 28.76197	 -0.50654	 42.88672	715.27002	 26.80	
 10.215	-47.354	 40.89615	 26.12961	  8.47283	  6.91009	 27.19737	 -0.42997	 42.68167	715.21997	 26.80	
 10.190	-37.895	 40.66115	 27.61243	  7.10397	  8.34504	 25.33016	 -0.25364	 42.44476	715.04999	 26.80	
 10.194	-28.474	 40.44941	 28.86207	  5.99411	  9.96769	 23.31027	 -0.08743	 42.22831	715.20001	 26.90	
 10.210	-18.966	 40.78165	 30.10609	  5.20937	 11.95516	 21.21572	 -0.11711	 42.50282	715.23999	 26.90	
 10.191	 -9.503	 41.28580	 31.06915	  4.74040	 14.17150	 19.06836	 -0.20144	 42.93399	715.25000	 26.90	
 10.200	  0.000	 41.29631	 31.33136	  4.54882	 16.39577	 16.79332	 -0.10511	 42.95535	715.21997	 26.90	
 10.191	  9.503	 41.19548	 31.09753	  4.60449	 18.70027	 14.47168	  0.03853	 42.86370	715.29999	 26.90	
 10.210	 18.966	 41.10748	 30.49148	  5.03247	 20.98373	 12.29506	 -0.05229	 42.79320	715.28003	 26.90	
 10.194	 28.474	 41.16685	 29.53195	  5.77867	 23.23599	 10.35791	 -0.03492	 42.84155	715.32001	 26.90	
 10.190	 37.895	 41.26811	 28.30635	  6.83357	 25.35900	  8.59338	 -0.19224	 42.93579	715.15997	 26.90	
 10.215	 47.354	 41.04945	 26.60189	  8.10115	 27.11238	  7.06370	 -0.20714	 42.75983	715.19000	 26.90	
 10.203	 56.908	 41.07519	 24.74800	  9.64870	 28.67054	  5.84991	 -0.27765	 42.79222	715.26001	 27.00	
 10.192	 66.322	 41.13974	 22.69439	 11.42343	 29.89642	  4.90905	 -0.29901	 42.86064	715.16998	 27.00	
 10.208	 75.751	 41.23388	 20.48116	 13.42907	 30.82314	  4.21382	 -0.37379	 42.96663	715.26001	 27.00	
 10.210	 85.199	 41.32521	 18.22880	 15.63083	 31.36362	  3.80755	 -0.43020	 43.06194	715.28003	 27.00	
 10.210	 94.801	 41.28588	 15.94126	 17.91889	 31.40899	  3.71410	 -0.48680	 43.05736	715.21002	 27.00	
 10.208	104.249	 41.29367	 13.74463	 20.24076	 31.03958	  3.98737	 -0.50124	 43.11045	715.17999	 27.00	
 10.192	113.678	 41.23087	 11.66819	 22.47719	 30.25069	  4.54033	 -0.51058	 43.08271	715.27002	 27.00	
 10.203	123.092	 41.16971	  9.77677	 24.58656	 29.12781	  5.34982	 -0.55437	 43.07825	715.10999	 27.00	
 10.215	132.646	 41.15635	  8.06518	 26.59233	 27.65061	  6.44390	 -0.60242	 43.09794	715.19000	 27.00	
 10.190	142.105	 41.14167	  6.66516	 28.32064	 25.83205	  7.91749	 -0.64307	 43.12627	715.26001	 27.00	
 10.194	151.526	 41.13568	  5.57565	 29.73624	 23.76455	  9.65914	 -0.64952	 43.14565	715.13000	 27.00	
 10.210	161.034	 41.09238	  4.75024	 30.77608	 21.56086	 11.54574	 -0.71137	 43.13609	715.21002	 27.00	
 10.191	170.497	 41.06803	  4.28363	 31.41668	 19.19057	 13.71912	 -0.75307	 43.12901	715.26001	 27.00	
 11.899	171.783	 40.27473	  1.62492	 33.21018	 18.54841	 12.93903	 -1.15102	 43.17960	715.26001	 27.10	
 11.890	163.610	 40.34132	  2.00379	 32.64536	 20.87077	 10.83002	 -1.11195	 43.22469	715.20001	 27.10	
 11.889	155.445	 40.37401	  2.67987	 31.71971	 23.16661	  8.85297	 -1.04631	 43.22178	715.22998	 27.10	
 11.909	147.299	 40.35791	  3.59985	 30.47101	 25.37045	  6.97612	 -1.07077	 43.18241	715.28003	 27.10	
 11.902	139.148	 40.38819	  4.80452	 28.89360	 27.34940	  5.37758	 -1.07163	 43.15870	715.26001	 27.10	
 11.894	130.867	 40.42848	  6.31208	 27.06493	 29.08219	  4.05336	 -1.02274	 43.16914	715.13000	 27.10	
 11.897	122.732	 40.44176	  8.05112	 25.01712	 30.49727	  3.02750	 -0.96996	 43.11922	715.17999	 27.10	
 11.903	114.597	 40.50495	  9.96038	 22.86834	 31.71552	  2.18325	 -0.95922	 43.13982	715.23999	 27.10	
 11.893	106.346	 40.54099	 12.03226	 20.58632	 32.57066	  1.62612	 -0.96370	 43.13378	715.35999	 27.10	
 11.892	 98.155	 40.58683	 14.22231	 18.28975	 33.09679	  1.31889	 -0.93494	 43.13954	715.27002	 27.10	
 11.900	 90.000	 40.67408	 16.47444	 15.99874	 33.29068	  1.15767	 -0.95807	 43.19178	715.27002	 27.10	
 11.892	 81.845	 40.71325	 18.75558	 13.77274	 33.07090	  1.37808	 -0.92694	 43.20761	715.31000	 27.10	
 11.893	 73.654	 40.71260	 21.07463	 11.61677	 32.43629	  1.81230	 -0.88834	 43.18947	715.20001	 27.20	
 11.903	 65.403	 40.72731	 23.38859	  9.61163	 31.54933	  2.46510	 -0.88395	 43.20063	715.22998	 27.20	
 11.897	 57.268	 40.75618	 25.49166	  7.90110	 30.29425	  3.44327	 -0.87017	 43.19930	715.29999	 27.20	
 11.894	 49.133	 40.79785	 27.41688	  6.34769	 28.79945	  4.57276	 -0.84617	 43.21170	715.31000	 27.20	
 11.902	 40.852	 40.74030	 29.12119	  4.94950	 26.98436	  5.94253	 -0.76070	 43.18174	715.20001	 27.20	
 11.909	 32.701	 40.72208	 30.56901	  3.79746	 24.92129	  7.65108	 -0.62108	 43.16304	715.26001	 27.20	
 11.889	 24.555	 40.75829	 31.74917	  2.95416	 22.69045	  9.59855	 -0.55718	 43.18479	715.10999	 27.20	
 11.890	 16.390	 40.73003	 32.58072	  2.31849	 20.37797	 11.60116	 -0.59108	 43.15083	715.22998	 27.20	
 11.899	  8.217	 40.71482	 33.09285	  1.90617	 18.04525	 13.82765	 -0.64166	 43.14304	715.13000	 27.20	
 11.900	  0.000	 40.66466	 33.20393	  1.75457	 15.67527	 16.15726	 -0.65643	 43.09423	715.15002	 27.20	
 11.899	 -8.217	 40.64603	 32.95257	  2.09027	 13.42098	 18.47763	 -0.67385	 43.08108	715.09003	 27.20	
 11.890	-16.390	 40.63951	 32.35744	  2.53189	 11.23229	 20.79628	 -0.69695	 43.06046	715.09998	 27.30	
 11.889	-24.555	 40.63565	 31.42055	  3.17915	  9.19111	 23.07684	 -0.76096	 43.07677	715.09003	 27.30	
 11.909	-32.701	 40.59100	 30.15436	  4.11574	  7.37777	 25.16058	 -0.85198	 43.06166	715.19000	 27.30	
 11.902	-40.852	 40.61833	 28.61735	  5.32655	  5.74659	 27.14775	 -0.96252	 43.12836	715.16998	 27.30	
 11.894	-49.133	 40.58712	 26.77378	  6.78261	  4.33333	 28.90479	 -0.99123	 43.13482	715.19000	 27.30	
 11.897	-57.268	 40.52707	 24.86988	  8.46385	  3.25473	 30.31294	 -0.97626	 43.10917	715.17999	 27.30	
 11.903	-65.403	 40.46336	 22.75009	 10.28909	  2.39782	 31.41717	 -0.97548	 43.08541	715.09998	 27.30	
 11.893	-73.654	 40.44905	 20.33819	 12.34068	  1.80594	 32.27713	 -1.01721	 43.12696	715.08002	 27.30	
 11.892	-81.845	 40.39326	 18.00168	 14.51853	  1.44368	 32.74808	 -1.05101	 43.11446	715.15997	 27.30	
 11.900	-90.000	 40.34332	 15.68354	 16.77019	  1.36323	 32.87074	 -1.06516	 43.11212	715.12000	 27.30	
 11.892	-98.155	 40.27771	 13.61201	 19.06292	  1.46378	 32.60099	 -1.07883	 43.10094	715.21997	 27.30	
 11.893	-106.346	 40.22528	 11.48989	 21.34681	  1.86860	 31.95040	 -1.03112	 43.08392	715.09003	 27.30	
 11.903	-114.597	 40.17013	  9.50645	 23.59905	  2.51195	 31.01738	 -1.04782	 43.10103	715.27002	 27.30	
 11.897	-122.732	 40.15462	  7.74174	 25.71766	  3.42337	 29.75961	 -1.07853	 43.12778	715.19000	 27.30	
 11.894	-130.867	 40.14325	  6.16185	 27.68130	  4.61395	 28.15573	 -1.09992	 43.12450	715.29999	 27.30	
 11.902	-139.148	 40.11829	  4.81103	 29.42793	  6.08020	 26.28720	 -1.09218	 43.10447	715.27002	 27.40	
 11.909	-147.299	 40.11494	  3.69478	 30.87101	  7.77612	 24.24728	 -1.09145	 43.11012	715.32001	 27.40	
 11.889	-155.445	 40.14192	  2.82719	 31.97917	  9.66693	 22.08412	 -1.08541	 43.11744	715.16998	 27.40	
 11.890	-163.610	 40.15134	  2.14263	 32.79892	 11.75007	 19.80935	 -1.09236	 43.11379	715.29999	 27.40	
 11.899	-171.783	 40.16733	  1.66745	 33.28031	 13.94620	 17.48887	 -1.13556	 43.11211	715.33002	 27.40	
 11.900	180.000	 40.19359	  1.39536	 33.41327	 16.19266	 15.19400	 -1.15607	 43.11759	715.34003	 27.40	
 13.600	180.000	 39.19801	 -1.10793	 35.04203	 15.38065	 14.31489	 -1.45505	 43.13640	715.28003	 27.40	
 13.608	-172.853	 39.15871	 -1.01231	 34.93639	 13.15351	 16.56429	 -1.43421	 43.13399	715.38000	 27.40	
 13.611	-165.583	 39.16263	 -0.54455	 34.52497	 10.89539	 18.92928	 -1.36244	 43.14069	715.33002	 27.40	
 13.601	-158.353	 39.12794	  0.11528	 33.76803	  8.78414	 21.24679	 -1.31586	 43.11064	715.39001	 27.50	
 13.609	-151.210	 39.13570	  0.90107	 32.77727	  6.89076	 23.46317	 -1.27405	 43.12917	715.34998	 27.50	
 13.611	-143.999	 39.09324	  1.87015	 31.45387	  5.04079	 25.61251	 -1.27056	 43.12005	715.22998	 27.50	
 13.601	-136.825	 39.11522	  3.00657	 29.91429	  3.45322	 27.58291	 -1.27861	 43.14119	715.33002	 27.50	
 13.596	-129.640	 39.10944	  4.34835	 28.12244	  2.14502	 29.34750	 -1.23983	 43.10938	715.32001	 27.50	
 13.611	-122.431	 39.14513	  5.94731	 26.14545	  1.10155	 30.91903	 -1.21181	 43.12730	715.28003	 27.50	
 13.604	-115.211	 39.19831	  7.70136	 24.00900	  0.18970	 32.24686	 -1.19395	 43.14066	715.28998	 27.50	
 13.595	-108.042	 39.21956	  9.60816	 21.76382	 -0.51451	 33.27570	 -1.18674	 43.12127	715.37000	 27.50	
 13.607	-100.793	 39.26846	 11.67452	 19.44873	 -0.96009	 34.03667	 -1.20425	 43.12663	715.32001	 27.50	
 13.601	-93.617	 39.31827	 13.73598	 17.09987	 -1.11830	 34.43819	 -1.23963	 43.12077	715.34998	 27.50	
 13.601	-86.383	 39.37127	 15.99277	 14.85771	 -1.16464	 34.51892	 -1.23739	 43.13145	715.23999	 27.50	
 13.607	-79.207	 39.40691	 18.27968	 12.69045	 -0.99391	 34.27090	 -1.23615	 43.11438	715.29999	 27.50	
 13.595	-71.958	 39.47738	 20.63226	 10.54995	 -0.60990	 33.68471	 -1.19615	 43.12489	715.31000	 27.50	
 13.604	-64.789	 39.54939	 22.89913	  8.56849	 -0.05915	 32.80315	 -1.21570	 43.14388	715.32001	 27.50	
 13.611	-57.569	 39.59274	 25.11907	  6.71556	  0.77338	 31.61459	 -1.24461	 43.13020	715.29999	 27.50	
 13.596	-50.360	 39.63229	 27.20337	  5.00477	  1.78230	 30.22244	 -1.29299	 43.14338	715.34003	 27.60	
 13.601	-43.175	 39.67614	 29.09229	  3.52585	  3.07664	 28.56164	 -1.30328	 43.13891	715.35999	 27.60	
 13.611	-36.001	 39.72273	 30.71334	  2.26465	  4.63304	 26.66646	 -1.26294	 43.14481	715.27002	 27.60	
 13.609	-28.790	 39.76379	 32.15408	  1.17592	  6.36837	 24.57958	 -1.18273	 43.16444	715.31000	 27.60	
 13.601	-21.647	 39.75354	 33.29876	  0.34422	  8.23283	 22.36472	 -1.12980	 43.14326	715.21002	 27.60	
 13.611	-14.417	 39.76478	 34.15869	 -0.20084	 10.32807	 20.03859	 -1.10977	 43.15142	715.35999	 27.60	
 13.608	 -7.147	 39.78719	 34.69191	 -0.55792	 12.57262	 17.69829	 -1.09698	 43.15485	715.27002	 27.60	
 13.600	  0.000	 39.76514	 34.86789	 -0.81004	 14.79145	 15.40457	 -1.10034	 43.13237	715.34998	 27.60	
 13.608	  7.147	 39.76529	 34.77395	 -0.71890	 17.11018	 13.09934	 -1.08335	 43.14458	715.38000	 27.60	
 13.611	 14.417	 39.76627	 34.33027	 -0.39815	 19.45145	 10.83896	 -1.05645	 43.14488	715.38000	 27.60	
 13.601	 21.647	 39.75281	 33.54033	  0.18130	 21.75414	  8.76873	 -0.99616	 43.12091	715.33002	 27.60	
 13.609	 28.790	 39.75237	 32.49752	  0.92284	 24.08398	  6.80810	 -0.98544	 43.13597	715.34998	 27.60	
 13.611	 36.001	 39.72520	 31.15502	  1.88790	 26.26017	  5.02445	 -1.07721	 43.12528	715.35999	 27.70	
 13.601	 43.175	 39.76028	 29.58078	  3.13391	 28.21748	  3.50300	 -1.19345	 43.15380	715.28998	 27.70	
 13.596	 50.360	 39.76424	 27.82940	  4.49714	 29.96379	  2.20760	 -1.26392	 43.12821	715.33002	 27.70	
 13.611	 57.569	 39.68548	 25.81388	  6.03683	 31.48308	  1.07398	 -1.29192	 43.08924	715.33002	 27.70	
 13.604	 64.789	 39.67991	 23.67874	  7.78608	 32.76921	  0.18527	 -1.30593	 43.11137	715.28003	 27.70	
 13.595	 71.958	 39.65630	 21.40564	  9.64972	 33.75275	 -0.51978	 -1.33342	 43.09826	715.32001	 27.70	
 13.607	 79.207	 39.64365	 19.08525	 11.71970	 34.44790	 -1.01587	 -1.34147	 43.10997	715.38000	 27.70	
 13.601	 86.383	 39.59648	 16.81647	 13.89976	 34.76956	 -1.24390	 -1.36978	 43.06614	715.34003	 27.70	
 13.601	 93.617	 39.58583	 14.52854	 16.18618	 34.81328	 -1.26063	 -1.38594	 43.07008	715.37000	 27.70	
 13.607	100.793	 39.56475	 12.31397	 18.50163	 34.54116	 -1.03843	 -1.40048	 43.08459	715.40002	 27.70	
 13.595	108.042	 39.54338	 10.18421	 20.81744	 33.93367	 -0.69427	 -1.38114	 43.09239	715.35999	 27.70	
 13.604	115.211	 39.49501	  8.16526	 23.07284	 33.02135	 -0.17614	 -1.37827	 43.10304	715.37000	 27.70	
 13.611	122.431	 39.45668	  6.23755	 25.26849	 31.79942	  0.59548	 -1.39269	 43.09018	715.33002	 27.70	
 13.596	129.640	 39.42179	  4.52779	 27.34491	 30.29255	  1.66911	 -1.45075	 43.10291	715.34003	 27.80	
 13.601	136.825	 39.37863	  3.04390	 29.19675	 28.62344	  2.89953	 -1.48765	 43.11127	715.28003	 27.70	
 13.611	143.999	 39.34649	  1.82951	 30.86294	 26.74437	  4.37649	 -1.48267	 43.12513	715.28998	 27.80	
 13.609	151.210	 39.30993	  0.79960	 32.28203	 24.59890	  6.08209	 -1.44536	 43.12106	715.21997	 27.80	
 13.601	158.353	 39.28178	  0.06136	 33.41219	 22.34078	  7.95280	 -1.43342	 43.11485	715.29999	 27.80	
 13.611	165.583	 39.26790	 -0.47269	 34.27451	 20.05891	  9.91253	 -1.45517	 43.15695	715.35999	 27.80	
 13.608	172.853	 39.21915	 -0.88366	 34.80627	 17.71653	 12.06902	 -1.45043	 43.12853	715.32001	 27.80	
 15.298	173.587	 38.11798	 -3.17894	 36.25735	 16.85531	 11.14151	 -1.67999	 43.13653	715.28998	 27.80	
 15.291	167.167	 38.15784	 -2.85881	 35.78392	 19.17623	  8.99332	 -1.72327	 43.13609	715.15002	 27.80	
 15.307	160.676	 38.18750	 -2.38108	 35.03306	 21.46562	  6.99579	 -1.73825	 43.14679	715.28998	 27.80	
 15.300	154.261	 38.22002	 -1.81976	 33.99295	 23.75598	  5.09276	 -1.76898	 43.14905	715.32001	 27.80	
 15.288	147.854	 38.25306	 -0.99624	 32.68036	 25.93497	  3.38293	 -1.83309	 43.14845	715.29999	 27.80	
 15.293	141.428	 38.31547	  0.07699	 31.18009	 27.97507	  1.85750	 -1.87146	 43.16076	715.28998	 27.80	
 15.299	134.985	 38.36656	  1.30377	 29.43833	 29.85892	  0.46712	 -1.87984	 43.17018	715.38000	 27.80	
 15.305	128.583	 38.39583	  2.75512	 27.50763	 31.54405	 -0.72825	 -1.85970	 43.16532	715.25000	 27.80	
 15.309	122.142	 38.44902	  4.44704	 25.44578	 33.04002	 -1.70317	 -1.83100	 43.17746	715.15002	 27.80	
 15.304	115.711	 38.49619	  6.30731	 23.22903	 34.27898	 -2.47383	 -1.81108	 43.18525	715.28003	 27.80	
 15.297	109.291	 38.54477	  8.32032	 20.96962	 35.20615	 -2.96723	 -1.84560	 43.16798	715.29999	 27.80	
 15.293	102.897	 38.59266	 10.38036	 18.72066	 35.87545	 -3.34223	 -1.87145	 43.18230	715.38000	 27.80	
 15.293	 96.458	 38.63063	 12.58521	 16.37747	 36.29202	 -3.62671	 -1.87948	 43.19567	715.27002	 27.80	
 15.300	 90.000	 38.65361	 14.83547	 14.07760	 36.40405	 -3.72111	 -1.86418	 43.19551	715.34998	 27.80	
 15.293	 83.542	 38.67521	 17.12261	 11.87129	 36.20843	 -3.60253	 -1.83218	 43.19699	715.21997	 27.80	
 15.293	 77.103	 38.69949	 19.42240	  9.73598	 35.72005	 -3.28451	 -1.82479	 43.20757	715.27002	 27.80	
 15.297	 70.709	 38.68491	 21.68415	  7.76279	 34.97681	 -2.74312	 -1.81365	 43.17285	715.31000	 27.90	
 15.304	 64.289	 38.67256	 23.92405	  5.92225	 33.98886	 -2.10805	 -1.79422	 43.18143	715.21002	 27.90	
 15.309	 57.858	 38.66775	 26.09820	  4.19098	 32.68027	 -1.29249	 -1.76839	 43.17306	715.23999	 27.90	
 15.305	 51.417	 38.73393	 28.11331	  2.65620	 31.14100	 -0.20717	 -1.74884	 43.18108	715.25000	 27.90	
 15.299	 45.015	 38.72382	 29.92955	  1.29764	 29.40648	  1.02484	 -1.69038	 43.17514	715.26001	 27.90	
 15.293	 38.572	 38.72063	 31.61710	  0.08425	 27.47769	  2.49073	 -1.58419	 43.17439	715.23999	 27.90	
 15.288	 32.146	 38.70230	 33.08115	 -1.00952	 25.37708	  4.07457	 -1.48105	 43.17876	715.26001	 27.90	
 15.300	 25.739	 38.69503	 34.32220	 -1.90150	 23.11662	  5.85525	 -1.46521	 43.18388	715.21002	 27.90	
 15.307	 19.324	 38.69519	 35.23898	 -2.51849	 20.74954	  7.89639	 -1.46249	 43.15707	715.28003	 27.90	
 15.291	 12.833	 38.70502	 35.89546	 -2.92623	 18.46411	 10.03059	 -1.48138	 43.16438	715.28003	 27.90	
 15.298	  6.413	 38.70144	 36.30252	 -3.22752	 16.11664	 12.23226	 -1.49977	 43.17224	715.33002	 27.90	
 15.300	  0.000	 38.69810	 36.39250	 -3.30714	 13.81719	 14.48023	 -1.50470	 43.16558	715.33002	 27.90	
 15.298	 -6.413	 38.71157	 36.20504	 -3.10156	 11.58444	 16.75517	 -1.45746	 43.16534	715.28003	 28.00	
 15.291	-12.833	 38.71413	 35.72303	 -2.75500	  9.40920	 19.05210	 -1.43570	 43.16225	715.34003	 28.00	
 15.307	-19.324	 38.70097	 34.97387	 -2.33405	  7.26849	 21.41673	 -1.40698	 43.17450	715.31000	 28.00	
 15.300	-25.739	 38.66608	 33.90375	 -1.65591	  5.35349	 23.66961	 -1.41203	 43.13885	715.40997	 28.00	
 15.288	-32.146	 38.67820	 32.61637	 -0.71712	  3.59431	 25.88222	 -1.43749	 43.16649	715.31000	 28.00	
 15.293	-38.572	 38.63634	 31.07234	  0.42264	  1.97191	 27.94703	 -1.46245	 43.16476	715.16998	 28.00	
 15.299	-45.015	 38.59146	 29.34213	  1.72765	  0.56460	 29.79034	 -1.45517	 43.17632	715.26001	 28.00	
 15.305	-51.417	 38.53200	 27.40806	  3.22210	 -0.62683	 31.40545	 -1.41638	 43.15252	715.17999	 28.00	
 15.309	-57.858	 38.48067	 25.33200	  4.91855	 -1.57967	 32.84333	 -1.36423	 43.14899	715.22998	 28.00	
 15.304	-64.289	 38.42662	 23.08589	  6.76043	 -2.34042	 34.03174	 -1.29955	 43.12719	715.25000	 28.00	
 15.297	-70.709	 38.36390	 20.76051	  8.71008	 -2.94412	 34.94707	 -1.26601	 43.11602	715.23999	 28.00	
 15.293	-77.103	 38.31267	 18.47472	 10.74068	 -3.30467	 35.61317	 -1.27637	 43.12793	715.27002	 28.00	
 15.293	-83.542	 38.25508	 16.14568	 12.86120	 -3.51465	 35.95330	 -1.26563	 43.12584	715.27002	 28.00	
 15.300	-90.000	 38.19070	 13.89504	 15.06545	 -3.58937	 36.00222	 -1.24132	 43.11312	715.28003	 28.00	
 15.293	-96.458	 38.10567	 11.75289	 17.40425	 -3.48314	 35.75102	 -1.20152	 43.07136	715.21997	 28.10	
 15.293	-102.897	 38.06918	  9.67993	 19.72267	 -3.19726	 35.24041	 -1.20199	 43.09967	715.26001	 28.10	
 15.297	-109.291	 38.02933	  7.70692	 22.01575	 -2.73094	 34.41363	 -1.19424	 43.10030	715.33002	 28.10	
 15.304	-115.711	 37.95914	  5.81035	 24.23747	 -2.07302	 33.30642	 -1.18369	 43.07750	715.27002	 28.10	
 15.309	-122.142	 37.94261	  4.06957	 26.42106	 -1.19235	 31.99931	 -1.21676	 43.10936	715.26001	 28.10	
 15.305	-128.583	 37.91604	  2.49505	 28.41085	 -0.17512	 30.42685	 -1.24005	 43.08936	715.33002	 28.10	
 15.299	-134.985	 37.91182	  1.13494	 30.21863	  1.00357	 28.72982	 -1.27026	 43.09295	715.28998	 28.10	
 15.293	-141.428	 37.88048	  0.01903	 31.79079	  2.39346	 26.82718	 -1.29472	 43.07132	715.23999	 28.10	
 15.288	-147.854	 37.89585	 -0.95323	 33.22701	  4.05443	 24.72087	 -1.33591	 43.05975	715.21997	 28.10	
 15.300	-154.261	 37.92596	 -1.85446	 34.44396	  5.84194	 22.51505	 -1.38820	 43.09151	715.23999	 28.10	
 15.307	-160.676	 37.91888	 -2.58336	 35.34072	  7.79273	 20.24911	 -1.44072	 43.06052	715.19000	 28.10	
 15.291	-167.167	 37.96687	 -2.97192	 35.97576	 10.02790	 17.92243	 -1.53643	 43.06062	715.09998	 28.10	
 15.298	-173.587	 37.98034	 -3.25168	 36.33857	 12.26559	 15.60682	 -1.60482	 43.05341	715.21002	 28.20	
 15.300	180.000	 38.00442	 -3.33694	 36.40076	 14.48360	 13.38700	 -1.66003	 43.06487	715.19000	 28.20	
 17.000	180.000	 36.74323	 -5.59815	 37.73508	 13.52788	 12.34598	 -1.73215	 43.06920	715.33002	 28.20	
 16.990	-174.179	 36.72823	 -5.50937	 37.65356	 11.30784	 14.57162	 -1.66730	 43.05402	715.20001	 28.20	
 17.009	-168.383	 36.68010	 -5.30595	 37.32967	  9.05804	 16.84209	 -1.59735	 43.04515	715.17999	 28.20	
 17.000	-162.596	 36.67794	 -5.01317	 36.78012	  6.94581	 19.03763	 -1.50304	 43.06198	715.23999	 28.20	
 16.990	-156.759	 36.66819	 -4.36850	 35.93519	  4.98833	 21.34142	 -1.41484	 43.03907	715.31000	 28.20	
 16.995	-150.919	 36.60262	 -3.66887	 34.83712	  3.06974	 23.64280	 -1.35096	 43.02174	715.28998	 28.20	
 16.988	-145.161	 36.58982	 -2.83387	 33.56591	  1.46449	 25.81788	 -1.27475	 43.04424	715.28998	 28.20	
 17.014	-139.343	 36.56891	 -1.87921	 32.05898	 -0.03081	 27.83290	 -1.24659	 43.02592	715.15002	 28.20	
 17.007	-133.546	 36.58195	 -0.85592	 30.40484	 -1.35845	 29.69891	 -1.17630	 43.04434	715.28003	 28.20	
 17.001	-127.699	 36.58959	  0.60517	 28.54070	 -2.47844	 31.42282	 -1.13049	 43.05170	715.22998	 28.20	
 17.006	-121.937	 36.57665	  2.15420	 26.54018	 -3.45952	 32.95484	 -1.12294	 43.02895	715.22998	 28.20	
 17.002	-116.134	 36.59855	  3.86941	 24.37737	 -4.26279	 34.28462	 -1.08273	 43.01919	715.29999	 28.20	
 17.001	-110.310	 36.65965	  5.72732	 22.15844	 -4.94321	 35.38490	 -1.09035	 43.03333	715.16998	 28.20	
 16.988	-104.517	 36.72660	  7.68148	 19.88715	 -5.46161	 36.24807	 -1.10883	 43.03926	715.22998	 28.20	
 17.008	-98.662	 36.74537	  9.69727	 17.55999	 -5.81269	 36.90230	 -1.10137	 43.03891	715.09998	 28.20	
 16.996	-92.909	 36.80080	 11.80649	 15.26089	 -5.95503	 37.21528	 -1.12265	 43.03569	715.12000	 28.20	
 16.996	-87.091	 36.86263	 13.93058	 12.97998	 -5.92716	 37.30339	 -1.15422	 43.04113	715.17999	 28.20	
 17.012	-81.253	 36.88924	 16.22912	 10.77289	 -5.82071	 37.13360	 -1.17350	 43.01798	715.26001	 28.20	
 16.988	-75.483	 36.98513	 18.55349	  8.79515	 -5.49786	 36.68494	 -1.18052	 43.03783	715.22998	 28.20	
 17.001	-69.690	 37.04562	 20.85078	  6.85985	 -5.09707	 36.00694	 -1.21658	 43.05079	715.26001	 28.20	
 17.002	-63.866	 37.05931	 23.09520	  4.89895	 -4.60144	 35.06565	 -1.26904	 43.02846	715.23999	 28.20	
 17.006	-58.063	 37.09100	 25.31690	  3.09206	 -3.89595	 33.87990	 -1.32190	 43.02913	715.26001	 28.20	
 17.001	-52.301	 37.11532	 27.39046	  1.41089	 -3.03963	 32.42463	 -1.36779	 42.99277	715.19000	 28.20	
 17.007	-46.454	 37.18773	 29.44726	 -0.10388	 -1.92476	 30.82376	 -1.40030	 43.04684	715.14001	 28.20	
 17.014	-40.657	 37.20144	 31.23923	 -1.44307	 -0.64957	 29.02159	 -1.40682	 43.03510	715.28998	 28.20	
 16.988	-34.839	 37.25051	 32.85028	 -2.59172	  0.87981	 27.02793	 -1.45137	 43.01445	715.32001	 28.20	
 16.995	-29.081	 37.29335	 34.20483	 -3.52523	  2.54027	 24.93551	 -1.48238	 43.02961	715.21997	 28.20	
 16.990	-23.241	 37.33237	 35.37786	 -4.22942	  4.38061	 22.65293	 -1.50360	 43.03588	715.34003	 28.20	
 17.000	-17.404	 37.34000	 36.31937	 -4.78241	  6.24492	 20.37958	 -1.52555	 43.03450	715.31000	 28.20	
 17.009	-11.617	 37.32159	 37.01619	 -5.26568	  8.26943	 18.03563	 -1.60915	 43.01084	715.35999	 28.20	
 16.990	 -5.821	 37.35160	 37.45546	 -5.54504	 10.48744	 15.73962	 -1.65583	 43.04575	715.28003	 28.30	
 17.000	  0.000	 37.34789	 37.62162	 -5.65944	 12.69173	 13.48866	 -1.72170	 43.04328	715.15997	 28.30	
 16.990	  5.821	 37.34627	 37.54650	 -5.61147	 15.00389	 11.22365	 -1.79377	 43.04059	715.31000	 28.30	
 17.009	 11.617	 37.33238	 37.20543	 -5.43556	 17.30253	  9.03419	 -1.81469	 43.04024	715.29999	 28.30	
 17.000	 17.404	 37.36537	 36.60640	 -4.98779	 19.56753	  7.03369	 -1.81589	 43.04296	715.32001	 28.30	
 16.990	 23.241	 37.36969	 35.78715	 -4.40713	 21.91526	  5.05835	 -1.78704	 43.07554	715.28998	 28.30	
 16.995	 29.081	 37.31877	 34.65992	 -3.75399	 24.21829	  3.11996	 -1.84829	 43.05807	715.29999	 28.30	
 16.988	 34.839	 37.33316	 33.32711	 -2.81822	 26.35348	  1.53584	 -1.91231	 43.02383	715.33002	 28.30	
 17.014	 40.657	 37.32808	 31.77620	 -1.73807	 28.44105	  0.02365	 -2.03608	 43.04221	715.14001	 28.30	
 17.007	 46.454	 37.33158	 30.01192	 -0.51856	 30.33916	 -1.35579	 -2.10305	 43.04532	715.21002	 28.30	
 17.001	 52.301	 37.34112	 28.14091	  0.88508	 32.04856	 -2.47128	 -2.13280	 43.04592	715.23999	 28.30	
 17.006	 58.063	 37.30040	 26.13354	  2.39404	 33.52507	 -3.44602	 -2.16957	 43.01951	715.26001	 28.30	
 17.002	 63.866	 37.29763	 23.97771	  4.06761	 34.83344	 -4.24878	 -2.17966	 43.02264	715.27002	 28.30	
 17.001	 69.690	 37.29169	 21.71215	  5.81515	 35.91573	 -4.88569	 -2.22998	 43.03577	715.16998	 28.30	
 16.988	 75.483	 37.28753	 19.45081	  7.71710	 36.73985	 -5.52441	 -2.23919	 43.05190	715.12000	 28.30	
 17.012	 81.253	 37.21506	 17.12186	  9.70056	 37.25011	 -5.97634	 -2.23528	 42.99993	715.13000	 28.30	
 16.996	 87.091	 37.21767	 14.87288	 11.84162	 37.52838	 -6.08682	 -2.27757	 42.99960	715.13000	 28.30	
 16.996	 92.909	 37.21893	 12.68305	 14.04690	 37.59314	 -6.05904	 -2.30478	 43.01530	715.19000	 28.30	
 17.008	 98.662	 37.18895	 10.52676	 16.27143	 37.36687	 -5.95721	 -2.29607	 43.00993	715.17999	 28.30	
 16.988	104.517	 37.16247	  8.42205	 18.59734	 36.85166	 -5.61767	 -2.21699	 42.98992	715.08002	 28.30	
 17.001	110.310	 37.14401	  6.36343	 20.89043	 36.14800	 -5.17235	 -2.21286	 43.00114	715.26001	 28.30	
 17.002	116.134	 37.09623	  4.44815	 23.15030	 35.14228	 -4.53836	 -2.15072	 42.99371	715.20001	 28.30	
 17.006	121.937	 37.05113	  2.67539	 25.34925	 33.89128	 -3.77995	 -2.17755	 42.99409	715.14001	 28.40	
 17.001	127.699	 36.98450	  1.11898	 27.38774	 32.43947	 -2.90443	 -2.16009	 42.97785	715.15997	 28.30	
 17.007	133.546	 36.97401	 -0.28966	 29.35586	 30.83676	 -1.87704	 -2.16208	 43.02905	715.10999	 28.40	
 17.014	139.343	 36.86759	 -1.64325	 31.11214	 28.97710	 -0.69555	 -2.18268	 42.96086	715.03003	 28.40	
 16.988	145.161	 36.88419	 -2.66688	 32.76576	 26.99569	  0.85228	 -2.08345	 43.00610	715.08002	 28.40	
 16.995	150.919	 36.82206	 -3.56000	 34.15643	 24.90823	  2.37599	 -2.02067	 42.98912	715.16998	 28.40	
 16.990	156.759	 36.78331	 -4.25680	 35.35540	 22.65031	  4.10338	 -1.97745	 42.98116	715.03003	 28.40	
 17.000	162.596	 36.80832	 -4.80691	 36.37947	 20.40694	  6.00369	 -1.89554	 43.05439	715.20001	 28.40	
 17.009	168.383	 36.74815	 -5.20152	 37.02825	 18.15190	  7.98098	 -1.85028	 43.00636	715.02002	 28.40	
 16.990	174.179	 36.72669	 -5.41575	 37.46827	 15.85917	 10.13506	 -1.78120	 43.00146	715.07001	 28.40	
 18.709	174.675	 35.24533	 -7.88053	 38.69512	 14.66548	  8.97239	 -1.78930	 42.98801	715.17999	 28.40	
 18.703	169.441	 35.25474	 -7.58106	 38.25418	 16.90961	  6.91742	 -1.90120	 42.94340	715.12000	 28.40	
 18.691	164.085	 35.34262	 -7.11482	 37.63680	 19.22771	  4.97664	 -1.99230	 42.99498	715.14001	 28.40	
 18.706	158.818	 35.33875	 -6.70977	 36.74384	 21.47645	  2.99523	 -2.05587	 42.97619	715.13000	 28.40	
 18.695	153.537	 35.40625	 -6.02860	 35.63287	 23.74665	  1.37846	 -2.08971	 42.98390	715.20001	 28.50	
 18.704	148.255	 35.44750	 -5.25257	 34.32657	 25.89659	 -0.18111	 -2.20253	 42.98413	715.22998	 28.50	
 18.698	142.952	 35.48047	 -4.30585	 32.78728	 27.98482	 -1.70710	 -2.28494	 42.97439	715.13000	 28.50	
 18.699	137.625	 35.52635	 -3.21244	 31.10854	 29.92530	 -3.11518	 -2.39395	 42.99194	715.15997	 28.50	
 18.705	132.343	 35.59200	 -1.90968	 29.28716	 31.72048	 -4.17682	 -2.32662	 42.99570	715.06000	 28.50	
 18.713	127.067	 35.66040	 -0.46558	 27.33717	 33.35232	 -5.07358	 -2.34368	 43.00446	715.03998	 28.50	
 18.700	121.794	 35.70489	  0.99512	 25.27159	 34.79606	 -5.98606	 -2.36110	 43.00413	715.21997	 28.50	
 18.698	116.504	 35.72087	  2.61263	 23.07043	 36.05630	 -6.81374	 -2.37861	 42.99561	715.21997	 28.50	
 18.707	111.165	 35.76678	  4.44868	 20.77328	 37.12004	 -7.46450	 -2.44154	 43.01172	715.14001	 28.50	
 18.690	105.863	 35.78509	  6.35562	 18.45653	 37.90784	 -8.03319	 -2.47995	 42.99878	715.21997	 28.50	
 18.696	100.583	 35.78997	  8.44945	 16.17921	 38.44506	 -8.31677	 -2.54700	 42.99465	715.28003	 28.50	
 18.700	 95.309	 35.80910	 10.56772	 13.96105	 38.74207	 -8.41462	 -2.59083	 42.98468	715.21997	 28.50	
 18.700	 90.000	 35.85112	 12.69968	 11.83291	 38.82940	 -8.45299	 -2.56596	 43.01068	715.22998	 28.50	
 18.700	 84.691	 35.81245	 14.81187	  9.73951	 38.67255	 -8.52923	 -2.52489	 42.99412	715.19000	 28.50	
 18.696	 79.417	 35.82986	 17.09606	  7.68615	 38.29989	 -8.30597	 -2.50291	 42.98714	715.25000	 28.50	
 18.690	 74.137	 35.86943	 19.41538	  5.75411	 37.69520	 -7.80317	 -2.50919	 42.98521	715.17999	 28.50	
 18.707	 68.835	 35.86904	 21.66068	  3.90228	 36.79427	 -7.14929	 -2.54694	 42.97834	715.33002	 28.50	
 18.698	 63.496	 35.90379	 23.98075	  2.17107	 35.70389	 -6.46754	 -2.48582	 42.99483	715.22998	 28.50	
 18.700	 58.206	 35.91547	 26.17349	  0.54851	 34.36785	 -5.61352	 -2.46274	 43.00033	715.28003	 28.50	
 18.713	 52.933	 35.94188	 28.19282	 -0.93089	 32.85069	 -4.66920	 -2.44996	 43.01531	715.28998	 28.50	
 18.705	 47.657	 35.93853	 30.04821	 -2.27105	 31.15680	 -3.60317	 -2.40630	 42.98919	715.27002	 28.50	
 18.699	 42.375	 35.94092	 31.85939	 -3.45062	 29.34976	 -2.31456	 -2.36907	 43.01350	715.31000	 28.50	
 18.698	 37.048	 35.92605	 33.49308	 -4.51418	 27.32963	 -0.95495	 -2.25799	 43.00162	715.34003	 28.50	
 18.704	 31.745	 35.88842	 34.89956	 -5.46836	 25.15709	  0.51414	 -2.14486	 42.96099	715.28998	 28.50	
 18.695	 26.463	 35.87738	 36.10284	 -6.22589	 22.94750	  2.20626	 -2.06283	 42.95944	715.31000	 28.50	
 18.706	 21.182	 35.88937	 37.12536	 -6.93741	 20.64405	  4.01402	 -2.03048	 42.96040	715.29999	 28.60	
 18.691	 15.915	 35.87561	 37.87051	 -7.47351	 18.31348	  6.01296	 -1.99644	 42.94921	715.32001	 28.60	
 18.703	 10.559	 35.88699	 38.45024	 -7.89916	 16.01824	  8.06634	 -1.96820	 42.99604	715.41998	 28.60	
 18.709	  5.325	 35.88735	 38.74741	 -8.05271	 13.73254	 10.20132	 -1.91690	 43.00423	715.31000	 28.60	
 18.700	  0.000	 35.91272	 38.81957	 -8.01742	 11.47374	 12.38858	 -1.83009	 42.99887	715.28003	 28.60	
 18.709	 -5.325	 35.93450	 38.69506	 -7.92620	  9.27407	 14.58096	 -1.72802	 43.02613	715.21997	 28.60	
 18.703	-10.559	 35.92551	 38.28136	 -7.71496	  7.18062	 16.81554	 -1.60948	 43.00648	715.21002	 28.60	
 18.691	-15.915	 35.94765	 37.62760	 -7.22750	  5.14230	 19.16000	 -1.53282	 43.01079	715.17999	 28.60	
 18.706	-21.182	 35.92937	 36.78051	 -6.68122	  3.28174	 21.43635	 -1.46564	 43.01007	715.25000	 28.60	
 18.695	-26.463	 35.91463	 35.70306	 -6.03598	  1.52692	 23.71784	 -1.39386	 43.00550	715.21997	 28.60	
 18.704	-31.745	 35.86570	 34.44146	 -5.33118	 -0.21324	 25.91249	 -1.34257	 43.00570	715.27002	 28.60	
 18.698	-37.048	 35.82298	 32.96494	 -4.39739	 -1.75908	 27.94596	 -1.27140	 42.98870	715.21002	 28.60	
 18.699	-42.375	 35.75566	 31.29107	 -3.25311	 -3.16304	 29.90981	 -1.21277	 42.96703	715.25000	 28.60	
 18.705	-47.657	 35.73434	 29.44212	 -1.89197	 -4.28295	 31.74892	 -1.20841	 42.98795	715.28003	 28.60	
 18.713	-52.933	 35.67556	 27.44668	 -0.41131	 -5.31734	 33.38353	 -1.19242	 42.96965	715.25000	 28.60	
 18.700	-58.206	 35.67521	 25.31954	  1.23757	 -6.09720	 34.76505	 -1.14828	 42.97414	715.23999	 28.60	
 18.698	-63.496	 35.62029	 23.07799	  3.04044	 -6.80064	 35.92516	 -1.12432	 42.95790	715.21002	 28.60	
 18.707	-68.835	 35.56512	 20.77479	  4.93271	 -7.28985	 36.90990	 -1.06501	 42.94810	715.27002	 28.60	
 18.690	-74.137	 35.50640	 18.47425	  6.82405	 -7.73197	 37.65868	 -1.03015	 42.95154	715.09998	 28.70	
 18.696	-79.417	 35.42659	 16.16651	  8.75405	 -8.10354	 38.18417	 -0.97608	 42.95745	715.23999	 28.70	
 18.700	-84.691	 35.36296	 13.90231	 10.85402	 -8.27252	 38.43773	 -0.97425	 42.94910	715.27002	 28.70	
 18.700	-90.000	 35.30852	 11.74519	 13.08077	 -8.38268	 38.47478	 -0.93881	 42.95623	715.21002	 28.70	
 18.700	-95.309	 35.22873	  9.63053	 15.30453	 -8.28126	 38.22740	 -0.91493	 42.93700	715.20001	 28.70	
 18.696	-100.583	 35.17519	  7.58219	 17.53893	 -8.22022	 37.76398	 -0.90111	 42.92498	715.27002	 28.70	
 18.690	-105.863	 35.13278	  5.59847	 19.79047	 -7.83383	 37.07749	 -0.89440	 42.90704	715.16998	 28.70	
 18.707	-111.165	 35.08517	  3.67898	 22.08264	 -7.24655	 36.20556	 -0.88128	 42.90646	715.14001	 28.70	
 18.698	-116.504	 35.08969	  1.94076	 24.32837	 -6.47045	 35.06511	 -0.93711	 42.91016	715.20001	 28.70	
 18.700	-121.794	 35.05916	  0.30072	 26.45483	 -5.74093	 33.75504	 -0.92422	 42.90951	715.16998	 28.70	
 18.713	-127.067	 34.98008	 -1.09348	 28.43047	 -4.80353	 32.23865	 -0.96112	 42.86309	715.20001	 28.70	
 18.705	-132.343	 35.00097	 -2.28702	 30.32358	 -3.69028	 30.52648	 -0.98785	 42.85698	715.19000	 28.70	
 18.699	-137.625	 35.01794	 -3.44594	 32.10519	 -2.42335	 28.67060	 -1.04941	 42.87908	715.25000	 28.70	
 18.698	-142.952	 35.01683	 -4.52243	 33.68057	 -1.04614	 26.68284	 -1.10802	 42.87574	715.21997	 28.70	
 18.704	-148.255	 35.08799	 -5.48955	 35.08470	  0.38874	 24.63567	 -1.16604	 42.93673	715.21002	 28.70	
 18.695	-153.537	 35.13903	 -6.26643	 36.28969	  2.15157	 22.39256	 -1.26589	 42.96675	715.25000	 28.70	
 18.706	-158.818	 35.16159	 -6.88368	 37.26189	  3.99761	 20.07595	 -1.31932	 42.94736	715.16998	 28.70	
 18.691	-164.085	 35.17234	 -7.42369	 38.00463	  5.91529	 17.78306	 -1.38022	 42.96427	715.28998	 28.70	
 18.703	-169.441	 35.16713	 -7.69366	 38.54226	  7.99021	 15.43942	 -1.46498	 42.97594	715.22998	 28.70	
 18.709	-174.675	 35.22227	 -7.90264	 38.83061	 10.16698	 13.23810	 -1.54025	 42.99133	715.21997	 28.70	
 18.700	180.000	 35.26239	 -7.94966	 38.88653	 12.39304	 11.13978	 -1.64720	 43.01159	715.23999	 28.70	
 20.400	180.000	 33.70374	-10.13599	 39.90921	 11.11936	  9.89499	 -1.59101	 43.00703	715.20001	 28.70	
 20.401	-175.153	 33.69530	-10.02581	 39.87157	  8.99804	 12.01036	 -1.46192	 42.99272	715.21997	 28.70	
 20.407	-170.264	 33.67342	 -9.81970	 39.62777	  6.86202	 14.23681	 -1.40118	 43.00854	715.20001	 28.70	
 20.410	-165.423	 33.66872	 -9.54223	 39.18798	  4.84271	 16.51680	 -1.32690	 43.00780	715.23999	 28.70	
 20.392	-160.496	 33.68372	 -9.14701	 38.51203	  2.90981	 18.84731	 -1.28122	 43.01066	715.16998	 28.70	
 20.401	-155.705	 33.62523	 -8.68479	 37.66643	  1.06126	 21.06820	 -1.22628	 43.01622	715.26001	 28.70	
 20.405	-150.835	 33.57773	 -8.04929	 36.56587	 -0.65021	 23.34461	 -1.17264	 43.00149	715.20001	 28.70	
 20.397	-145.903	 33.62122	 -7.23209	 35.29968	 -2.18917	 25.56213	 -1.13363	 43.02522	715.19000	 28.70	
 20.392	-141.062	 33.61918	 -6.23546	 33.83005	 -3.59976	 27.66001	 -1.09433	 43.03675	715.20001	 28.70	
 20.396	-136.227	 33.57823	 -5.15382	 32.14390	 -4.90924	 29.57217	 -1.03423	 43.00330	715.22998	 28.80	
 20.408	-131.372	 33.60258	 -4.01953	 30.35299	 -6.08576	 31.41243	 -1.01767	 43.01109	715.29999	 28.80	
 20.410	-126.511	 33.56353	 -2.77661	 28.38213	 -7.22989	 33.09549	 -0.97029	 43.00551	715.28003	 28.80	
 20.400	-121.604	 33.57589	 -1.42548	 26.28566	 -8.17851	 34.61729	 -0.95103	 42.99535	715.15002	 28.80	
 20.403	-116.741	 33.60107	  0.08692	 24.13521	 -8.88357	 35.95544	 -0.90692	 43.01096	715.15002	 28.80	
 20.413	-111.900	 33.59684	  1.72535	 21.89196	 -9.52507	 37.09069	 -0.88283	 42.99396	715.28003	 28.80	
 20.398	-107.004	 33.62440	  3.55958	 19.55161	-10.10426	 38.00673	 -0.88315	 42.97445	715.15002	 28.80	
 20.394	-102.132	 33.64853	  5.45941	 17.35286	-10.60577	 38.71906	 -0.87608	 43.00286	715.25000	 28.80	
 20.403	-97.332	 33.66715	  7.47862	 15.14059	-10.84708	 39.22894	 -0.84758	 42.98874	715.27002	 28.80	
 20.392	-92.440	 33.74599	  9.56501	 12.98219	-10.74877	 39.51660	 -0.88051	 42.99557	715.15002	 28.80	
 20.392	-87.560	 33.77112	 11.52567	 10.93838	-10.87377	 39.60916	 -0.88268	 42.97456	715.23999	 28.80	
 20.403	-82.668	 33.85235	 13.70085	  8.74486	-10.65547	 39.52432	 -0.93901	 42.98684	715.19000	 28.80	
 20.394	-77.868	 33.89366	 15.90786	  6.75350	-10.47094	 39.17100	 -0.95880	 42.98069	715.21997	 28.80	
 20.398	-72.996	 33.96814	 18.23016	  4.82434	-10.04947	 38.57941	 -1.00463	 42.96088	715.12000	 28.80	
 20.413	-68.100	 34.00777	 20.53317	  2.92937	 -9.69420	 37.79944	 -1.04302	 42.96108	715.29999	 28.80	
 20.403	-63.259	 34.04391	 22.81112	  1.10267	 -9.15086	 36.81744	 -1.04362	 42.94870	715.21002	 28.80	
 20.400	-58.396	 34.11433	 25.06417	 -0.63027	 -8.39354	 35.60987	 -1.04422	 42.95853	715.10999	 28.80	
 20.410	-53.489	 34.13685	 27.22329	 -2.21585	 -7.52185	 34.17229	 -1.07590	 42.94715	715.21997	 28.80	
 20.408	-48.628	 34.15416	 29.27398	 -3.65816	 -6.55762	 32.55540	 -1.07098	 42.94097	715.26001	 28.80	
 20.396	-43.773	 34.16546	 31.16173	 -4.94003	 -5.59438	 30.78750	 -1.07895	 42.92005	715.22998	 28.80	
 20.392	-38.938	 34.21275	 32.87472	 -6.02018	 -4.43380	 28.89786	 -1.14177	 42.92020	715.17999	 28.80	
 20.397	-34.097	 34.28215	 34.42033	 -6.97440	 -2.98992	 26.87268	 -1.23755	 42.92232	715.20001	 28.80	
 20.405	-29.165	 34.30054	 35.83321	 -7.81819	 -1.39496	 24.70888	 -1.28027	 42.93927	715.23999	 28.80	
 20.401	-24.295	 34.33382	 36.99429	 -8.47164	  0.28728	 22.47876	 -1.37409	 42.94370	715.17999	 28.80	
 20.392	-19.504	 34.37578	 37.96470	 -9.12597	  2.10270	 20.23430	 -1.46580	 42.95363	715.21002	 28.80	
 20.410	-14.577	 34.34622	 38.75652	 -9.70666	  4.00872	 17.88950	 -1.52370	 42.94374	715.21002	 28.80	
 20.407	 -9.736	 34.36216	 39.34475	-10.04746	  6.00136	 15.56491	 -1.61062	 42.96181	715.16998	 28.80	
 20.401	 -4.847	 34.36184	 39.67444	-10.18224	  8.08640	 13.29594	 -1.72292	 42.95589	715.12000	 28.80	
 20.400	  0.000	 34.36160	 39.81944	-10.29896	 10.12801	 11.18944	 -1.87107	 42.95445	715.14001	 28.90	
 20.401	  4.847	 34.35960	 39.77969	-10.35314	 12.27252	  9.15793	 -1.96650	 42.95471	715.15997	 28.90	
 20.407	  9.736	 34.36507	 39.54367	-10.23165	 14.61373	  7.07080	 -2.08721	 42.98067	715.13000	 28.80	
 20.410	 14.577	 34.34835	 39.07354	 -9.96567	 16.91015	  5.02536	 -2.14937	 42.97311	715.16998	 28.90	
 20.392	 19.504	 34.40006	 38.35878	 -9.43688	 19.30116	  3.02814	 -2.23408	 42.98204	715.28003	 28.80	
 20.401	 24.295	 34.37315	 37.45613	 -8.82570	 21.59931	  1.16361	 -2.33114	 42.98926	715.14001	 28.80	
 20.405	 29.165	 34.40221	 36.32722	 -8.02407	 23.86803	 -0.47947	 -2.41034	 43.00106	715.17999	 28.90	
 20.397	 34.097	 34.42097	 34.94775	 -7.16416	 26.10981	 -2.05889	 -2.50882	 42.99031	715.09003	 28.90	
 20.392	 38.938	 34.43308	 33.43211	 -6.18649	 28.20492	 -3.43614	 -2.60499	 43.01025	715.15002	 28.80	
 20.396	 43.773	 34.43741	 31.77553	 -5.13372	 30.08731	 -4.64129	 -2.70346	 42.99739	715.21002	 28.80	
 20.408	 48.628	 34.45229	 29.93833	 -3.97946	 31.85819	 -5.84431	 -2.74262	 42.98463	715.16998	 28.80	
 20.410	 53.489	 34.40563	 28.06710	 -2.71466	 33.55878	 -6.89817	 -2.76113	 42.99774	715.29999	 28.90	
 20.400	 58.396	 34.37149	 25.99163	 -1.31377	 35.08897	 -7.86741	 -2.78924	 42.98439	715.22998	 28.90	
 20.403	 63.259	 34.35442	 23.75723	  0.21660	 36.43529	 -8.75157	 -2.81447	 42.99348	715.23999	 28.90	
 20.413	 68.100	 34.33898	 21.52471	  1.90463	 37.54390	 -9.36876	 -2.85882	 42.97652	715.33002	 28.90	
 20.398	 72.996	 34.34402	 19.28902	  3.74253	 38.46194	-10.01627	 -2.80347	 42.96838	715.25000	 28.90	
 20.394	 77.868	 34.32233	 16.94774	  5.63990	 39.14230	-10.56439	 -2.77999	 42.97509	715.23999	 28.90	
 20.403	 82.668	 34.27583	 14.62068	  7.60812	 39.57560	-10.90558	 -2.77618	 42.95423	715.20001	 28.90	
 20.392	 87.560	 34.29693	 12.41645	  9.65615	 39.80832	-10.94488	 -2.81631	 42.97518	715.26001	 28.90	
 20.392	 92.440	 34.31715	 10.62195	 11.51052	 39.84853	-10.76767	 -2.92544	 42.97299	715.27002	 28.90	
 20.403	 97.332	 34.29829	  8.46053	 13.72398	 39.68102	-10.70774	 -2.86674	 42.97315	715.25000	 28.90	
 20.394	102.132	 34.29076	  6.38856	 15.92624	 39.32090	-10.59984	 -2.76953	 42.98777	715.15997	 28.90	
 20.398	107.004	 34.28786	  4.39914	 18.22031	 38.74774	-10.27373	 -2.71297	 43.01495	715.26001	 28.90	
 20.413	111.900	 34.22977	  2.49735	 20.53292	 37.89779	 -9.76481	 -2.67301	 43.01299	715.28003	 28.90	
 20.403	116.741	 34.21937	  0.77908	 22.76875	 36.87279	 -9.12441	 -2.61858	 43.02280	715.27002	 28.90	
 20.400	121.604	 34.18162	 -0.81748	 24.97141	 35.60757	 -8.31638	 -2.58243	 43.00311	715.34998	 28.90	
 20.410	126.511	 34.14351	 -2.27756	 27.12673	 34.17521	 -7.33693	 -2.53547	 42.98596	715.23999	 28.90	
 20.408	131.372	 34.10502	 -3.58714	 29.13894	 32.53651	 -6.40101	 -2.47544	 42.99202	715.28003	 28.90	
 20.396	136.227	 34.05637	 -4.86572	 30.97533	 30.77036	 -5.46007	 -2.40341	 43.00380	715.28003	 28.90	
 20.392	141.062	 33.97778	 -5.96633	 32.68132	 28.89025	 -4.26528	 -2.31514	 42.98125	715.23999	 29.00	
 20.397	145.903	 33.96557	 -6.87882	 34.29109	 26.89412	 -2.84148	 -2.19436	 42.98988	715.29999	 29.00	
 20.405	150.835	 33.92065	 -7.74542	 35.72744	 24.68442	 -1.27441	 -2.14298	 43.00423	715.32001	 29.00	
 20.401	155.705	 33.81977	 -8.46434	 36.91799	 22.44056	  0.24586	 -2.06438	 42.97728	715.34998	 29.00	
 20.392	160.496	 33.80558	 -8.97645	 37.93983	 20.25605	  2.02790	 -1.98783	 42.97996	715.23999	 29.00	
 20.410	165.423	 33.75092	 -9.46029	 38.75805	 17.93629	  3.85051	 -1.89229	 42.96334	715.20001	 29.00	
 20.407	170.264	 33.70432	 -9.81269	 39.33175	 15.71127	  5.73281	 -1.80346	 42.95863	715.34003	 29.00	
 20.401	175.153	 33.70649	-10.03736	 39.72419	 13.39604	  7.82498	 -1.69300	 42.97162	715.21002	 29.00	
  0.141	 45.000	 42.94038	 18.88357	 18.97443	 18.85850	 18.35966	  1.04864	 42.97268	715.22998	 29.00	
  4.001	128.691	 42.66168	 15.06766	 22.12736	 22.90888	 13.77373	  0.83406	 42.88697	715.20001	 29.00	
  4.002	 76.995	 42.72551	 19.72151	 17.40604	 23.97683	 12.92275	  0.99185	 42.88488	715.19000	 29.00	
  4.002	 25.892	 42.77618	 23.58150	 13.90686	 20.71355	 15.86382	  1.04270	 42.90638	715.25000	 29.00	
  4.002	-25.892	 42.77950	 23.50494	 14.02426	 15.94448	 20.61524	  0.95001	 42.90058	715.28998	 29.00	
  4.002	-76.995	 42.68665	 19.56921	 17.66342	 13.20949	 23.60546	  0.77902	 42.87594	715.33002	 29.00	
  4.001	-128.691	 42.65988	 14.91951	 22.38671	 14.30227	 22.32049	  0.65294	 42.92570	715.28003	 29.00	
  4.000	180.000	 42.72341	 13.08053	 24.42234	 18.40324	 17.96966	  0.67196	 42.99065	715.33002	 29.00	
  8.000	180.000	 41.77696	  7.39631	 29.17973	 17.53231	 16.82881	 -0.23691	 42.99410	715.19000	 29.00	
  7.991	-152.370	 41.74883	  8.46795	 27.98228	 12.61624	 21.98445	 -0.24879	 42.97907	715.22998	 29.00	
  7.997	-124.550	 41.78299	 11.54008	 24.41325	  9.06333	 26.28976	 -0.24496	 42.97920	715.19000	 29.00	
  8.006	-96.837	 41.89447	 15.94221	 19.39651	  7.40496	 28.49964	 -0.09316	 43.00155	715.31000	 29.00	
  7.988	-69.228	 42.01494	 21.32442	 14.29100	  7.88417	 27.96442	  0.02744	 43.01097	715.22998	 29.10	
  7.997	-41.563	 42.07612	 25.82761	 10.23203	 10.34025	 24.92850	  0.13715	 42.98918	715.14001	 29.10	
  8.008	-13.821	 42.16631	 28.55601	  8.06792	 14.69673	 20.05778	  0.41256	 43.02227	715.21997	 29.10	
  8.008	 13.821	 42.14544	 28.63088	  7.94140	 19.88480	 14.86669	  0.50704	 43.01550	715.19000	 29.10	
  7.997	 41.563	 42.14359	 26.14833	  9.98305	 24.80749	 10.46756	  0.48795	 42.98992	715.31000	 29.10	
  7.988	 69.228	 42.08510	 21.67497	 13.84937	 28.11958	  7.69210	  0.39275	 42.99887	715.29999	 29.10	
  8.006	 96.837	 42.00456	 16.39386	 18.89469	 28.95744	  6.95245	  0.30048	 42.98728	715.20001	 29.00	
  7.997	124.550	 41.91839	 11.72057	 23.96510	 26.99274	  8.42189	 -0.03789	 42.98803	715.27002	 29.10	
  7.991	152.370	 41.82082	  8.51381	 27.73127	 22.80885	 11.87405	 -0.13874	 42.98439	715.16998	 29.00	
 12.009	161.059	 40.04023	  2.02359	 32.30462	 21.48156	 10.05928	 -1.08549	 42.98890	715.20001	 29.00	
 12.013	142.081	 40.12636	  4.18814	 29.42155	 26.58971	  5.79167	 -1.08020	 42.99303	715.21997	 29.00	
 12.006	123.113	 40.22446	  7.79973	 25.05559	 30.41522	  2.89657	 -1.00194	 42.97188	715.31000	 29.00	
 12.007	104.200	 40.34225	 12.46069	 19.89363	 32.73788	  1.36752	 -0.98223	 42.98149	715.17999	 29.00	
 11.989	 85.301	 40.42350	 17.65624	 14.59168	 33.14762	  1.12287	 -0.94017	 42.99313	715.23999	 29.00	
 12.013	 66.294	 40.45667	 23.03209	  9.68126	 31.59928	  2.24849	 -0.88292	 43.00306	715.21002	 29.00	
 12.012	 47.388	 40.49339	 27.71846	  5.84814	 28.36128	  4.69036	 -0.82856	 42.98756	715.19000	 29.00	
 11.990	 28.440	 40.53170	 31.18598	  3.17976	 23.70881	  8.54405	 -0.56660	 43.01890	715.19000	 29.00	
 11.991	  9.464	 40.51676	 33.01083	  1.78823	 18.30544	 13.36643	 -0.64437	 42.98506	715.31000	 29.10	
 11.991	 -9.464	 40.52681	 32.92059	  1.97379	 12.98955	 18.74771	 -0.74002	 42.99946	715.26001	 29.10	
 11.990	-28.440	 40.52372	 30.89908	  3.44229	  8.20251	 24.04166	 -0.83969	 43.01515	715.26001	 29.10	
 12.012	-47.388	 40.39741	 27.14329	  6.27314	  4.43356	 28.52016	 -1.02405	 42.99042	715.27002	 29.10	
 12.013	-66.294	 40.33459	 22.45104	 10.38585	  2.15944	 31.54598	 -1.00440	 43.01333	715.22998	 29.10	
 11.989	-85.301	 40.20208	 16.89586	 15.37969	  1.22122	 32.82462	 -1.08901	 42.99239	715.25000	 29.10	
 12.007	-104.200	 40.07379	 11.91479	 20.66953	  1.52512	 32.19149	 -1.05250	 42.99541	715.22998	 29.10	
 12.006	-123.113	 39.95124	  7.51665	 25.75076	  3.30447	 29.66475	 -1.07658	 42.99197	715.17999	 29.10	
 12.013	-142.081	 39.95080	  4.23045	 29.97021	  6.50526	 25.54879	 -1.08332	 43.00992	715.29999	 29.10	
 12.009	-161.059	 39.97901	  2.14905	 32.60632	 10.94897	 20.45794	 -1.08908	 43.01808	715.28998	 29.10	
 16.000	180.000	 37.44421	 -4.27282	 36.92697	 14.08749	 12.91803	 -1.67353	 43.00587	715.21002	 29.10	
 15.990	-165.604	 37.42799	 -3.81118	 36.33352	  8.89329	 18.26129	 -1.52987	 43.03174	715.31000	 29.10	
 16.002	-151.165	 37.36555	 -2.45359	 34.30764	  4.20617	 23.53436	 -1.35662	 43.03765	715.38000	 29.10	
 16.002	-136.836	 37.34008	 -0.16832	 30.93773	  0.55703	 28.34159	 -1.22158	 43.02951	715.29999	 29.10	
 15.995	-122.439	 37.34627	  3.19398	 26.56864	 -2.04537	 32.24766	 -1.15019	 42.99545	715.19000	 29.10	
 15.993	-107.966	 37.47326	  7.43936	 21.43041	 -3.77323	 35.06277	 -1.12619	 43.04251	715.34998	 29.10	
 16.005	-93.629	 37.55342	 12.19708	 16.04192	 -4.54845	 36.38161	 -1.18126	 43.03057	715.28998	 29.10	
 15.992	-79.234	 37.69140	 17.41274	 10.86073	 -4.34018	 36.21944	 -1.22851	 43.01849	715.21997	 29.10	
 16.009	-64.774	 37.81310	 22.82153	  6.17415	 -3.30273	 34.52080	 -1.26642	 43.02112	715.23999	 29.10	
 15.997	-50.364	 37.90997	 27.85451	  2.09638	 -1.35429	 31.39469	 -1.37932	 43.01485	715.23999	 29.10	
 15.997	-36.045	 37.99889	 32.04343	 -1.03976	  1.72928	 27.21606	 -1.43622	 43.01814	715.26001	 29.10	
 16.000	-21.597	 38.04040	 34.99745	 -3.07772	  5.89158	 22.09043	 -1.42520	 43.01148	715.21002	 29.10	
 16.003	 -7.169	 38.06215	 36.60781	 -4.07278	 10.76355	 16.66168	 -1.49911	 43.02530	715.22998	 29.10	
 16.003	  7.169	 38.05861	 36.72308	 -4.23241	 16.03476	 11.39859	 -1.60055	 43.02096	715.20001	 29.10	
 16.000	 21.597	 38.08879	 35.35493	 -3.26976	 21.43549	  6.50166	 -1.56563	 43.05638	715.28003	 29.10	
 15.997	 36.045	 38.07270	 32.51960	 -1.31907	 26.69761	  2.31548	 -1.69298	 43.04322	715.28998	 29.10	
 15.997	 50.364	 38.09264	 28.50245	  1.58123	 31.07324	 -0.89720	 -1.87376	 43.02679	715.28998	 29.20	
 16.009	 64.774	 38.02516	 23.66366	  5.33614	 34.40873	 -3.05531	 -1.93687	 43.03447	715.29999	 29.10	
 15.992	 79.234	 38.01143	 18.35261	  9.79065	 36.33731	 -4.38453	 -1.98458	 43.03224	715.29999	 29.10	
 16.005	 93.629	 37.95454	 13.05692	 14.89064	 36.80040	 -4.68066	 -2.03576	 43.00937	715.25000	 29.20	
 15.993	107.966	 37.93316	  8.10920	 20.25938	 35.78312	 -3.99079	 -1.97909	 43.03821	715.15002	 29.20	
 15.995	122.439	 37.80991	  3.59137	 25.49408	 33.27240	 -2.51369	 -1.95662	 43.02515	715.22998	 29.20	
 16.002	136.836	 37.70019	  0.08108	 30.08191	 29.49135	 -0.00494	 -2.00136	 43.02202	715.25000	 29.20	
 16.002	151.165	 37.60140	 -2.39337	 33.69189	 24.80697	  3.47012	 -1.89008	 43.02430	715.27002	 29.20	
 15.990	165.604	 37.54369	 -3.65049	 36.01861	 19.50501	  7.86802	 -1.79695	 43.02001	715.29999	 29.20	
 20.003	168.362	 34.15623	 -9.18334	 38.95754	 16.80623	  5.30718	 -1.89229	 43.00493	715.23999	 29.20	
 20.008	156.764	 34.21731	 -8.14988	 37.02261	 22.06872	  0.97700	 -2.06756	 43.01756	715.32001	 29.20	
 20.000	145.147	 34.35226	 -6.27156	 33.92060	 27.20951	 -2.61560	 -2.27783	 42.99893	715.27002	 29.20	
 19.995	133.545	 34.48042	 -3.72742	 29.95568	 31.68590	 -5.52757	 -2.48389	 43.02176	715.32001	 29.20	
 20.009	121.926	 34.55693	 -0.51306	 25.18486	 35.35493	 -7.73384	 -2.56862	 43.02167	715.28003	 29.20	
 20.005	110.327	 34.62590	  3.47466	 19.92708	 37.98798	 -9.40158	 -2.69829	 43.01558	715.32001	 29.20	
 19.989	 98.733	 34.71897	  8.16516	 14.63988	 39.39653	-10.13952	 -2.84533	 43.02271	715.23999	 29.20	
 19.999	 87.075	 34.71032	 12.93128	  9.75338	 39.59927	-10.38019	 -2.82455	 43.02795	715.22998	 29.20	
 19.992	 75.457	 34.71759	 18.27114	  5.04224	 38.63764	 -9.79276	 -2.78650	 42.99038	715.31000	 29.20	
 20.009	 63.844	 34.74855	 23.57311	  0.82417	 36.43076	 -8.33007	 -2.79513	 43.01808	715.21997	 29.20	
 19.989	 52.269	 34.83800	 28.51596	 -2.60084	 33.03698	 -6.13082	 -2.76151	 43.01354	715.29999	 29.20	
 19.999	 40.602	 34.79846	 32.78457	 -5.39983	 28.82909	 -3.39878	 -2.64668	 43.01158	715.33002	 29.20	
 20.004	 29.051	 34.79134	 36.20701	 -7.57611	 23.87389	 -0.03769	 -2.41338	 43.02490	715.26001	 29.20	
 20.005	 17.433	 34.79095	 38.51532	 -9.18019	 18.47891	  4.22419	 -2.22719	 43.02880	715.21002	 29.20	
 20.006	  5.780	 34.73269	 39.55256	 -9.89166	 12.98456	  9.04577	 -2.04497	 43.00449	715.35999	 29.20	
 20.006	 -5.780	 34.78661	 39.47050	 -9.73081	  7.99651	 13.94544	 -1.78830	 43.02270	715.34998	 29.20	
 20.005	-17.433	 34.80546	 38.18948	 -8.90461	  3.28893	 19.39517	 -1.57011	 43.04967	715.40002	 29.20	
 20.004	-29.051	 34.79298	 35.76065	 -7.42182	 -0.91765	 24.78521	 -1.40313	 43.07595	715.33002	 29.20	
 19.999	-40.602	 34.70142	 32.31374	 -5.28525	 -4.42817	 29.58688	 -1.22380	 43.07405	715.29999	 29.20	
 19.989	-52.269	 34.67356	 27.81760	 -2.14645	 -6.81466	 33.72698	 -1.19459	 43.08800	715.34003	 29.20	
 20.009	-63.844	 34.54990	 22.69488	  1.69869	 -8.76043	 36.86837	 -1.15747	 43.09371	715.26001	 29.20	
 19.992	-75.457	 34.43358	 17.28786	  6.11969	 -9.79710	 38.76486	 -1.07289	 43.08239	715.28998	 29.10	
 19.999	-87.075	 34.23579	 12.00669	 10.98989	-10.40750	 39.45852	 -0.97752	 43.07091	715.29999	 29.10	
 19.989	-98.733	 34.14553	  7.20624	 16.05729	-10.31104	 38.95075	 -0.94811	 43.10455	715.31000	 29.20	
 20.005	-110.327	 34.08529	  2.65996	 21.30107	 -9.22172	 37.28041	 -0.98167	 43.08497	715.28003	 29.20	
 20.009	-121.926	 34.03574	 -1.14537	 26.49226	 -7.64033	 34.42975	 -1.01971	 43.09119	715.22998	 29.10	
 19.995	-133.545	 34.05562	 -4.15125	 31.16052	 -5.15007	 30.58532	 -1.11764	 43.10600	715.29999	 29.20	
 20.000	-145.147	 34.06256	 -6.62647	 34.97573	 -2.00972	 25.95490	 -1.21864	 43.08826	715.25000	 29.20	
 20.008	-156.764	 34.08895	 -8.40966	 37.73705	  1.84784	 20.70380	 -1.34807	 43.09572	715.28998	 29.20	
 20.003	-168.362	 34.10162	 -9.28276	 39.32657	  6.38057	 15.33878	 -1.45770	 43.07703	715.21997	 29.20	
 20.000	180.000	 34.15298	 -9.67208	 39.76201	 11.41789	 10.18428	 -1.68909	 43.08300	715.23999	 29.20	
