FileType=PCF
NHL=14
Date=03/19/19	11:29:59
Facility=APL
Serial=16071-6
Customer=NASA
NP=6
Mach=0.380000
Calibration=1:1
CalPts=490
TstPts=95
PortNumbering=AP Standard
Units=Torr C m/s kg/m^3 deg mm 
Theta[deg]	Phi[deg]	P1[Torr]	P2[Torr]	P3[Torr]	P4[Torr]	P5[Torr]	P6[Torr]	Pt[Torr]	Ps[Abs,Torr]	Ts[C]	
  0.000	  0.000	 67.48223	 29.97676	 30.38333	 29.88327	 29.13416	  1.57474	 67.51419	715.22998	 31.30	
  1.691	128.401	 67.45905	 27.65650	 32.51855	 32.76834	 26.20380	  1.53676	 67.52535	715.26001	 31.30	
  1.692	 77.194	 67.51585	 30.75429	 29.45741	 33.46760	 25.61106	  1.62880	 67.55099	715.27002	 31.30	
  1.699	 26.182	 67.53732	 33.16590	 27.09062	 31.42342	 27.54015	  1.66173	 67.55493	715.28998	 31.40	
  1.699	-26.182	 67.53078	 33.13543	 27.15723	 28.11876	 30.73215	  1.58905	 67.54773	715.28998	 31.40	
  1.692	-77.194	 67.50191	 30.64608	 29.59668	 26.29957	 32.61232	  1.47965	 67.54816	715.35999	 31.40	
  1.691	-128.401	 67.43797	 27.56064	 32.62411	 26.97956	 31.76054	  1.41641	 67.50871	715.29999	 31.50	
  1.700	180.000	 67.40923	 26.19500	 33.96359	 29.78608	 28.95624	  1.42374	 67.50570	715.25000	 31.60	
  3.400	180.000	 67.26115	 22.14109	 37.40960	 29.51116	 28.59861	  1.18537	 67.53406	715.32001	 31.60	
  3.388	-152.325	 67.31342	 22.91131	 36.65415	 26.25402	 31.96855	  1.14407	 67.58633	715.25000	 31.60	
  3.397	-124.529	 67.31071	 25.08333	 34.36475	 23.66732	 34.75120	  1.15334	 67.54992	715.35999	 31.60	
  3.399	-96.763	 67.37104	 28.67126	 31.10809	 22.40199	 36.13650	  1.20355	 67.56116	715.26001	 31.70	
  3.394	-69.283	 67.42738	 32.12951	 27.67161	 22.80186	 35.81355	  1.30545	 67.55859	715.19000	 31.70	
  3.400	-41.398	 67.46452	 35.08522	 24.79239	 24.70701	 33.80717	  1.43081	 67.53195	715.26001	 31.70	
  3.401	-14.021	 67.48970	 36.74416	 23.20749	 27.56654	 30.74216	  1.54609	 67.53047	715.22998	 31.80	
  3.401	 14.021	 67.53281	 36.82050	 23.13539	 31.18993	 27.23336	  1.61945	 67.57889	715.26001	 31.80	
  3.400	 41.398	 67.50690	 35.20684	 24.63832	 34.39168	 24.20379	  1.62778	 67.58987	715.26001	 31.80	
  3.394	 69.283	 67.46793	 32.30056	 27.41476	 36.51003	 22.20853	  1.59115	 67.57127	715.26001	 31.80	
  3.399	 96.763	 67.44027	 28.84173	 30.82253	 37.00159	 21.71656	  1.48987	 67.59007	715.25000	 31.90	
  3.397	124.529	 67.38513	 25.29021	 34.13302	 35.75115	 22.82937	  1.38027	 67.58428	715.16998	 31.90	
  3.388	152.325	 67.32468	 22.96466	 36.55009	 33.04893	 25.30438	  1.26749	 67.57109	715.22998	 31.90	
  5.099	161.165	 66.95986	 19.23325	 40.08899	 32.70095	 24.64714	  0.89656	 67.58241	715.28998	 32.00	
  5.109	142.013	 66.99966	 20.78571	 38.32671	 36.00374	 21.60057	  0.97658	 67.60645	715.22998	 32.00	
  5.095	123.033	 67.06664	 23.06566	 35.55410	 38.54658	 19.38890	  1.10019	 67.59831	715.19000	 32.00	
  5.105	104.191	 67.12071	 26.31175	 32.16661	 40.10968	 18.12079	  1.20722	 67.58339	715.16998	 32.10	
  5.093	 85.207	 67.18718	 30.19476	 28.56879	 40.37486	 17.94922	  1.30762	 67.60119	715.28998	 32.10	
  5.104	 66.290	 67.18930	 33.73852	 25.14539	 39.31270	 18.79983	  1.37402	 67.54793	715.15002	 32.10	
  5.094	 47.331	 67.22197	 36.82634	 22.25969	 37.16339	 20.69493	  1.43023	 67.56383	715.15997	 32.20	
  5.089	 28.397	 67.19273	 39.00241	 20.22593	 34.16277	 23.48613	  1.43615	 67.51712	715.23999	 32.20	
  5.096	  9.576	 67.24007	 40.13535	 19.21567	 30.66897	 26.83295	  1.40794	 67.55653	715.26001	 32.20	
  5.096	 -9.576	 67.24581	 40.10059	 19.25949	 27.00008	 30.43427	  1.34469	 67.53982	715.23999	 32.20	
  5.089	-28.397	 67.23249	 38.87989	 20.41273	 23.75818	 33.88501	  1.23071	 67.55251	715.23999	 32.30	
  5.094	-47.331	 67.14723	 36.58435	 22.52515	 20.99228	 36.84474	  1.09441	 67.53696	715.19000	 32.30	
  5.104	-66.290	 67.10812	 33.52035	 25.47024	 19.19947	 38.84269	  0.98552	 67.53444	715.10999	 32.30	
  5.093	-85.207	 67.06761	 30.02746	 28.93577	 18.48176	 39.65513	  0.88167	 67.54318	715.15002	 32.40	
  5.105	-104.191	 66.96095	 26.38820	 32.50529	 18.77454	 39.17124	  0.80227	 67.50288	715.19000	 32.40	
  5.095	-123.033	 66.94319	 22.91655	 35.82978	 20.19424	 37.48431	  0.77307	 67.54239	715.17999	 32.40	
  5.109	-142.013	 66.87196	 20.38015	 38.49227	 22.53647	 34.83636	  0.75832	 67.51958	715.14001	 32.40	
  5.099	-161.165	 66.85767	 19.12885	 40.19002	 25.68005	 31.47074	  0.77470	 67.50978	715.15997	 32.50	
  5.100	180.000	 66.85606	 18.66275	 40.68231	 29.07277	 28.01315	  0.82003	 67.49694	715.26001	 32.50	
  6.800	180.000	 66.21923	 14.82291	 43.85136	 28.47095	 27.24277	  0.34533	 67.46962	715.15002	 32.50	
  6.796	-166.229	 66.19724	 15.15014	 43.49274	 25.15015	 30.62494	  0.32896	 67.45453	715.31000	 32.50	
  6.808	-152.311	 66.16834	 16.24096	 42.29520	 21.91359	 34.08485	  0.28909	 67.44404	715.21997	 32.60	
  6.795	-138.383	 66.19373	 18.07516	 40.25229	 19.17226	 37.16193	  0.28843	 67.45251	715.25000	 32.60	
  6.792	-124.591	 66.25874	 20.38460	 37.59917	 17.02910	 39.76566	  0.27991	 67.47376	715.21997	 32.60	
  6.787	-110.754	 66.34000	 22.98995	 34.44279	 15.59028	 41.65108	  0.30741	 67.49631	715.19000	 32.70	
  6.800	-96.985	 66.37171	 26.60604	 31.04095	 14.72512	 42.70499	  0.31792	 67.45528	715.27002	 32.70	
  6.800	-83.015	 66.42536	 30.20212	 27.51783	 14.64480	 42.83082	  0.39440	 67.45122	715.26001	 32.70	
  6.787	-69.246	 66.49841	 33.58400	 24.21206	 15.37782	 42.01047	  0.51590	 67.44907	715.26001	 32.70	
  6.792	-55.409	 66.59082	 36.76043	 21.20890	 16.75306	 40.40987	  0.61190	 67.49752	715.19000	 32.80	
  6.795	-41.617	 66.59713	 39.42332	 18.72916	 18.81125	 37.98265	  0.71030	 67.45249	715.28998	 32.80	
  6.808	-27.689	 66.66952	 41.52451	 16.83901	 21.53712	 34.95998	  0.83352	 67.45731	715.21002	 32.80	
  6.796	-13.771	 66.70613	 42.99092	 15.67957	 24.75676	 31.54159	  0.96172	 67.49134	715.21997	 32.80	
  6.800	  0.000	 66.69619	 43.47810	 15.22840	 28.06185	 28.10125	  1.03873	 67.48854	715.28003	 32.90	
  6.796	 13.771	 66.70840	 43.06419	 15.54317	 31.62296	 24.71865	  1.09060	 67.53038	715.23999	 32.90	
  6.808	 27.689	 66.67919	 41.79098	 16.57289	 35.09347	 21.44136	  1.11466	 67.51408	715.29999	 32.90	
  6.795	 41.617	 66.65903	 39.76892	 18.38062	 38.05962	 18.70375	  1.08222	 67.48241	715.37000	 32.90	
  6.792	 55.409	 66.65874	 37.17617	 20.77585	 40.58185	 16.54286	  1.04817	 67.50163	715.31000	 32.90	
  6.787	 69.246	 66.63970	 33.99150	 23.70631	 42.43020	 15.05089	  1.01005	 67.51175	715.34998	 33.00	
  6.800	 83.015	 66.58079	 30.51410	 26.92419	 43.41280	 14.22883	  0.93737	 67.51298	715.27002	 33.00	
  6.800	 96.985	 66.52470	 26.68794	 30.43246	 43.48594	 14.16623	  0.87473	 67.49160	715.33002	 33.00	
  6.787	110.754	 66.46671	 23.33903	 33.88880	 42.63064	 14.85338	  0.78289	 67.49246	715.21997	 33.00	
  6.792	124.591	 66.45015	 20.69941	 37.10740	 40.94086	 16.16040	  0.69650	 67.53458	715.20001	 33.00	
  6.795	138.383	 66.34635	 18.25208	 39.83985	 38.41970	 18.22429	  0.57733	 67.48194	715.12000	 33.10	
  6.808	152.311	 66.28101	 16.36268	 42.00567	 35.44093	 20.80859	  0.51582	 67.49374	715.09003	 33.10	
  6.796	166.229	 66.31186	 15.29569	 43.37865	 32.04935	 23.98216	  0.42904	 67.54814	715.10999	 33.10	
  8.491	168.704	 65.44611	 11.38090	 46.46126	 31.40590	 22.99383	 -0.29314	 67.51067	715.06000	 33.10	
  8.502	157.493	 65.47178	 12.26287	 45.32860	 34.92829	 19.75271	 -0.01424	 67.51527	715.10999	 33.10	
  8.494	146.194	 65.52612	 13.78192	 43.40726	 38.13354	 16.96523	  0.04655	 67.48579	715.19000	 33.20	
  8.495	135.039	 65.57780	 15.78745	 40.98855	 41.02189	 14.61352	  0.14764	 67.48051	715.21997	 33.20	
  8.487	123.723	 65.59892	 18.31428	 38.04696	 43.42165	 12.62221	  0.23498	 67.46242	715.21997	 33.20	
  8.492	112.575	 65.68508	 21.22367	 34.83116	 45.23331	 11.22233	  0.22168	 67.49512	715.09998	 33.20	
  8.510	101.220	 65.72359	 24.51181	 31.29972	 46.38622	 10.39704	  0.39261	 67.48004	715.14001	 33.20	
  8.500	 90.000	 65.78006	 27.72674	 27.77330	 46.69558	 10.20796	  0.45641	 67.48222	715.16998	 33.30	
  8.510	 78.780	 65.85009	 31.58960	 24.37047	 46.30060	 10.53650	  0.49230	 67.51220	715.28998	 33.30	
  8.492	 67.425	 65.86293	 35.14468	 21.12216	 44.99660	 11.57857	  0.54122	 67.47251	715.15997	 33.30	
  8.487	 56.277	 65.94538	 38.33054	 18.32817	 43.09855	 13.16510	  0.58977	 67.51667	715.14001	 33.30	
  8.495	 44.961	 65.96793	 41.10588	 15.88132	 40.62337	 15.18062	  0.64531	 67.51025	715.09998	 33.30	
  8.494	 33.806	 65.95624	 43.34549	 13.94726	 37.73772	 17.66846	  0.69177	 67.51207	715.33002	 33.30	
  8.502	 22.507	 65.95203	 45.16653	 12.44525	 34.44801	 20.58806	  0.69565	 67.50949	715.20001	 33.30	
  8.491	 11.296	 65.95461	 46.25788	 11.57620	 30.85081	 23.93483	  0.66523	 67.50089	715.27002	 33.40	
  8.500	  0.000	 65.99057	 46.64813	 11.28693	 27.21957	 27.44802	  0.60010	 67.51675	715.15997	 33.40	
  8.491	-11.296	 65.97314	 46.17545	 11.72105	 23.78901	 30.98778	  0.53233	 67.49878	715.22998	 33.40	
  8.502	-22.507	 65.93256	 45.01626	 12.60949	 20.47515	 34.51328	  0.41324	 67.47595	715.20001	 33.40	
  8.494	-33.806	 65.90436	 43.04365	 14.18726	 17.52998	 37.79555	  0.27549	 67.47710	715.14001	 33.50	
  8.495	-44.961	 65.89093	 40.56869	 16.27141	 15.15273	 40.64863	  0.13072	 67.50157	715.13000	 33.50	
  8.487	-56.277	 65.84859	 37.78259	 18.84475	 13.23019	 42.99184	 -0.02742	 67.51560	715.13000	 33.50	
  8.492	-67.425	 65.77451	 34.64341	 21.76409	 11.77560	 44.71778	 -0.02631	 67.51096	715.23999	 33.50	
  8.510	-78.780	 65.64063	 31.08263	 25.12886	 10.89716	 45.75498	 -0.15247	 67.47855	714.51001	 33.50	
  8.500	-90.000	 65.58904	 27.48532	 28.61693	 10.69364	 46.00709	 -0.24091	 67.49705	715.10999	 33.50	
  8.510	-101.220	 65.52234	 23.74130	 32.11837	 11.06486	 45.50639	 -0.33894	 67.47817	715.21997	 33.50	
  8.492	-112.575	 65.50002	 20.47231	 35.61119	 12.10554	 44.24013	 -0.26416	 67.50912	715.09998	 33.50	
  8.487	-123.723	 65.41885	 18.08351	 38.73754	 13.57699	 42.28867	 -0.50501	 67.48651	715.15002	 33.50	
  8.495	-135.039	 65.37608	 15.59131	 41.62164	 15.53668	 39.72646	 -0.31267	 67.49256	715.12000	 33.60	
  8.494	-146.194	 65.33585	 13.61774	 43.90139	 18.01845	 36.76619	 -0.25596	 67.46703	715.13000	 33.60	
  8.502	-157.493	 65.35296	 12.06149	 45.65846	 20.98756	 33.43604	 -0.22193	 67.49537	715.17999	 33.60	
  8.491	-168.704	 65.37806	 11.22524	 46.61319	 24.32277	 29.84947	 -0.19441	 67.48959	715.25000	 33.60	
  8.500	180.000	 65.35882	 10.99375	 46.88751	 27.74442	 26.41100	 -0.16562	 67.45740	715.01001	 33.60	
 10.200	180.000	 64.29105	  7.06146	 49.73029	 26.86801	 25.49026	 -1.14017	 67.46406	715.09003	 33.60	
 10.191	-170.497	 64.28214	  7.26429	 49.49319	 23.39621	 28.89027	 -1.13229	 67.46769	715.13000	 33.60	
 10.210	-161.034	 64.26830	  7.93563	 48.72583	 19.96036	 32.52041	 -1.14548	 67.47624	715.04999	 33.60	
 10.194	-151.526	 64.25929	  9.22580	 47.23637	 16.82359	 36.03169	 -1.15491	 67.50533	715.20001	 33.70	
 10.190	-142.105	 64.26223	 10.95596	 45.26370	 14.16632	 39.16613	 -1.15504	 67.49450	715.14001	 33.70	
 10.215	-132.646	 64.26608	 13.00221	 42.71900	 11.85182	 42.13450	 -1.18748	 67.48448	715.15002	 33.70	
 10.203	-123.092	 64.24048	 15.45822	 39.70352	  9.82263	 44.60856	 -1.16511	 67.43965	715.21002	 33.70	
 10.192	-113.678	 64.32624	 18.23380	 36.52911	  8.33917	 46.54068	 -0.96012	 67.46364	715.13000	 33.70	
 10.208	-104.249	 64.39627	 20.98711	 33.12067	  7.33676	 47.97485	 -1.15149	 67.46555	715.15997	 33.70	
 10.210	-94.801	 64.47623	 24.55646	 29.55477	  6.84634	 48.76700	 -0.93697	 67.49258	715.15002	 33.70	
 10.210	-85.199	 64.57293	 28.38218	 25.96696	  6.74090	 48.93399	 -0.81141	 67.49886	715.21002	 33.70	
 10.208	-75.751	 64.63882	 31.98901	 22.51353	  7.09856	 48.38753	 -0.97452	 67.49412	715.17999	 33.70	
 10.192	-66.322	 64.72154	 35.43028	 19.27462	  7.98779	 47.16975	 -0.66507	 67.47591	715.15997	 33.70	
 10.203	-56.908	 64.79845	 38.56973	 16.36124	  9.39408	 45.43981	 -0.84804	 67.50031	715.10999	 33.70	
 10.215	-47.354	 64.81953	 41.50735	 13.76306	 11.35877	 43.08795	 -0.52300	 67.44534	715.20001	 33.70	
 10.190	-37.895	 64.92226	 44.24005	 11.62513	 13.69946	 40.28037	 -0.49756	 67.45474	715.10999	 33.80	
 10.194	-28.474	 64.98681	 46.46090	  9.86860	 16.36735	 37.18941	 -0.27490	 67.49917	715.21002	 33.80	
 10.210	-18.966	 64.96216	 48.08834	  8.52796	 19.47608	 33.69427	 -0.13388	 67.45256	715.19000	 33.80	
 10.191	 -9.503	 65.00227	 49.03686	  7.89637	 22.86515	 30.09558	 -0.00179	 67.46609	715.12000	 33.80	
 10.200	  0.000	 65.01791	 49.42065	  7.66072	 26.37244	 26.57718	  0.06464	 67.48825	714.84998	 33.80	
 10.191	  9.503	 64.99061	 49.11871	  7.85300	 29.94477	 23.07484	  0.13031	 67.48330	715.12000	 33.80	
 10.210	 18.966	 64.97385	 48.23934	  8.44947	 33.55840	 19.68200	  0.15414	 67.47150	715.23999	 33.80	
 10.194	 28.474	 64.94167	 46.70877	  9.68064	 36.95436	 16.65854	  0.14606	 67.45821	715.17999	 33.80	
 10.190	 37.895	 64.95591	 44.62262	 11.26864	 40.16051	 13.95282	  0.11029	 67.47931	715.21002	 33.80	
 10.215	 47.354	 64.95903	 42.15721	 13.25549	 43.05406	 11.50534	  0.02915	 67.49200	714.40997	 33.90	
 10.203	 56.908	 64.96616	 39.29802	 15.71839	 45.49093	  9.52337	 -0.03924	 67.53230	714.34003	 33.90	
 10.192	 66.322	 64.88283	 36.08362	 18.44176	 47.34303	  8.05564	 -0.29286	 67.47511	714.77002	 33.90	
 10.208	 75.751	 64.85053	 32.59585	 21.53688	 48.71329	  6.97495	 -0.16816	 67.46686	715.12000	 33.90	
 10.210	 85.199	 64.83418	 28.90061	 24.92772	 49.48105	  6.47079	 -0.14386	 67.49715	715.14001	 33.90	
 10.210	 94.801	 64.74432	 25.34754	 28.44241	 49.51131	  6.35593	 -0.15207	 67.44575	715.10999	 34.00	
 10.208	104.249	 64.74200	 21.92827	 32.03085	 48.93301	  6.73336	 -0.18467	 67.50859	715.21002	 34.00	
 10.192	113.678	 64.66443	 18.70740	 35.50375	 47.66444	  7.67995	 -0.76506	 67.47328	714.48999	 34.00	
 10.203	123.092	 64.62761	 15.78806	 38.82525	 45.89630	  8.91449	 -0.86326	 67.51733	714.51001	 34.00	
 10.215	132.646	 64.52940	 13.21576	 41.84966	 43.53191	 10.70737	 -0.93244	 67.48258	714.48999	 34.00	
 10.190	142.105	 64.48832	 11.14139	 44.51767	 40.68565	 13.12169	 -0.95700	 67.47093	714.44000	 34.00	
 10.194	151.526	 64.41157	  9.40188	 46.68615	 37.50489	 15.79885	 -0.99291	 67.45517	715.15002	 34.10	
 10.210	161.034	 64.37957	  8.08134	 48.38181	 34.16555	 18.60684	 -1.05360	 67.50128	715.23999	 34.10	
 10.191	170.497	 64.31734	  7.40536	 49.32738	 30.46853	 21.97304	 -1.15783	 67.45723	715.31000	 34.10	
 11.899	171.783	 63.04524	  3.43136	 52.06747	 29.41387	 20.81485	 -1.74051	 67.48848	714.75000	 34.10	
 11.890	163.610	 63.06984	  4.06533	 51.13675	 33.10263	 17.56834	 -1.66567	 67.47830	715.10999	 34.10	
 11.889	155.445	 63.11984	  5.09265	 49.70544	 36.59155	 14.60038	 -1.59622	 67.46094	714.46997	 34.10	
 11.909	147.299	 63.16287	  6.54366	 47.75955	 39.93631	 11.65527	 -1.58159	 67.45316	714.41998	 34.10	
 11.902	139.148	 63.23097	  8.38206	 45.34467	 43.00574	  9.18084	 -1.58751	 67.47166	715.15997	 34.10	
 11.894	130.867	 63.30849	 10.63996	 42.52497	 45.70691	  7.10416	 -1.55757	 67.48013	715.08002	 34.10	
 11.897	122.732	 63.37774	 13.25218	 39.40848	 48.00061	  5.49118	 -1.47276	 67.46618	714.53003	 34.10	
 11.903	114.597	 63.43750	 16.11504	 36.09636	 49.87882	  4.06186	 -1.47424	 67.46938	715.09003	 34.10	
 11.893	106.346	 63.47623	 19.26726	 32.56872	 51.22384	  3.14068	 -1.46206	 67.46146	714.58002	 34.10	
 11.892	 98.155	 63.54564	 22.61967	 28.97195	 52.04314	  2.58966	 -1.48256	 67.46410	714.46997	 34.10	
 11.900	 90.000	 63.58600	 26.13146	 25.43350	 52.30186	  2.39233	 -1.44937	 67.46690	714.54999	 34.10	
 11.892	 81.845	 63.61636	 29.66461	 22.01679	 51.92021	  2.71596	 -1.39868	 67.47549	714.46002	 34.20	
 11.893	 73.654	 63.61824	 33.33956	 18.71089	 50.95689	  3.42798	 -1.32688	 67.42453	714.79999	 34.20	
 11.903	 65.403	 63.63363	 36.81834	 15.66148	 49.50345	  4.53534	 -1.31083	 67.43681	714.53003	 34.20	
 11.897	 57.268	 63.66132	 40.04792	 12.97755	 47.54152	  6.06839	 -1.30427	 67.43243	715.23999	 34.20	
 11.894	 49.133	 63.68853	 42.98234	 10.50433	 45.17419	  7.78032	 -1.24353	 67.42339	715.19000	 34.20	
 11.902	 40.852	 63.68684	 45.70786	  8.35702	 42.36994	 10.10372	 -1.02461	 67.43620	714.47998	 34.20	
 11.909	 32.701	 63.71519	 48.02143	  6.65906	 39.28870	 12.66060	 -0.96983	 67.47484	714.53998	 34.20	
 11.889	 24.555	 63.68743	 49.71687	  5.36177	 35.89401	 15.52182	 -0.53659	 67.41480	714.48999	 34.20	
 11.890	 16.390	 63.69748	 50.98544	  4.36197	 32.37211	 18.58636	 -0.76755	 67.38240	715.19000	 34.20	
 11.899	  8.217	 63.74147	 51.80032	  3.76135	 28.76617	 22.02064	 -0.67390	 67.43919	715.21997	 34.20	
 11.900	  0.000	 63.73206	 52.00154	  3.54860	 25.06998	 25.64696	 -0.76974	 67.41579	714.91998	 34.20	
 11.899	 -8.217	 63.75438	 51.70489	  3.90033	 21.59597	 29.22081	 -0.99780	 67.44185	714.58002	 34.20	
 11.890	-16.390	 63.76887	 50.86586	  4.58271	 18.20807	 32.87544	 -1.13276	 67.45258	714.48999	 34.20	
 11.889	-24.555	 63.71748	 49.38837	  5.55084	 15.03135	 36.40646	 -1.21227	 67.43453	714.46002	 34.20	
 11.909	-32.701	 63.70122	 47.52785	  7.04946	 12.10653	 39.70666	 -1.32936	 67.46698	714.40002	 34.20	
 11.902	-40.852	 63.62917	 45.18209	  8.92433	  9.43045	 42.73281	 -1.44056	 67.45242	714.57001	 34.30	
 11.894	-49.133	 63.55917	 42.27610	 11.19189	  7.42735	 45.40106	 -1.49852	 67.45193	714.54999	 34.20	
 11.897	-57.268	 63.47585	 39.21423	 13.78410	  5.85567	 47.63293	 -1.48635	 67.39898	714.48999	 34.30	
 11.903	-65.403	 63.43043	 36.04151	 16.66105	  4.53770	 49.40629	 -1.47262	 67.42887	714.53003	 34.30	
 11.893	-73.654	 63.34569	 32.58738	 19.84294	  3.59298	 50.64352	 -1.51672	 67.41036	714.54999	 34.30	
 11.892	-81.845	 63.29869	 28.95393	 23.28338	  2.98207	 51.43129	 -1.56846	 67.45397	714.53003	 34.30	
 11.900	-90.000	 63.19390	 25.25704	 26.75426	  2.84022	 51.58181	 -1.40897	 67.44527	714.50000	 34.30	
 11.892	-98.155	 63.15797	 21.74610	 30.29803	  3.15775	 51.16713	 -1.58646	 67.46187	714.54999	 34.30	
 11.893	-106.346	 63.02135	 18.57258	 33.81193	  3.79400	 50.14574	 -1.55829	 67.39468	714.56000	 34.30	
 11.903	-114.597	 62.94975	 15.51068	 37.25899	  4.86792	 48.65811	 -1.55573	 67.41266	714.50000	 34.40	
 11.897	-122.732	 62.88467	 12.76695	 40.47127	  6.28061	 46.69349	 -1.60579	 67.42978	714.53998	 34.30	
 11.894	-130.867	 62.86110	 10.33361	 43.48507	  8.04654	 44.25619	 -1.62309	 67.43450	714.56000	 34.30	
 11.902	-139.148	 62.86179	  8.17457	 46.23307	 10.19901	 41.35757	 -1.61461	 67.42779	714.52002	 34.40	
 11.909	-147.299	 62.85632	  6.39112	 48.48159	 12.90543	 38.20282	 -1.60810	 67.43346	714.47998	 34.40	
 11.889	-155.445	 62.87509	  5.01748	 50.19528	 15.69160	 34.91036	 -1.62020	 67.42175	714.59003	 34.40	
 11.890	-163.610	 62.91354	  3.98964	 51.44292	 18.92427	 31.33337	 -1.64798	 67.43448	714.63000	 34.40	
 11.899	-171.783	 62.92591	  3.34321	 52.14548	 22.31099	 27.79355	 -1.69775	 67.42084	714.51001	 34.40	
 11.900	180.000	 62.94968	  3.13550	 52.36597	 25.78901	 24.31361	 -1.75021	 67.43670	714.53998	 34.40	
 13.600	180.000	 61.43170	 -1.00380	 54.84064	 24.52682	 23.03242	 -2.22413	 67.43243	714.59998	 34.40	
 13.608	-172.853	 61.37661	 -0.86816	 54.66290	 21.05664	 26.46408	 -2.16067	 67.41572	714.56000	 34.40	
 13.611	-165.583	 61.36734	 -0.21658	 54.06096	 17.61531	 30.06588	 -2.05607	 67.41798	714.56000	 34.40	
 13.601	-158.353	 61.35632	  0.63112	 52.94043	 14.43281	 33.67966	 -1.96468	 67.43887	714.47998	 34.40	
 13.609	-151.210	 61.29760	  1.67790	 51.37398	 11.43434	 37.03230	 -1.89626	 67.39555	714.48999	 34.50	
 13.611	-143.999	 61.28201	  3.15304	 49.36462	  8.85526	 40.36614	 -1.89382	 67.40968	714.53998	 34.50	
 13.601	-136.825	 61.26889	  4.99932	 46.93313	  6.35185	 43.40413	 -1.88453	 67.38420	714.63000	 34.50	
 13.596	-129.640	 61.31892	  7.15964	 44.19506	  4.23802	 46.14830	 -1.84645	 67.42253	714.57001	 34.50	
 13.611	-122.431	 61.33609	  9.65320	 41.09937	  2.51096	 48.57109	 -1.78518	 67.40287	714.56000	 34.50	
 13.604	-115.211	 61.40564	 12.74154	 37.84239	  1.10794	 50.61833	 -1.74291	 67.42177	714.65002	 34.50	
 13.595	-108.042	 61.45902	 15.70120	 34.44169	 -0.01920	 52.23476	 -1.76132	 67.43218	714.62000	 34.50	
 13.607	-100.793	 61.52412	 18.88264	 30.86917	 -0.79530	 53.39737	 -1.78268	 67.45589	714.54999	 34.50	
 13.601	-93.617	 61.56198	 22.14268	 27.26158	 -1.14614	 53.98783	 -1.79877	 67.39590	714.54999	 34.50	
 13.601	-86.383	 61.65053	 25.55009	 23.75385	 -1.23333	 54.12992	 -1.82096	 67.42240	714.53998	 34.50	
 13.607	-79.207	 61.72139	 29.34775	 20.33262	 -0.91667	 53.72812	 -1.82661	 67.40513	714.59003	 34.50	
 13.595	-71.958	 61.82213	 32.99765	 17.04294	 -0.26050	 52.83783	 -1.81242	 67.41324	714.63000	 34.60	
 13.604	-64.789	 61.89492	 36.42033	 13.97328	  0.70442	 51.49560	 -1.79289	 67.39554	714.58002	 34.60	
 13.611	-57.569	 61.94957	 39.70445	 11.10028	  2.03110	 49.68883	 -1.83663	 67.37534	714.53998	 34.60	
 13.596	-50.360	 62.07113	 42.72091	  8.48237	  3.67586	 47.52422	 -1.90848	 67.45013	714.59003	 34.60	
 13.601	-43.175	 62.10720	 45.81199	  6.19079	  5.64953	 44.91247	 -1.93804	 67.42960	714.54999	 34.60	
 13.611	-36.001	 62.17483	 48.34609	  4.18332	  8.02739	 41.94278	 -1.84472	 67.39388	714.51001	 34.60	
 13.609	-28.790	 62.20321	 50.43553	  2.47272	 10.50373	 38.65112	 -1.74417	 67.38905	714.50000	 34.60	
 13.601	-21.647	 62.25437	 52.12737	  1.26079	 13.63302	 35.25680	 -1.66162	 67.40564	714.46002	 34.60	
 13.611	-14.417	 62.30515	 53.42918	  0.46822	 16.87289	 31.65998	 -1.66930	 67.43871	715.33002	 34.60	
 13.608	 -7.147	 62.31830	 54.25722	 -0.12042	 20.33911	 27.96465	 -1.65980	 67.45208	714.57001	 34.60	
 13.600	  0.000	 62.24868	 54.47564	 -0.38511	 23.77238	 24.42078	 -1.64582	 67.38493	714.53003	 34.60	
 13.608	  7.147	 62.21360	 54.27282	 -0.26930	 27.39463	 20.83914	 -1.63119	 67.37865	714.62000	 34.60	
 13.611	 14.417	 62.22589	 53.58373	  0.26132	 31.04087	 17.35265	 -1.61624	 67.39970	714.60999	 34.60	
 13.601	 21.647	 62.22399	 52.43677	  1.13067	 34.65834	 14.23812	 -1.55585	 67.40241	714.47998	 34.60	
 13.609	 28.790	 62.21104	 50.92954	  2.24472	 38.15361	 11.33666	 -1.50512	 67.41926	714.84003	 34.60	
 13.611	 36.001	 62.21568	 48.91957	  3.66444	 41.46230	  8.55418	 -1.66057	 67.44001	714.53003	 34.60	
 13.601	 43.175	 62.18931	 46.42621	  5.49591	 44.36779	  6.22275	 -1.83892	 67.40091	714.52002	 34.60	
 13.596	 50.360	 62.25531	 43.65774	  7.66770	 47.11536	  4.20967	 -1.93239	 67.41920	714.52002	 34.70	
 13.611	 57.569	 62.13987	 40.58369	 10.08450	 49.52452	  2.28629	 -1.98606	 67.40403	714.57001	 34.70	
 13.604	 64.789	 62.10511	 37.30488	 12.79717	 51.46838	  0.83393	 -2.02602	 67.37611	714.59998	 34.70	
 13.595	 71.958	 62.11900	 33.86978	 15.70211	 52.96970	 -0.29422	 -2.05786	 67.40919	714.51001	 34.70	
 13.607	 79.207	 62.09635	 30.18766	 18.90862	 54.05721	 -1.11054	 -2.05453	 67.40244	714.60999	 34.70	
 13.601	 86.383	 62.04683	 26.63725	 22.28404	 54.59333	 -1.49652	 -2.07136	 67.39445	714.46002	 34.70	
 13.601	 93.617	 62.00845	 23.10561	 25.75742	 54.64915	 -1.52483	 -2.12184	 67.38289	714.47998	 34.70	
 13.607	100.793	 61.95439	 19.67554	 29.32245	 54.18726	 -1.17414	 -2.15004	 67.37070	714.59998	 34.70	
 13.595	108.042	 61.92841	 16.42822	 32.92381	 53.25023	 -0.62150	 -2.13190	 67.38229	714.56000	 34.70	
 13.604	115.211	 61.82476	 13.38303	 36.34845	 51.86296	  0.31576	 -2.13104	 67.33057	714.54999	 34.70	
 13.611	122.431	 61.78278	 10.48606	 39.77537	 49.97651	  1.62520	 -2.10780	 67.35220	714.53998	 34.70	
 13.596	129.640	 61.78380	  7.85186	 42.96890	 47.66605	  3.36053	 -2.16985	 67.40150	714.56000	 34.70	
 13.601	136.825	 61.65525	  5.35808	 45.81816	 44.96298	  5.47916	 -2.22392	 67.35026	714.58002	 34.70	
 13.611	143.999	 61.58754	  3.34570	 48.40548	 42.11127	  7.68898	 -2.22578	 67.35912	714.47998	 34.70	
 13.609	151.210	 61.57093	  1.80770	 50.62271	 38.87497	 10.32118	 -2.17306	 67.39670	714.50000	 34.70	
 13.601	158.353	 61.49122	  0.59815	 52.33810	 35.37730	 13.23469	 -2.17119	 67.35176	714.54999	 34.70	
 13.611	165.583	 61.44999	 -0.30659	 53.65149	 31.78047	 16.30193	 -2.22719	 67.38296	714.53998	 34.70	
 13.608	172.853	 61.39251	 -0.85995	 54.46933	 28.15600	 19.56637	 -2.21526	 67.37519	714.46997	 34.80	
 15.298	173.587	 59.65274	 -4.47341	 56.68639	 26.77165	 18.17976	 -2.54954	 67.33451	714.47998	 34.80	
 15.291	167.167	 59.69776	 -4.10270	 55.94990	 30.34405	 14.94648	 -2.60987	 67.34799	714.53003	 34.80	
 15.307	160.676	 59.76542	 -3.32536	 54.83173	 33.93779	 11.90380	 -2.62891	 67.38428	714.53003	 34.80	
 15.300	154.261	 59.80643	 -2.33997	 53.22895	 37.51229	  8.97963	 -2.64468	 67.37335	714.50000	 34.80	
 15.288	147.854	 59.91110	 -1.00780	 51.25507	 40.88637	  6.27206	 -2.71046	 67.40780	714.57001	 34.80	
 15.293	141.428	 59.92950	  0.71876	 48.81173	 43.95792	  3.82754	 -2.80713	 67.33711	714.50000	 34.80	
 15.299	134.985	 60.03128	  2.71952	 46.15238	 46.88950	  1.49993	 -2.82138	 67.38525	714.35999	 34.80	
 15.305	128.583	 60.00377	  5.08010	 43.14609	 49.49783	 -0.46369	 -2.77580	 67.32398	714.46997	 34.80	
 15.309	122.142	 60.11461	  7.61711	 39.96626	 51.84748	 -2.02130	 -2.73899	 67.37331	714.51001	 34.80	
 15.304	115.711	 60.13781	 10.57119	 36.54893	 53.63415	 -3.23090	 -2.71530	 67.31413	714.47998	 34.80	
 15.297	109.291	 60.24966	 13.62903	 33.07805	 55.10126	 -4.10205	 -2.73883	 67.37550	714.57001	 34.80	
 15.293	102.897	 60.31335	 16.77486	 29.55441	 56.10669	 -4.69965	 -2.78285	 67.36415	714.40997	 34.80	
 15.293	 96.458	 60.35138	 20.12660	 25.97132	 56.70532	 -5.10633	 -2.80359	 67.37906	714.46002	 34.90	
 15.300	 90.000	 60.37818	 23.55426	 22.47695	 56.92295	 -5.20148	 -2.75289	 67.38084	714.48999	 34.90	
 15.293	 83.542	 60.37724	 27.05358	 19.09492	 56.59794	 -5.05679	 -2.71888	 67.34756	714.39001	 34.90	
 15.293	 77.103	 60.40799	 30.56689	 15.84033	 55.87134	 -4.66973	 -2.69114	 67.38477	714.38000	 34.90	
 15.297	 70.709	 60.34644	 34.13437	 12.72915	 54.73302	 -3.92099	 -2.72241	 67.32378	714.52002	 34.90	
 15.304	 64.289	 60.36310	 37.59894	  9.90332	 53.20179	 -2.78937	 -2.68766	 67.31779	714.48999	 34.90	
 15.309	 57.858	 60.36847	 40.92403	  7.20072	 51.23230	 -1.36493	 -2.64472	 67.32240	714.41998	 34.90	
 15.305	 51.417	 60.48263	 44.04398	  4.79842	 48.85717	  0.38264	 -2.58608	 67.34724	714.51001	 34.90	
 15.299	 45.015	 60.48260	 46.92820	  2.67787	 46.12646	  2.36644	 -2.53122	 67.35350	714.35999	 34.80	
 15.293	 38.572	 60.49690	 49.53306	  0.82667	 43.17286	  4.62947	 -2.35000	 67.35880	714.38000	 34.80	
 15.288	 32.146	 60.42410	 51.71411	 -0.81668	 39.99006	  7.11667	 -2.20012	 67.32367	714.47998	 34.80	
 15.300	 25.739	 60.41721	 53.50690	 -2.09184	 36.57978	  9.99756	 -2.17568	 67.31664	714.48999	 34.80	
 15.307	 19.324	 60.52020	 54.94801	 -3.04983	 32.97753	 13.06323	 -2.17790	 67.36674	714.40002	 34.80	
 15.291	 12.833	 60.48288	 55.93621	 -3.73999	 29.47600	 16.12496	 -2.18985	 67.33264	714.41998	 34.80	
 15.298	  6.413	 60.51578	 56.57685	 -4.12587	 25.82872	 19.49490	 -2.19929	 67.36375	714.46002	 34.80	
 15.300	  0.000	 60.50454	 56.74746	 -4.19188	 22.24532	 23.00752	 -2.19410	 67.32544	714.50000	 34.90	
 15.298	 -6.413	 60.54110	 56.53368	 -3.98942	 18.79660	 26.56083	 -2.11344	 67.37951	714.52002	 34.90	
 15.291	-12.833	 60.55993	 55.79180	 -3.48523	 15.39772	 30.23229	 -2.07541	 67.38044	714.48999	 34.90	
 15.307	-19.324	 60.51928	 54.64009	 -2.87420	 12.06328	 33.89898	 -2.05012	 67.38467	714.48999	 34.90	
 15.300	-25.739	 60.42717	 52.99311	 -1.88632	  9.23041	 37.29344	 -2.03217	 67.30483	714.46997	 34.90	
 15.288	-32.146	 60.42639	 51.08829	 -0.44405	  6.41845	 40.68872	 -2.05263	 67.31333	714.59003	 34.90	
 15.293	-38.572	 60.35179	 48.78324	  1.30482	  3.85849	 43.89454	 -2.09965	 67.31957	714.48999	 34.90	
 15.299	-45.015	 60.26255	 46.10269	  3.35098	  1.67165	 46.76727	 -2.11900	 67.29745	714.51001	 34.90	
 15.305	-51.417	 60.22727	 43.01917	  5.68328	 -0.18520	 49.35145	 -2.04595	 67.33656	714.54999	 34.90	
 15.309	-57.858	 60.14773	 39.86431	  8.28941	 -1.79105	 51.58646	 -1.97470	 67.32286	714.56000	 34.90	
 15.304	-64.289	 60.05988	 36.59993	 11.13623	 -3.09958	 53.34766	 -1.89870	 67.30698	714.59003	 34.90	
 15.297	-70.709	 59.97140	 33.12032	 14.17341	 -4.03610	 54.73260	 -1.86774	 67.31239	714.50000	 34.90	
 15.293	-77.103	 59.90632	 29.53713	 17.33236	 -4.70378	 55.70726	 -1.84224	 67.30657	714.65002	 34.90	
 15.293	-83.542	 59.86622	 25.76060	 20.68254	 -5.02303	 56.28514	 -1.81279	 67.35697	714.56000	 34.90	
 15.300	-90.000	 59.72439	 22.39543	 24.08355	 -5.14834	 56.36321	 -1.79293	 67.29265	714.60999	 34.90	
 15.293	-96.458	 59.65925	 19.09863	 27.60085	 -4.98589	 56.00754	 -1.77676	 67.31274	714.59003	 34.90	
 15.293	-102.897	 59.58414	 15.84504	 31.21760	 -4.51224	 55.20810	 -1.71771	 67.29443	714.58002	 34.90	
 15.297	-109.291	 59.54720	 12.74894	 34.74627	 -3.73174	 53.99317	 -1.71522	 67.30434	714.58002	 34.90	
 15.304	-115.711	 59.47818	  9.78805	 38.16811	 -2.63387	 52.31798	 -1.73127	 67.29945	714.51001	 34.90	
 15.309	-122.142	 59.45678	  7.01191	 41.53318	 -1.15354	 50.26598	 -1.76147	 67.32594	714.53003	 34.90	
 15.305	-128.583	 59.38163	  4.50173	 44.62952	  0.46748	 47.88050	 -1.80872	 67.31764	714.52002	 34.90	
 15.299	-134.985	 59.41469	  2.36691	 47.43774	  2.44927	 45.17648	 -1.85124	 67.31702	714.57001	 34.90	
 15.293	-141.428	 59.40406	  0.43661	 49.89983	  4.74119	 42.21893	 -1.91658	 67.25435	714.59003	 35.00	
 15.288	-147.854	 59.43064	 -1.11730	 52.08395	  7.34128	 38.98763	 -1.97901	 67.28319	714.52002	 35.00	
 15.300	-154.261	 59.45808	 -2.34710	 53.89782	 10.17557	 35.61381	 -2.06668	 67.31075	714.50000	 35.00	
 15.307	-160.676	 59.47224	 -3.28744	 55.27758	 12.92130	 32.13906	 -2.16361	 67.28505	714.58002	 35.00	
 15.291	-167.167	 59.53386	 -4.02371	 56.24527	 16.31724	 28.56636	 -2.31920	 67.29255	714.62000	 35.00	
 15.298	-173.587	 59.53438	 -4.56361	 56.81227	 19.68951	 25.00813	 -2.41290	 67.28717	714.50000	 35.00	
 15.300	180.000	 59.53944	 -4.66554	 56.92752	 23.12553	 21.58004	 -2.48236	 67.26881	714.62000	 35.00	
 17.000	180.000	 57.57347	 -8.26414	 58.94772	 21.59600	 20.02713	 -2.61453	 67.24948	714.54999	 35.00	
 16.990	-174.179	 57.57702	 -8.08860	 58.85712	 18.19812	 23.38633	 -2.48052	 67.28748	714.53998	 35.00	
 17.009	-168.383	 57.47373	 -7.62925	 58.32297	 14.71505	 26.83720	 -2.34667	 67.20745	714.60999	 35.00	
 17.000	-162.596	 57.52198	 -7.02898	 57.45150	 11.71451	 30.43073	 -2.23233	 67.23895	714.54999	 35.00	
 16.990	-156.759	 57.50180	 -6.20028	 56.22361	  8.76639	 33.93103	 -2.14078	 67.26498	714.50000	 35.00	
 16.995	-150.919	 57.38762	 -5.10426	 54.55544	  5.74580	 37.44147	 -1.97285	 67.22104	714.56000	 35.00	
 16.988	-145.161	 57.36922	 -3.83622	 52.64343	  3.20794	 40.71270	 -1.90162	 67.23923	714.54999	 35.00	
 17.014	-139.343	 57.33347	 -2.35531	 50.39522	  0.89388	 43.82346	 -1.78761	 67.26236	714.53998	 35.00	
 17.007	-133.546	 57.33012	 -0.49989	 47.72282	 -1.19540	 46.71756	 -1.73249	 67.21371	714.41998	 35.00	
 17.001	-127.699	 57.29639	  1.66453	 44.74403	 -3.09653	 49.43375	 -1.65681	 67.18473	714.53998	 35.00	
 17.006	-121.937	 57.31356	  3.93978	 41.67455	 -4.69976	 51.81587	 -1.62423	 67.19552	714.51001	 35.00	
 17.002	-116.134	 57.40179	  6.57821	 38.40607	 -6.08899	 53.86223	 -1.61171	 67.26430	714.52002	 35.00	
 17.001	-110.310	 57.47222	  9.52676	 34.90017	 -7.12890	 55.49294	 -1.59234	 67.23439	714.52002	 35.00	
 16.988	-104.517	 57.48809	 12.74728	 31.40500	 -7.98217	 56.77395	 -1.58713	 67.22394	714.57001	 35.00	
 17.008	-98.662	 57.53432	 15.96307	 27.77498	 -8.49864	 57.74420	 -1.56461	 67.23092	714.54999	 35.00	
 16.996	-92.909	 57.66422	 19.26957	 24.30042	 -8.73387	 58.27034	 -1.64804	 67.25172	714.50000	 35.00	
 16.996	-87.091	 57.69356	 22.46715	 20.93991	 -8.84206	 58.35889	 -1.65708	 67.20666	714.59998	 35.00	
 17.012	-81.253	 57.80656	 25.63775	 17.54942	 -8.68632	 58.12972	 -1.67879	 67.23500	714.65002	 35.00	
 16.988	-75.483	 57.84100	 29.52545	 14.30875	 -8.33059	 57.34510	 -1.72443	 67.16427	714.53003	 35.00	
 17.001	-69.690	 57.89864	 33.11908	 11.22004	 -7.67778	 56.33136	 -1.76275	 67.15422	714.54999	 35.00	
 17.002	-63.866	 57.97780	 36.62889	  8.26136	 -6.77313	 54.95821	 -1.80746	 67.17496	714.63000	 35.00	
 17.006	-58.063	 58.03749	 39.92376	  5.44294	 -5.54746	 53.17520	 -1.89549	 67.16874	714.48999	 35.00	
 17.001	-52.301	 58.12837	 43.01611	  2.87739	 -4.03866	 50.99891	 -1.94571	 67.16097	714.56000	 35.00	
 17.007	-46.454	 58.12930	 46.14782	  0.51380	 -2.22934	 48.36982	 -1.98294	 67.10623	714.53998	 35.00	
 17.014	-40.657	 58.17223	 48.97132	 -1.57029	 -0.18725	 45.52719	 -2.04480	 67.12926	714.64001	 35.00	
 16.988	-34.839	 58.23934	 51.31291	 -3.27579	  2.15337	 42.50234	 -2.07401	 67.08181	714.62000	 35.00	
 16.995	-29.081	 58.29189	 53.48952	 -4.75740	  4.77688	 39.26424	 -2.08120	 67.11494	714.59003	 35.00	
 16.990	-23.241	 58.38396	 55.22543	 -5.90303	  7.65400	 35.83001	 -2.19353	 67.15118	714.59998	 35.10	
 17.000	-17.404	 58.36334	 56.66929	 -6.78240	 10.62813	 32.30606	 -2.24898	 67.10698	714.51001	 35.10	
 17.009	-11.617	 58.38445	 57.75047	 -7.42711	 13.80773	 28.67048	 -2.35803	 67.10345	714.46997	 35.00	
 16.990	 -5.821	 58.38226	 58.33078	 -7.75850	 17.14128	 25.02105	 -2.41553	 67.08415	714.51001	 35.00	
 17.000	  0.000	 58.32029	 58.52615	 -7.86050	 20.51020	 21.50332	 -2.52447	 67.03392	714.51001	 35.00	
 16.990	  5.821	 58.30434	 58.35319	 -7.85252	 23.98437	 18.03342	 -2.62925	 67.02133	714.62000	 35.00	
 17.009	 11.617	 58.27630	 57.86907	 -7.65253	 27.58342	 14.72748	 -2.67290	 67.03448	714.57001	 35.10	
 17.000	 17.404	 58.30937	 56.96588	 -6.97973	 31.09188	 11.70203	 -2.68732	 67.01892	714.54999	 35.10	
 16.990	 23.241	 58.22541	 55.63961	 -6.12373	 34.66291	  8.55234	 -2.74968	 66.99637	714.57001	 35.10	
 16.995	 29.081	 58.21971	 53.97384	 -4.99093	 38.25667	  5.67058	 -2.77121	 67.01546	714.50000	 35.10	
 16.988	 34.839	 58.20966	 51.98200	 -3.58388	 41.46323	  3.15350	 -2.88358	 66.98360	714.56000	 35.10	
 17.014	 40.657	 58.18240	 49.62147	 -1.95637	 44.57662	  0.79091	 -3.05816	 66.98425	714.58002	 35.10	
 17.007	 46.454	 58.20576	 46.93126	 -0.09617	 47.50339	 -1.31434	 -3.15115	 66.99728	714.53003	 35.10	
 17.001	 52.301	 58.20919	 43.97901	  2.01425	 50.15790	 -3.12506	 -3.19929	 66.98491	714.57001	 35.10	
 17.006	 58.063	 58.12701	 40.89036	  4.36528	 52.44714	 -4.74550	 -3.21873	 66.96845	714.56000	 35.10	
 17.002	 63.866	 58.10027	 37.57317	  6.97950	 54.37496	 -6.14823	 -3.24523	 66.92326	714.62000	 35.10	
 17.001	 69.690	 58.09609	 34.08292	  9.77350	 56.02602	 -7.32146	 -3.28085	 66.94269	714.65002	 35.10	
 16.988	 75.483	 58.14428	 30.53491	 12.76318	 57.26781	 -8.21815	 -3.27292	 66.99620	714.50000	 35.10	
 17.012	 81.253	 58.12129	 27.02751	 15.86096	 58.16468	 -8.79302	 -3.28427	 67.02197	714.48999	 35.10	
 16.996	 87.091	 58.19843	 23.63884	 19.09160	 58.67599	 -8.90095	 -3.39738	 67.11074	714.53003	 35.10	
 16.996	 92.909	 58.18315	 20.36558	 22.32078	 58.73453	 -9.07852	 -3.49611	 67.12714	714.58002	 35.10	
 17.008	 98.662	 58.15653	 17.00333	 25.81716	 58.44628	 -8.91568	 -3.47875	 67.13843	714.53998	 35.10	
 16.988	104.517	 58.15931	 13.79128	 29.41644	 57.65837	 -8.32752	 -3.36017	 67.11806	714.50000	 35.10	
 17.001	110.310	 58.07439	 10.60949	 32.95564	 56.54319	 -7.68730	 -3.28541	 67.10847	714.60999	 35.10	
 17.002	116.134	 58.03916	  7.62504	 36.50282	 55.01786	 -6.70869	 -3.23801	 67.10129	714.57001	 35.10	
 17.006	121.937	 57.93202	  4.86326	 39.87077	 53.12013	 -5.47126	 -3.21443	 67.06601	714.54999	 35.10	
 17.001	127.699	 57.87105	  2.44482	 43.03505	 50.95128	 -3.98661	 -3.23028	 67.08090	714.41998	 35.10	
 17.007	133.546	 57.75908	  0.12694	 46.07552	 48.31454	 -2.25785	 -3.23282	 67.03768	714.47998	 35.10	
 17.014	139.343	 57.65665	 -1.88774	 48.87440	 45.43773	 -0.24988	 -3.17732	 67.05235	714.51001	 35.10	
 16.988	145.161	 57.62678	 -3.58801	 51.37008	 42.35222	  2.12956	 -3.06215	 67.04253	714.56000	 35.10	
 16.995	150.919	 57.49811	 -5.17954	 53.45617	 39.18165	  4.50284	 -2.94897	 66.99526	714.54999	 35.10	
 16.990	156.759	 57.80621	 -6.39757	 55.60245	 35.86263	  7.35149	 -2.94315	 67.36646	714.63000	 35.10	
 17.000	162.596	 57.75078	 -7.34731	 57.08567	 32.19491	 10.34282	 -2.92395	 67.37534	714.58002	 35.10	
 17.009	168.383	 57.69667	 -8.02862	 58.16878	 28.66560	 13.36674	 -2.88438	 67.40002	714.59998	 35.10	
 16.990	174.179	 57.67024	 -8.45566	 58.83926	 25.00203	 16.64303	 -2.76819	 67.42129	714.57001	 35.10	
 18.709	174.675	 55.41293	-12.40418	 60.73948	 23.13758	 14.91185	 -2.75836	 67.42068	714.57001	 35.10	
 18.703	169.441	 55.44373	-11.93748	 60.07341	 26.77398	 11.72668	 -2.88144	 67.38721	714.65997	 35.10	
 18.691	164.085	 55.56234	-11.22804	 59.10495	 30.41134	  8.66523	 -3.01999	 67.40559	714.67999	 35.10	
 18.706	158.818	 55.55927	-10.44498	 57.71780	 33.98191	  5.63995	 -3.08114	 67.36548	714.57001	 35.10	
 18.695	153.537	 55.65854	 -9.34986	 56.02328	 37.59990	  2.87066	 -3.16899	 67.39027	714.65997	 35.20	
 18.704	148.255	 55.77111	 -8.00445	 54.06529	 41.00119	  0.33184	 -3.30392	 67.43552	714.63000	 35.20	
 18.698	142.952	 55.80965	 -6.39662	 51.69595	 44.21101	 -2.09429	 -3.46837	 67.38811	714.66998	 35.20	
 18.699	137.625	 55.90664	 -4.66433	 49.12653	 47.24933	 -4.32585	 -3.57272	 67.44398	714.70001	 35.20	
 18.705	132.343	 56.02164	 -2.64231	 46.24308	 50.07832	 -6.26998	 -3.62123	 67.40426	714.78003	 35.20	
 18.713	127.067	 56.09623	 -0.43764	 43.18649	 52.59762	 -7.87866	 -3.65898	 67.40788	714.81000	 35.20	
 18.700	121.794	 56.17157	  2.00648	 39.93171	 54.80216	 -9.29126	 -3.70392	 67.39759	714.65002	 35.20	
 18.698	116.504	 56.21388	  4.69852	 36.52538	 56.68571	-10.50144	 -3.74078	 67.40013	714.71997	 35.10	
 18.707	111.165	 56.27996	  7.66227	 32.93152	 58.32428	-11.51819	 -3.80987	 67.42470	714.77002	 35.10	
 18.690	105.863	 56.32479	 10.69232	 29.33966	 59.53337	-12.25022	 -3.90987	 67.43541	714.59998	 35.10	
 18.696	100.583	 56.31537	 13.84384	 25.78572	 60.33549	-12.84244	 -4.01462	 67.38362	714.70001	 35.10	
 18.700	 95.309	 56.26595	 17.15968	 22.13362	 60.80322	-13.25482	 -4.17697	 67.36785	714.62000	 35.10	
 18.700	 90.000	 56.37102	 20.47013	 18.88056	 60.94604	-13.11450	 -4.16945	 67.43672	714.66998	 35.20	
 18.700	 84.691	 56.32627	 23.53158	 15.89941	 60.67731	-13.11311	 -3.94691	 67.37152	714.83002	 35.20	
 18.696	 79.417	 56.36991	 27.12515	 12.72985	 60.09031	-12.80888	 -3.92044	 67.36607	714.73999	 35.10	
 18.690	 74.137	 56.38424	 30.70029	  9.61524	 59.12904	-12.57067	 -3.94647	 67.35283	714.71002	 35.10	
 18.707	 68.835	 56.37435	 34.24360	  6.70731	 57.79730	-11.17522	 -3.94345	 67.35604	714.64001	 35.10	
 18.698	 63.496	 56.41018	 37.85672	  3.98152	 56.07783	 -9.97068	 -3.90058	 67.35584	714.79999	 35.10	
 18.700	 58.206	 56.41503	 41.21566	  1.43394	 54.05572	 -8.66331	 -3.88945	 67.34926	714.82001	 35.10	
 18.713	 52.933	 56.45176	 44.36087	 -0.91228	 51.75380	 -6.86806	 -3.86766	 67.36784	714.71002	 35.20	
 18.705	 47.657	 56.46923	 47.30425	 -2.97444	 49.10726	 -5.06777	 -3.78141	 67.35262	714.71002	 35.20	
 18.699	 42.375	 56.44200	 50.07662	 -4.82971	 46.22055	 -3.08790	 -3.74871	 67.34364	714.71997	 35.20	
 18.698	 37.048	 56.42557	 52.57150	 -6.54063	 43.12795	 -0.90198	 -3.61237	 67.33051	714.84003	 35.20	
 18.704	 31.745	 56.45067	 54.73217	 -7.97674	 39.86275	  1.53383	 -3.44440	 67.33368	714.65002	 35.20	
 18.695	 26.463	 56.43211	 56.55644	 -9.19106	 36.41280	  4.15567	 -3.33386	 67.30711	714.71002	 35.20	
 18.706	 21.182	 56.42855	 58.09690	-10.22025	 32.82493	  6.97045	 -3.23523	 67.27505	714.70001	 35.20	
 18.691	 15.915	 56.44796	 59.27729	-11.03399	 29.24592	 10.02012	 -3.17427	 67.29413	714.67999	 35.20	
 18.703	 10.559	 56.34207	 60.03823	-11.69230	 25.57434	 13.13763	 -3.09762	 67.23924	714.69000	 35.20	
 18.709	  5.325	 56.34388	 60.52923	-12.00625	 22.00349	 16.43794	 -3.03730	 67.24393	714.69000	 35.20	
 18.700	  0.000	 56.37228	 60.63791	-11.86781	 18.73985	 19.81925	 -2.81397	 67.22766	714.71002	 35.20	
 18.709	 -5.325	 56.40676	 60.45900	-11.77221	 15.58991	 23.22209	 -2.61447	 67.26297	714.60999	 35.20	
 18.703	-10.559	 56.38845	 59.83340	-11.44682	 12.17684	 26.82628	 -2.47113	 67.20836	714.72998	 35.20	
 18.691	-15.915	 56.39746	 58.84016	-10.87133	  8.87534	 30.50394	 -2.36910	 67.22467	714.78998	 35.20	
 18.706	-21.182	 56.33670	 57.51286	-10.04928	  5.97183	 33.98976	 -2.22914	 67.18375	714.62000	 35.20	
 18.695	-26.463	 56.30074	 55.85206	 -8.96666	  3.20020	 37.51891	 -2.08541	 67.17110	714.66998	 35.20	
 18.704	-31.745	 56.21039	 53.91543	 -7.70014	  0.56271	 40.88457	 -2.03873	 67.13982	714.66998	 35.20	
 18.698	-37.048	 56.16964	 51.67920	 -6.12078	 -1.82128	 44.04139	 -1.98703	 67.15044	714.59998	 35.20	
 18.699	-42.375	 56.07410	 49.08072	 -4.32251	 -4.05935	 47.09141	 -1.88279	 67.12643	714.65002	 35.20	
 18.705	-47.657	 55.98600	 46.20186	 -2.29903	 -6.06175	 49.93354	 -1.83983	 67.11836	714.71002	 35.20	
 18.713	-52.933	 55.90945	 43.01657	 -0.00446	 -7.73657	 52.37437	 -1.77177	 67.13570	714.72998	 35.20	
 18.700	-58.206	 55.86175	 39.90842	  2.58488	 -9.15280	 54.47333	 -1.74172	 67.08300	714.70001	 35.20	
 18.698	-63.496	 55.79924	 36.56665	  5.34005	-10.28929	 56.26182	 -1.68974	 67.05167	714.65002	 35.20	
 18.707	-68.835	 55.66368	 32.94445	  8.23379	-11.31803	 57.74165	 -1.58578	 67.03317	714.70001	 35.20	
 18.690	-74.137	 55.58444	 29.22195	 11.28177	-11.95504	 58.85685	 -1.57078	 67.03591	714.83002	 35.20	
 18.696	-79.417	 55.44083	 25.65773	 14.41087	-12.40658	 59.62814	 -1.53896	 66.99463	714.77002	 35.20	
 18.700	-84.691	 55.34917	 22.26742	 17.70690	-12.62847	 60.02829	 -1.47809	 67.00185	714.77002	 35.20	
 18.700	-90.000	 55.24558	 19.11863	 20.88534	-12.45024	 60.02979	 -1.39355	 66.95065	714.71002	 35.20	
 18.700	-95.309	 55.14377	 15.96053	 24.14523	-12.53433	 59.72051	 -1.33270	 66.94440	714.67999	 35.20	
 18.696	-100.583	 55.00861	 12.63242	 27.70893	-12.13546	 59.00946	 -1.32484	 66.89359	714.65997	 35.20	
 18.690	-105.863	 54.99924	  9.54899	 31.27034	-11.41333	 57.95734	 -1.32227	 66.91346	714.66998	 35.20	
 18.707	-111.165	 54.91044	  6.55063	 34.79080	-10.57713	 56.57927	 -1.27988	 66.87789	714.69000	 35.20	
 18.698	-116.504	 54.85180	  3.66175	 38.24707	 -9.36620	 54.75769	 -1.37021	 66.81478	714.72998	 35.20	
 18.700	-121.794	 54.80722	  1.13036	 41.52930	 -7.98352	 52.73659	 -1.38513	 66.79794	714.66998	 35.20	
 18.713	-127.067	 54.70134	 -1.04666	 44.53903	 -6.48086	 50.46844	 -1.42101	 66.73694	714.72998	 35.20	
 18.705	-132.343	 54.70924	 -2.89164	 47.44673	 -4.78284	 47.81771	 -1.49553	 66.70921	714.71002	 35.20	
 18.699	-137.625	 54.73942	 -4.73008	 50.17472	 -2.82866	 44.94385	 -1.54599	 66.73601	714.67999	 35.20	
 18.698	-142.952	 54.77325	 -6.41639	 52.62332	 -0.69067	 41.86106	 -1.62267	 66.78046	714.63000	 35.20	
 18.704	-148.255	 54.80177	 -7.71055	 54.66853	  1.56033	 38.71136	 -1.78065	 66.77198	714.67999	 35.20	
 18.695	-153.537	 54.83417	 -8.99545	 56.40321	  4.21849	 35.24883	 -1.85409	 66.71283	714.69000	 35.20	
 18.706	-158.818	 54.83610	-10.05394	 57.89419	  7.04939	 31.72634	 -1.92696	 66.69463	714.70001	 35.20	
 18.691	-164.085	 54.84165	-10.78722	 58.96320	 10.10451	 28.26960	 -2.02410	 66.66264	714.71002	 35.20	
 18.703	-169.441	 54.78441	-11.55777	 59.74058	 13.31796	 24.61930	 -2.06511	 66.65076	714.69000	 35.20	
 18.709	-174.675	 54.81995	-11.80787	 60.14010	 16.39969	 21.20213	 -2.17975	 66.64633	714.70001	 35.20	
 18.700	180.000	 54.79728	-11.97628	 60.19755	 19.61588	 18.15888	 -2.42453	 66.60085	714.78003	 35.20	
 20.400	180.000	 52.40378	-15.81213	 61.79709	 17.68394	 16.28440	 -2.25415	 66.60652	714.71002	 35.20	
 20.401	-175.153	 52.36943	-15.68933	 61.71170	 14.50597	 19.43444	 -2.11749	 66.59068	714.66998	 35.20	
 20.407	-170.264	 52.30908	-15.50946	 61.31965	 11.61104	 22.52526	 -1.88641	 66.56459	714.71997	 35.20	
 20.410	-165.423	 52.28804	-15.24580	 60.67187	  8.52017	 25.92122	 -1.79625	 66.56962	714.63000	 35.20	
 20.392	-160.496	 52.32116	-14.33764	 59.60036	  5.54121	 29.52491	 -1.73125	 66.55958	714.67999	 35.20	
 20.401	-155.705	 52.37506	-13.44931	 58.44880	  2.70410	 33.05613	 -1.67220	 66.70884	714.63000	 35.20	
 20.405	-150.835	 52.27142	-12.25429	 56.75116	  0.05308	 36.54816	 -1.61089	 66.65701	714.65997	 35.20	
 20.397	-145.903	 52.36393	-10.74079	 54.84674	 -2.37373	 40.00439	 -1.59191	 66.73645	714.71997	 35.20	
 20.392	-141.062	 52.37129	 -9.28466	 52.64991	 -4.66421	 43.16726	 -1.49167	 66.77512	714.73999	 35.20	
 20.396	-136.227	 52.35764	 -7.44448	 50.13086	 -6.86026	 46.20910	 -1.48589	 66.77145	714.77002	 35.20	
 20.408	-131.372	 52.34159	 -5.55894	 47.32801	 -8.70220	 49.00445	 -1.40556	 66.72687	714.77002	 35.20	
 20.410	-126.511	 52.33884	 -3.80239	 44.46280	-10.17751	 51.52648	 -1.28841	 66.72221	714.71997	 35.30	
 20.400	-121.604	 52.30857	 -1.64235	 41.29067	-11.59770	 53.78682	 -1.23639	 66.66634	714.69000	 35.30	
 20.403	-116.741	 52.30677	  0.66035	 38.01713	-12.84836	 55.83031	 -1.21209	 66.67008	714.72998	 35.30	
 20.413	-111.900	 52.30670	  3.26346	 34.53148	-13.85915	 57.56846	 -1.19757	 66.65296	714.64001	 35.30	
 20.398	-107.004	 52.34702	  6.13975	 30.99226	-14.72423	 59.00735	 -1.17924	 66.64576	714.64001	 35.30	
 20.394	-102.132	 52.36076	  9.17113	 27.43337	-15.42733	 60.07852	 -1.18590	 66.63358	714.73999	 35.30	
 20.403	-97.332	 52.38309	 12.46072	 23.96155	-16.10198	 60.87856	 -1.14808	 66.63861	714.71997	 35.30	
 20.392	-92.440	 52.50067	 15.70775	 20.52424	-16.28556	 61.34597	 -1.18602	 66.67335	714.78003	 35.30	
 20.392	-87.560	 52.47970	 18.44916	 17.63551	-16.28024	 61.38904	 -1.30112	 66.54379	714.75000	 35.30	
 20.403	-82.668	 52.56533	 21.81097	 14.34359	-16.35032	 61.27287	 -1.33972	 66.59184	714.64001	 35.30	
 20.394	-77.868	 52.67876	 25.27242	 11.17298	-16.00624	 60.72663	 -1.31414	 66.59479	714.64001	 35.30	
 20.398	-72.996	 52.91823	 28.51396	  8.15697	-15.49167	 60.02386	 -1.42245	 66.74805	714.69000	 35.30	
 20.413	-68.100	 53.06454	 32.50180	  5.22501	-15.05406	 58.87854	 -1.51559	 66.78931	714.71997	 35.30	
 20.403	-63.259	 53.32376	 36.18374	  2.43796	-14.11997	 57.53036	 -1.56964	 66.99297	714.84998	 35.30	
 20.400	-58.396	 53.37505	 39.53464	 -0.13053	-13.04895	 55.63617	 -1.60185	 66.91063	714.73999	 35.30	
 20.410	-53.489	 53.44081	 42.61629	 -2.59698	-11.65012	 53.49706	 -1.67329	 66.93123	714.76001	 35.30	
 20.408	-48.628	 53.49148	 45.76891	 -4.91946	-10.13380	 51.05637	 -1.67093	 66.95441	714.75000	 35.30	
 20.396	-43.773	 53.55772	 48.78626	 -6.94555	 -8.38744	 48.37563	 -1.73383	 66.99079	714.77002	 35.30	
 20.392	-38.938	 53.64592	 51.46157	 -8.75778	 -6.21109	 45.43964	 -1.82657	 66.99266	714.65002	 35.30	
 20.397	-34.097	 53.72283	 53.86820	-10.39323	 -3.66351	 42.29055	 -1.90383	 66.97507	714.66998	 35.30	
 20.405	-29.165	 53.78061	 56.07769	-11.89837	 -1.20149	 39.01051	 -2.02998	 67.03762	714.65997	 35.30	
 20.401	-24.295	 53.79398	 57.87493	-13.10989	  1.42439	 35.50414	 -2.08536	 67.02254	714.71002	 35.30	
 20.392	-19.504	 53.80504	 59.26134	-14.08646	  4.15491	 31.98870	 -2.21685	 67.01035	714.63000	 35.30	
 20.410	-14.577	 53.78899	 60.47552	-14.83805	  7.01137	 28.40500	 -2.32364	 66.98866	714.73999	 35.30	
 20.407	 -9.736	 53.83857	 61.33087	-15.25565	 10.20366	 24.80832	 -2.47050	 67.00435	714.76001	 35.30	
 20.401	 -4.847	 53.86910	 61.87868	-15.49012	 13.66850	 21.25260	 -2.55042	 67.00272	714.59998	 35.30	
 20.400	  0.000	 53.77679	 62.02596	-15.71597	 16.64771	 18.12417	 -2.87536	 66.96234	714.69000	 35.30	
 20.401	  4.847	 53.73862	 61.90549	-15.75032	 19.81177	 14.87714	 -3.02317	 66.95472	714.76001	 35.30	
 20.407	  9.736	 53.75056	 61.46948	-15.41003	 23.31512	 11.59714	 -3.16722	 66.92387	714.71997	 35.30	
 20.410	 14.577	 53.84789	 60.91603	-14.93577	 26.94866	  8.46318	 -3.34966	 67.06103	714.78998	 35.30	
 20.392	 19.504	 53.88989	 59.83091	-14.16418	 30.67264	  5.42259	 -3.50077	 67.05861	714.77002	 35.30	
 20.401	 24.295	 53.84671	 58.40985	-13.22906	 34.16100	  2.60944	 -3.66023	 67.08894	714.78003	 35.30	
 20.405	 29.165	 53.84111	 56.66507	-12.09030	 37.64287	  0.00698	 -3.77085	 67.05627	714.77002	 35.30	
 20.397	 34.097	 53.83850	 54.56464	-10.74103	 41.10993	 -2.48624	 -3.88612	 67.03570	714.66998	 35.40	
 20.392	 38.938	 53.79199	 52.33194	 -9.29064	 44.19969	 -4.69125	 -4.00871	 66.99939	714.78998	 35.40	
 20.396	 43.773	 53.81569	 49.83791	 -7.61913	 47.16446	 -6.71368	 -4.07464	 67.01762	714.78998	 35.40	
 20.408	 48.628	 53.83330	 46.97889	 -5.78248	 49.96875	 -8.59807	 -4.14503	 66.98534	714.79999	 35.40	
 20.410	 53.489	 53.76398	 44.02442	 -3.69919	 52.59381	-10.28198	 -4.21968	 66.99009	714.81000	 35.40	
 20.400	 58.396	 53.74511	 40.86222	 -1.42871	 54.88252	-12.48088	 -4.25357	 66.98782	714.77002	 35.40	
 20.403	 63.259	 53.71890	 37.51363	  1.02453	 56.88897	-13.60139	 -4.28261	 66.97272	714.77002	 35.40	
 20.413	 68.100	 53.67829	 33.64741	  3.59960	 58.61305	-14.35442	 -4.25793	 66.98305	714.79999	 35.40	
 20.398	 72.996	 53.69139	 30.43337	  6.38467	 59.96159	-16.00493	 -4.24119	 66.96150	714.78998	 35.40	
 20.394	 77.868	 53.67450	 26.79587	  9.36599	 61.00823	-16.81895	 -4.23399	 66.93859	714.73999	 35.40	
 20.403	 82.668	 53.60544	 23.21547	 12.51913	 61.65401	-17.11331	 -4.26489	 66.90270	714.71997	 35.40	
 20.392	 87.560	 53.62790	 19.94415	 15.58344	 62.01681	-16.88758	 -4.31352	 66.94331	714.69000	 35.40	
 20.392	 92.440	 53.60427	 17.20894	 18.28954	 62.05990	-16.85988	 -4.49222	 66.91846	714.73999	 35.40	
 20.403	 97.332	 53.56742	 13.75765	 21.76045	 61.81697	-16.78276	 -4.36143	 66.91296	714.76001	 35.40	
 20.394	102.132	 53.57016	 10.66545	 25.29080	 61.22285	-16.43789	 -4.23646	 66.89771	714.79999	 35.40	
 20.398	107.004	 53.55834	  7.64770	 28.86191	 60.29268	-15.84744	 -4.14321	 66.89395	714.67999	 35.40	
 20.413	111.900	 53.44609	  4.60533	 32.38689	 59.03536	-15.03609	 -4.05243	 66.87782	714.72998	 35.40	
 20.403	116.741	 53.38285	  1.80097	 35.88511	 57.42866	-13.97523	 -3.93640	 66.86790	714.84003	 35.40	
 20.400	121.604	 53.33959	 -0.76599	 39.26379	 55.55348	-12.76894	 -3.81528	 66.86581	714.78998	 35.40	
 20.410	126.511	 53.24058	 -3.11089	 42.50895	 53.32789	-11.33759	 -3.70287	 66.81269	714.76001	 35.40	
 20.408	131.372	 53.16548	 -5.24203	 45.59776	 50.84371	 -9.78052	 -3.63430	 66.82216	714.85999	 35.40	
 20.396	136.227	 53.09150	 -7.15306	 48.44300	 48.07955	 -7.98446	 -3.53230	 66.79103	714.78998	 35.40	
 20.392	141.062	 52.96487	 -8.93334	 51.04879	 45.16207	 -6.03375	 -3.41131	 66.76079	714.77002	 35.40	
 20.397	145.903	 52.92443	-10.52694	 53.45771	 42.10341	 -3.75241	 -3.22484	 66.78496	714.75000	 35.40	
 20.405	150.835	 52.80352	-11.99311	 55.62542	 38.71922	 -1.35685	 -3.11747	 66.78838	714.84003	 35.40	
 20.401	155.705	 52.72843	-13.15370	 57.46452	 35.24551	  1.17027	 -2.97221	 66.76339	714.76001	 35.40	
 20.392	160.496	 52.65665	-14.06591	 58.97663	 31.77977	  3.86067	 -2.87896	 66.73589	714.84998	 35.40	
 20.410	165.423	 52.59082	-14.85066	 60.27866	 28.15964	  6.76339	 -2.71415	 66.76879	714.88000	 35.40	
 20.407	170.264	 52.49527	-15.45467	 61.13499	 24.61492	  9.76599	 -2.55588	 66.72118	714.76001	 35.40	
 20.401	175.153	 52.44247	-15.86343	 61.69449	 21.01144	 12.93390	 -2.40555	 66.71011	714.65997	 35.50	
  0.141	 45.000	 66.72370	 29.92310	 29.86534	 29.84767	 28.70753	  1.71852	 66.75432	714.78003	 35.50	
  4.001	128.691	 66.36317	 23.70415	 34.79238	 35.92143	 21.78406	  1.35839	 66.68085	714.79999	 35.50	
  4.002	 76.995	 66.45153	 31.14551	 27.51421	 37.53511	 20.35239	  1.59333	 66.66963	714.84998	 35.50	
  4.002	 25.892	 66.44267	 36.88473	 22.00587	 32.60877	 24.90940	  1.65927	 66.61729	714.78998	 35.50	
  4.002	-25.892	 66.44656	 36.79316	 22.16569	 25.22593	 32.27028	  1.51997	 66.64016	714.76001	 35.50	
  4.002	-76.995	 66.32397	 30.94829	 27.78950	 20.89471	 36.83435	  1.27015	 66.59777	714.67999	 35.50	
  4.001	-128.691	 66.30903	 23.53026	 35.03322	 22.62922	 34.91594	  1.12434	 66.69822	714.62000	 35.50	
  4.000	180.000	 66.26198	 20.59789	 38.05947	 29.05569	 28.14698	  1.16112	 66.66080	714.67999	 35.50	
  8.000	180.000	 64.79426	 12.02386	 45.43368	 27.65735	 26.39660	  0.07882	 66.65034	714.73999	 35.50	
  7.991	-152.370	 64.75849	 13.65477	 43.61532	 20.11282	 34.35498	  0.02367	 66.63809	714.69000	 35.50	
  7.997	-124.550	 64.85742	 18.43717	 38.11364	 14.55005	 41.00733	 -0.18302	 66.66885	714.71002	 35.50	
  8.006	-96.837	 65.16965	 25.48660	 30.53958	 11.90141	 44.47499	 -0.03524	 66.84234	714.71997	 35.50	
  7.988	-69.228	 65.38743	 33.66462	 22.65561	 12.62403	 43.72427	  0.17010	 66.89115	714.84003	 35.50	
  7.997	-41.563	 65.54507	 40.45855	 16.34807	 16.58436	 39.01270	  0.38479	 66.91436	714.78998	 35.50	
  8.008	-13.821	 65.61871	 44.75611	 12.86565	 23.40356	 31.46625	  0.70693	 66.91287	714.83002	 35.50	
  8.008	 13.821	 65.55204	 44.81305	 12.69797	 31.43000	 23.42071	  0.85939	 66.86327	714.85999	 35.50	
  7.997	 41.563	 65.55219	 40.88076	 16.02296	 38.93806	 16.63650	  0.84579	 66.87195	714.81000	 35.50	
  7.988	 69.228	 65.46261	 34.13534	 22.01363	 43.98603	 12.43647	  0.71428	 66.85487	714.81000	 35.50	
  8.006	 96.837	 65.33131	 25.69326	 29.76728	 45.26614	 11.34703	  0.60421	 66.83044	714.78003	 35.50	
  7.997	124.550	 65.19473	 18.76826	 37.54791	 42.23257	 13.71814	  0.42092	 66.82030	714.97998	 35.50	
  7.991	152.370	 65.03969	 13.83797	 43.32855	 35.79587	 19.03184	  0.27649	 66.78725	714.78998	 35.50	
 12.009	161.059	 62.28187	  4.04782	 50.34465	 33.84327	 16.36444	 -1.58233	 66.73628	714.90997	 35.50	
 12.013	142.081	 62.42127	  7.39444	 45.88456	 41.56037	  9.82290	 -1.51748	 66.75270	714.87000	 35.50	
 12.006	123.113	 62.59591	 12.86071	 39.17503	 47.54036	  5.35759	 -1.41885	 66.75024	714.87000	 35.50	
 12.007	104.200	 62.80358	 19.85509	 31.30258	 51.18024	  2.75612	 -1.43012	 66.82920	714.78003	 35.50	
 11.989	 85.301	 63.02740	 27.92464	 23.17054	 51.89766	  2.33553	 -1.38769	 66.94813	714.81000	 35.60	
 12.013	 66.294	 63.08594	 36.25008	 15.69013	 49.48786	  4.16973	 -1.30183	 66.97124	714.72998	 35.60	
 12.012	 47.388	 63.14297	 43.38740	  9.74047	 44.39730	  8.03569	 -1.21472	 66.95412	714.83002	 35.60	
 11.990	 28.440	 63.23800	 48.81622	  5.69026	 37.33472	 13.94391	 -0.77290	 67.02952	714.83002	 35.60	
 11.991	  9.464	 63.27861	 51.56315	  3.56348	 29.08615	 21.31239	 -0.68834	 67.02635	714.81000	 35.60	
 11.991	 -9.464	 63.31769	 51.45042	  3.75932	 20.85444	 29.60061	 -1.07768	 67.04610	714.84003	 35.60	
 11.990	-28.440	 63.21379	 48.38042	  5.93775	 13.39142	 37.82141	 -1.24823	 67.00295	714.92999	 35.60	
 12.012	-47.388	 63.05178	 42.73832	 10.37706	  7.51384	 44.70819	 -1.49441	 66.98738	714.85999	 35.60	
 12.013	-66.294	 63.00028	 35.53055	 16.71251	  4.14191	 49.45601	 -1.46508	 67.07710	714.79999	 35.60	
 11.989	-85.301	 62.77437	 27.18877	 24.48243	  2.62622	 51.40435	 -1.53459	 67.02777	714.85999	 35.60	
 12.007	-104.200	 62.60785	 19.19234	 32.68695	  3.26715	 50.38037	 -1.54847	 67.02844	714.85999	 35.60	
 12.006	-123.113	 62.45117	 12.42724	 40.43418	  6.10490	 46.47279	 -1.57319	 67.05264	715.00000	 35.60	
 12.013	-142.081	 62.41098	  7.26254	 46.92979	 10.85687	 40.10547	 -1.59285	 67.05576	714.89001	 35.60	
 12.009	-161.059	 62.46719	  3.99899	 50.97660	 17.60269	 32.30244	 -1.64495	 67.04664	714.88000	 35.60	
 16.000	180.000	 58.60350	 -6.10015	 57.61015	 22.41978	 20.86680	 -2.55169	 67.05423	714.73999	 35.60	
 15.990	-165.604	 58.57547	 -5.26094	 56.67457	 14.48538	 28.98058	 -2.27160	 67.06008	714.79999	 35.60	
 16.002	-151.165	 58.50354	 -3.24147	 53.60897	  7.56104	 37.17633	 -1.99533	 67.08619	714.79999	 35.60	
 16.002	-136.836	 58.46745	  0.33168	 48.50788	  1.80959	 44.55602	 -1.83567	 67.08768	714.78998	 35.60	
 15.995	-122.439	 58.43392	  5.47932	 41.64339	 -2.51768	 50.60049	 -1.70289	 67.00245	714.81000	 35.60	
 15.993	-107.966	 58.51822	 12.32302	 33.69881	 -5.48850	 54.84332	 -1.62746	 67.02294	714.82001	 35.60	
 16.005	-93.629	 58.71013	 19.82058	 25.38575	 -6.68895	 56.90180	 -1.68521	 67.07252	714.89001	 35.60	
 15.992	-79.234	 58.92055	 27.73607	 17.53995	 -6.46045	 56.61047	 -1.76956	 67.06581	714.78998	 35.50	
 16.009	-64.774	 59.08998	 36.17434	 10.21679	 -4.77124	 54.07470	 -1.85506	 67.08894	714.78998	 35.60	
 15.997	-50.364	 59.27740	 43.69611	  3.92199	 -1.38065	 49.33763	 -2.02379	 67.07487	714.81000	 35.50	
 15.997	-36.045	 59.43410	 50.15919	 -0.93193	  3.46540	 42.80124	 -2.09716	 67.11943	714.79999	 35.50	
 16.000	-21.597	 59.58268	 54.72042	 -4.07472	 10.08152	 34.89865	 -2.10322	 67.14459	714.84998	 35.50	
 16.003	 -7.169	 59.54127	 57.10202	 -5.49549	 17.53515	 26.43113	 -2.25199	 67.06335	714.71002	 35.50	
 16.003	  7.169	 59.53458	 57.20977	 -5.69742	 25.66816	 18.22098	 -2.38048	 67.07538	714.85999	 35.50	
 16.000	 21.597	 59.46907	 55.07492	 -4.28333	 33.94680	 10.91516	 -2.41468	 67.05340	714.76001	 35.50	
 15.997	 36.045	 59.45988	 50.85362	 -1.31592	 42.00131	  4.25837	 -2.55905	 67.07505	714.94000	 35.50	
 15.997	 50.364	 59.47050	 44.66069	  3.10980	 48.72909	 -0.70232	 -2.82196	 67.06518	714.83002	 35.60	
 16.009	 64.774	 59.33742	 37.20517	  8.94381	 53.79752	 -4.37076	 -2.91157	 67.01690	714.78003	 35.60	
 15.992	 79.234	 59.33592	 28.91852	 15.95427	 56.75375	 -6.42985	 -2.95143	 67.02860	714.90002	 35.60	
 16.005	 93.629	 59.26201	 20.85752	 23.66303	 57.45832	 -6.82516	 -3.08358	 67.01640	714.85999	 35.60	
 15.993	107.966	 59.23096	 13.26874	 31.91216	 55.89278	 -5.80899	 -2.96639	 67.04121	714.83002	 35.60	
 15.995	122.439	 59.02747	  6.31917	 39.95819	 52.12555	 -3.40266	 -2.93926	 67.00048	714.79999	 35.60	
 16.002	136.836	 58.90996	  0.92917	 47.15518	 46.18704	  0.74027	 -2.97479	 67.02844	714.79999	 35.60	
 16.002	151.165	 58.73266	 -3.13999	 52.73672	 39.04249	  6.24058	 -2.75073	 67.04568	714.84998	 35.60	
 15.990	165.604	 58.65926	 -5.28412	 56.28916	 30.73221	 13.20518	 -2.66730	 67.05372	714.83002	 35.60	
 20.003	168.362	 53.36408	-14.48499	 60.76677	 26.39490	  9.17063	 -2.76226	 67.01125	714.90002	 35.60	
 20.008	156.764	 53.50130	-12.67773	 57.79003	 34.72190	  2.35334	 -3.02646	 67.02658	714.82001	 35.60	
 20.000	145.147	 53.71016	 -9.55505	 53.11954	 42.73466	 -3.44832	 -3.36679	 67.02071	714.78998	 35.60	
 19.995	133.545	 53.92041	 -5.42588	 47.00391	 49.66411	 -8.26241	 -3.64314	 67.04900	714.79999	 35.60	
 20.009	121.926	 54.00856	 -0.25654	 39.64485	 55.25803	-11.84355	 -3.82028	 66.98652	714.87000	 35.60	
 20.005	110.327	 54.14054	  6.16576	 31.52810	 59.24996	-14.37678	 -4.04243	 66.97805	714.84998	 35.60	
 19.989	 98.733	 54.24926	 13.34771	 23.25798	 61.40219	-15.71644	 -4.26208	 67.01752	714.88000	 35.60	
 19.999	 87.075	 54.26332	 20.66804	 15.83943	 61.66580	-15.88522	 -4.25709	 66.99873	714.79999	 35.60	
 19.992	 75.457	 54.25040	 28.82618	  8.47840	 60.19101	-15.62343	 -4.18111	 66.94553	714.78003	 35.60	
 20.009	 63.844	 54.29584	 37.15966	  2.03458	 56.87948	-12.76012	 -4.21482	 66.99879	714.83002	 35.60	
 19.989	 52.269	 54.44516	 44.78019	 -3.40381	 51.79794	 -9.58138	 -4.15740	 67.03574	714.78003	 35.60	
 19.999	 40.602	 54.38362	 51.34446	 -7.93728	 45.21346	 -4.68724	 -3.97872	 67.02187	714.87000	 35.60	
 20.004	 29.051	 54.41570	 56.42787	-11.23863	 37.65737	  0.77538	 -3.68304	 67.03979	714.88000	 35.60	
 20.005	 17.433	 54.40211	 59.93112	-13.60756	 29.37480	  7.26224	 -3.40296	 67.02242	714.73999	 35.60	
 20.006	  5.780	 54.35004	 61.53997	-14.86465	 20.89592	 14.68414	 -3.07458	 67.01160	714.79999	 35.60	
 20.006	 -5.780	 54.40852	 61.42642	-14.56705	 13.57636	 22.28128	 -2.63377	 67.00198	714.85999	 35.60	
 20.005	-17.433	 54.37693	 59.45287	-13.51905	  5.99781	 30.68319	 -2.31085	 66.97144	714.76001	 35.60	
 20.004	-29.051	 54.35762	 55.80942	-11.05611	 -0.38539	 38.99025	 -2.02405	 67.02234	714.73999	 35.60	
 19.999	-40.602	 54.21413	 50.44285	 -7.41852	 -6.01026	 46.37285	 -1.83276	 67.03080	714.77002	 35.60	
 19.989	-52.269	 54.14120	 43.45023	 -2.46683	-10.40364	 52.77551	 -1.73099	 67.02132	714.79999	 35.60	
 20.009	-63.844	 53.94881	 35.92184	  3.39974	-13.42493	 57.45695	 -1.63140	 67.02676	714.67999	 35.60	
 19.992	-75.457	 53.73106	 27.16285	 10.25443	-14.97536	 60.36187	 -1.50713	 67.04670	714.78003	 35.60	
 19.999	-87.075	 53.43267	 19.25895	 17.80666	-15.61914	 61.38868	 -1.48840	 66.97426	714.78003	 35.60	
 19.989	-98.733	 53.30723	 12.11223	 25.39036	-15.26008	 60.63273	 -1.28832	 66.99430	714.81000	 35.60	
 20.005	-110.327	 53.22949	  4.80361	 33.72842	-13.49176	 58.05699	 -1.34571	 67.02541	714.77002	 35.60	
 20.009	-121.926	 53.17623	 -1.23562	 41.72874	-10.83618	 53.71097	 -1.37742	 67.02097	714.84003	 35.60	
 19.995	-133.545	 53.12350	 -6.03259	 48.79279	 -7.08384	 47.74461	 -1.48699	 67.04915	714.83002	 35.60	
 20.000	-145.147	 53.09081	-10.00837	 54.54975	 -2.10778	 40.50938	 -1.62728	 66.99871	714.81000	 35.60	
 20.008	-156.764	 53.17607	-12.96529	 58.74376	  3.81873	 32.46172	 -1.79770	 67.01977	714.82001	 35.60	
 20.003	-168.362	 53.18851	-14.57734	 61.17609	 10.83934	 24.18961	 -1.99299	 67.00643	714.82001	 35.60	
 20.000	180.000	 53.21137	-15.30353	 61.83738	 17.84275	 16.70769	 -2.38527	 66.99191	714.88000	 35.60	
