FileType=PCF
NHL=14
Date=03/19/19	12:40:35
Facility=APL
Serial=16071-6
Customer=NASA
NP=6
Mach=0.450000
Calibration=1:1
CalPts=490
TstPts=95
PortNumbering=AP Standard
Units=Torr C m/s kg/m^3 deg mm 
Theta[deg]	Phi[deg]	P1[Torr]	P2[Torr]	P3[Torr]	P4[Torr]	P5[Torr]	P6[Torr]	Pt[Torr]	Ps[Abs,Torr]	Ts[C]	
  0.000	  0.000	 91.97093	 41.50362	 41.77175	 41.13025	 40.58539	  2.18350	 91.96689	714.34003	 29.80	
  1.691	128.401	 91.93080	 38.50705	 44.60089	 44.90441	 36.72442	  2.12505	 91.97298	714.28998	 30.00	
  1.692	 77.194	 92.01654	 42.53085	 40.56940	 45.82919	 35.97131	  2.25756	 92.01106	714.33002	 30.20	
  1.699	 26.182	 92.04372	 45.76373	 37.38630	 43.12942	 38.49665	  2.29016	 92.01397	714.28003	 30.30	
  1.699	-26.182	 92.04182	 45.70197	 37.44993	 38.94886	 42.61693	  2.18893	 92.01971	714.32001	 30.50	
  1.692	-77.194	 92.00173	 42.40760	 40.69651	 36.58739	 45.08334	  2.02971	 91.99874	714.21997	 30.60	
  1.691	-128.401	 91.95561	 38.38738	 44.75292	 37.52588	 44.04123	  1.93433	 91.98646	714.34998	 30.80	
  1.700	180.000	 91.96909	 36.64753	 46.60682	 41.10863	 40.37604	  1.98395	 92.02277	714.28998	 30.90	
  3.400	180.000	 91.75745	 31.05322	 51.32925	 40.80977	 39.89585	  1.62962	 92.05877	714.34998	 31.00	
  3.388	-152.325	 91.79000	 32.09344	 50.27197	 36.59794	 44.26457	  1.57716	 92.07182	714.35999	 31.20	
  3.397	-124.529	 91.84604	 35.07946	 47.13654	 33.24509	 48.06762	  1.57011	 92.08430	714.42999	 31.30	
  3.399	-96.763	 91.92521	 39.79734	 42.65204	 31.67923	 49.95496	  1.60422	 92.07614	714.40002	 31.50	
  3.394	-69.283	 92.02144	 44.42131	 38.12497	 32.11978	 49.46775	  1.72910	 92.12325	714.23999	 31.60	
  3.400	-41.398	 92.02548	 48.07492	 34.26521	 34.47956	 46.63795	  1.88935	 92.07066	714.40997	 31.80	
  3.401	-14.021	 92.08900	 50.52491	 32.15244	 38.40063	 42.56110	  2.04121	 92.11403	714.38000	 31.90	
  3.401	 14.021	 92.03728	 50.63696	 32.03414	 43.02199	 37.96412	  2.15842	 92.09588	714.42999	 32.00	
  3.400	 41.398	 92.04906	 48.43376	 34.02008	 47.24998	 33.97968	  2.15286	 92.11903	714.42999	 32.10	
  3.394	 69.283	 92.04091	 44.72100	 37.77692	 50.28029	 31.42731	  2.11964	 92.14732	714.40997	 32.30	
  3.399	 96.763	 91.99880	 40.13256	 42.36107	 50.91692	 30.86830	  2.03500	 92.15467	714.41998	 32.40	
  3.397	124.529	 91.92963	 35.75639	 46.85661	 49.18034	 32.33315	  1.88817	 92.13498	714.33002	 32.50	
  3.388	152.325	 91.91629	 32.26158	 50.12810	 45.41033	 35.68542	  1.73304	 92.18633	714.40997	 32.60	
  5.099	161.165	 91.35757	 26.70366	 54.85333	 45.08381	 34.77058	  1.25225	 92.13575	714.42999	 32.70	
  5.109	142.013	 91.44616	 28.89648	 52.68666	 49.58838	 30.64644	  1.37195	 92.15520	714.35999	 32.90	
  5.095	123.033	 91.48401	 32.38369	 48.95074	 52.82369	 27.66796	  1.51194	 92.13237	714.39001	 33.00	
  5.105	104.191	 91.53931	 36.74710	 44.45055	 54.83947	 25.94942	  1.67285	 92.09339	714.41998	 33.10	
  5.093	 85.207	 91.64722	 41.84594	 39.70473	 55.20787	 25.60185	  1.80069	 92.13239	714.40002	 33.20	
  5.104	 66.290	 91.73393	 46.56491	 35.20663	 53.92147	 26.56946	  1.86655	 92.16331	714.42999	 33.30	
  5.094	 47.331	 91.78450	 50.59988	 30.94032	 51.23514	 29.23107	  1.89350	 92.18307	714.34003	 33.40	
  5.089	 28.397	 91.80730	 53.72383	 28.25113	 47.23177	 32.98669	  1.91804	 92.20902	714.46002	 33.50	
  5.096	  9.576	 91.86480	 55.40087	 26.85513	 42.57742	 37.46490	  1.85462	 92.24065	714.44000	 33.60	
  5.096	 -9.576	 91.88168	 55.37216	 26.88548	 37.87048	 42.23539	  1.78041	 92.23471	714.40997	 33.70	
  5.089	-28.397	 91.90272	 53.70346	 28.38846	 33.42267	 46.81860	  1.64855	 92.26968	714.51001	 33.80	
  5.094	-47.331	 91.79002	 50.25206	 31.20384	 29.52233	 50.73638	  1.45436	 92.20915	714.32001	 33.90	
  5.104	-66.290	 91.81483	 46.02192	 35.20401	 27.04123	 53.39121	  1.30249	 92.32609	714.46002	 34.00	
  5.093	-85.207	 91.68251	 41.67923	 39.83934	 26.05396	 54.44489	  1.14534	 92.27157	714.41998	 34.10	
  5.105	-104.191	 91.59407	 36.96745	 44.66075	 26.42712	 53.96681	  1.07622	 92.26624	714.35999	 34.10	
  5.095	-123.033	 91.59553	 32.71659	 49.30098	 28.42607	 51.78353	  1.06554	 92.33869	714.26001	 34.20	
  5.109	-142.013	 91.55119	 28.80651	 53.11883	 31.89277	 48.28070	  1.04985	 92.30443	714.31000	 34.30	
  5.099	-161.165	 91.57117	 26.66804	 55.43679	 36.00348	 43.82219	  1.09957	 92.36385	714.32001	 34.40	
  5.100	180.000	 91.52600	 26.05885	 56.08344	 40.50602	 39.32290	  1.16276	 92.31197	714.26001	 34.50	
  6.800	180.000	 90.78584	 21.11991	 60.41003	 39.83179	 38.39149	  0.52684	 92.38368	714.46002	 34.60	
  6.796	-166.229	 90.73817	 21.44268	 59.89123	 35.35575	 42.87959	  0.47793	 92.33178	714.41998	 34.60	
  6.808	-152.311	 90.78316	 22.92835	 58.28733	 30.94861	 47.44121	  0.43311	 92.36728	714.32001	 34.70	
  6.795	-138.383	 90.83275	 25.33176	 55.57695	 27.17587	 51.57956	  0.38825	 92.41230	714.29999	 34.80	
  6.792	-124.591	 90.86138	 28.57715	 51.96563	 24.27900	 54.90567	  0.34082	 92.40192	714.35999	 34.90	
  6.787	-110.754	 90.94981	 32.51902	 47.74649	 22.35736	 57.29953	  0.39131	 92.42449	714.31000	 35.00	
  6.800	-96.985	 91.11719	 36.96951	 43.18364	 21.23664	 58.79904	  0.42299	 92.49541	714.29999	 35.00	
  6.800	-83.015	 91.22173	 42.17619	 38.49099	 21.09796	 59.02624	  0.49850	 92.54076	714.25000	 35.10	
  6.787	-69.246	 91.24165	 46.32250	 33.94770	 22.01797	 57.85255	  0.64731	 92.46537	714.33002	 35.20	
  6.792	-55.409	 91.38180	 50.68828	 29.92820	 23.84032	 55.73619	  0.77598	 92.52183	714.31000	 35.30	
  6.795	-41.617	 91.46199	 54.74736	 26.52505	 26.75818	 52.49551	  0.93152	 92.50584	714.33002	 35.30	
  6.808	-27.689	 91.58089	 57.70440	 23.95122	 30.55608	 48.50613	  1.13823	 92.55516	714.21002	 35.40	
  6.796	-13.771	 91.55061	 59.48326	 22.35788	 34.84753	 43.86065	  1.29035	 92.51904	714.27002	 35.50	
  6.800	  0.000	 91.54167	 60.10311	 21.54645	 39.52301	 39.25718	  1.40626	 92.51852	714.38000	 35.60	
  6.796	 13.771	 91.53722	 59.60463	 21.99227	 44.24187	 34.66423	  1.48491	 92.54167	714.27002	 35.70	
  6.808	 27.689	 91.52528	 57.90806	 23.42511	 48.76651	 30.37396	  1.50598	 92.56889	714.32001	 35.70	
  6.795	 41.617	 91.51130	 55.06065	 25.82452	 52.76878	 26.61160	  1.50063	 92.53958	714.32001	 35.80	
  6.792	 55.409	 91.41951	 51.23199	 29.32640	 56.07857	 23.36271	  1.46000	 92.47759	714.25000	 35.80	
  6.787	 69.246	 91.43171	 47.22828	 33.13824	 58.61168	 21.37207	  1.42484	 92.52909	714.29999	 35.90	
  6.800	 83.015	 91.36874	 42.68320	 37.70431	 60.01316	 20.36921	  1.35462	 92.51856	714.35999	 36.00	
  6.800	 96.985	 91.28143	 37.91608	 42.38783	 60.04686	 20.33156	  1.27122	 92.49180	714.25000	 36.00	
  6.787	110.754	 91.20618	 33.00468	 47.03200	 58.82157	 21.42783	  1.20233	 92.49314	714.39001	 36.10	
  6.792	124.591	 91.16343	 28.89101	 51.37052	 56.42868	 23.36359	  1.05752	 92.51225	714.38000	 36.10	
  6.795	138.383	 91.11625	 25.81074	 55.05147	 53.23646	 26.02936	  0.87606	 92.51450	714.27002	 36.20	
  6.808	152.311	 91.06995	 23.38766	 58.05806	 49.26792	 29.60350	  0.82081	 92.56811	714.37000	 36.20	
  6.796	166.229	 90.97683	 21.80226	 59.87648	 44.65179	 33.90710	  0.68253	 92.52972	714.34998	 36.30	
  8.491	168.704	 89.92690	 16.30793	 63.99201	 43.85883	 32.66643	 -0.04992	 92.55975	714.32001	 36.30	
  8.502	157.493	 89.94321	 17.60988	 62.47375	 48.51985	 28.23644	  0.09386	 92.55914	714.39001	 36.40	
  8.494	146.194	 90.03223	 19.85742	 59.96807	 52.80452	 24.47689	  0.22024	 92.55053	714.23999	 36.40	
  8.495	135.039	 90.10144	 22.65345	 56.72651	 56.67039	 21.18010	  0.35097	 92.54835	714.40997	 36.50	
  8.487	123.723	 90.16068	 25.99041	 52.72985	 59.90598	 18.51559	  0.44733	 92.51847	714.23999	 36.50	
  8.492	112.575	 90.24458	 29.66829	 48.39921	 62.24599	 16.62732	  0.55275	 92.53675	714.33002	 36.60	
  8.510	101.220	 90.32659	 34.24652	 43.62429	 63.78723	 15.33079	  0.65017	 92.56790	714.31000	 36.60	
  8.500	 90.000	 90.38654	 38.95757	 38.90844	 64.21621	 14.96953	  0.71042	 92.55894	714.20001	 36.70	
  8.510	 78.780	 90.41639	 44.12429	 34.09017	 63.69387	 15.35384	  0.75506	 92.57024	714.33002	 36.70	
  8.492	 67.425	 90.50822	 48.84809	 29.87799	 62.13585	 16.62517	  0.80483	 92.62627	714.27002	 36.80	
  8.487	 56.277	 90.53815	 52.82321	 26.09543	 59.68436	 18.55556	  0.85908	 92.60385	714.33002	 36.80	
  8.495	 44.961	 90.56205	 56.87949	 22.76971	 56.37940	 21.48819	  0.90171	 92.57742	714.28003	 36.90	
  8.494	 33.806	 90.56291	 60.03674	 20.08780	 52.43863	 25.06608	  0.93884	 92.59233	714.16998	 36.90	
  8.502	 22.507	 90.58662	 62.40241	 18.08994	 48.10425	 29.09279	  0.94669	 92.61216	714.25000	 36.90	
  8.491	 11.296	 90.61832	 63.74753	 16.73929	 43.35118	 33.75786	  0.89253	 92.59920	714.27002	 37.00	
  8.500	  0.000	 90.59533	 64.20744	 16.34252	 38.36525	 38.45840	  0.81208	 92.54422	714.25000	 37.00	
  8.491	-11.296	 90.67315	 63.73252	 16.81596	 33.79087	 43.19177	  0.71657	 92.60981	714.19000	 37.00	
  8.502	-22.507	 90.66800	 62.19518	 18.01114	 29.05357	 47.94624	  0.53909	 92.61609	714.07001	 37.10	
  8.494	-33.806	 90.62969	 59.75477	 20.15756	 25.29561	 52.26229	  0.35743	 92.60729	714.09003	 37.10	
  8.495	-44.961	 90.59482	 56.55480	 22.97307	 22.04421	 56.02364	  0.18855	 92.66433	714.12000	 37.10	
  8.487	-56.277	 90.49716	 52.50169	 26.40195	 19.37848	 59.18550	  0.03836	 92.62598	714.08002	 37.20	
  8.492	-67.425	 90.37743	 47.81020	 30.36594	 17.39416	 61.49947	 -0.04993	 92.59886	714.12000	 37.20	
  8.510	-78.780	 90.33362	 43.50298	 34.93155	 16.21493	 62.93220	 -0.19655	 92.66136	714.28003	 37.30	
  8.500	-90.000	 90.18871	 38.74024	 39.64606	 15.85433	 63.23766	 -0.28789	 92.60043	714.09998	 37.30	
  8.510	-101.220	 90.13182	 34.13589	 44.37305	 16.26709	 62.59534	 -0.38522	 92.66593	714.23999	 37.40	
  8.492	-112.575	 90.05858	 29.17801	 49.14419	 17.71398	 60.91938	 -0.34275	 92.65882	714.21002	 37.40	
  8.487	-123.723	 90.08414	 25.35193	 53.75071	 19.85311	 58.36894	 -0.43911	 92.75587	714.23999	 37.50	
  8.495	-135.039	 90.02345	 22.04651	 57.57590	 22.53431	 54.99541	 -0.35857	 92.73944	714.25000	 37.50	
  8.494	-146.194	 89.98173	 19.40794	 60.64224	 25.91447	 51.28512	 -0.33669	 92.71937	714.21002	 37.50	
  8.502	-157.493	 90.04397	 17.38475	 62.98310	 29.94945	 46.86890	 -0.29025	 92.76414	714.26001	 37.60	
  8.491	-168.704	 90.09419	 16.31675	 64.30478	 34.59507	 42.13631	 -0.22702	 92.77561	714.28003	 37.60	
  8.500	180.000	 90.09609	 15.88129	 64.73025	 39.17566	 37.47093	 -0.18370	 92.79124	714.14001	 37.70	
 10.200	180.000	 88.70956	 10.71466	 68.57968	 37.84465	 36.21670	 -1.05195	 92.80682	714.26001	 37.70	
 10.191	-170.497	 88.70594	 11.08811	 68.22861	 33.24227	 40.81290	 -1.09773	 92.79224	714.27002	 37.70	
 10.210	-161.034	 88.67757	 11.93382	 67.11430	 28.64439	 45.72437	 -1.44425	 92.84251	714.25000	 37.80	
 10.194	-151.526	 88.58356	 13.48683	 65.13441	 24.41062	 50.33981	 -1.23792	 92.76559	714.21997	 37.80	
 10.190	-142.105	 88.63795	 15.74059	 62.48895	 20.79096	 54.44571	 -1.21925	 92.80683	714.22998	 37.90	
 10.215	-132.646	 88.62049	 18.50335	 59.13070	 17.35106	 58.28423	 -1.43776	 92.78259	714.23999	 37.90	
 10.203	-123.092	 88.65536	 21.91735	 55.07788	 14.76993	 61.62327	 -1.44126	 92.77143	714.17999	 37.90	
 10.192	-113.678	 88.75678	 25.72515	 50.74663	 12.85974	 64.24327	 -1.17667	 92.78802	714.17999	 38.00	
 10.208	-104.249	 88.86681	 30.03088	 46.15787	 11.32074	 66.25056	 -1.44461	 92.86577	714.01001	 38.00	
 10.210	-94.801	 88.91296	 34.63690	 41.32763	 10.65133	 67.32011	 -1.17700	 92.80547	714.14001	 38.00	
 10.210	-85.199	 89.03025	 39.93930	 36.52141	 10.53875	 67.50067	 -1.07556	 92.79660	714.12000	 38.00	
 10.208	-75.751	 89.08496	 44.69356	 31.84167	 11.06023	 66.72507	 -1.17865	 92.77943	714.21002	 38.10	
 10.192	-66.322	 89.22388	 49.01304	 27.39683	 12.37553	 65.06649	 -0.85582	 92.80067	714.13000	 38.10	
 10.203	-56.908	 89.32571	 53.86540	 23.41740	 14.24539	 62.65039	 -0.98994	 92.80028	714.10999	 38.10	
 10.215	-47.354	 89.39915	 58.01018	 19.82240	 16.82360	 59.51562	 -0.68296	 92.80833	714.10999	 38.20	
 10.190	-37.895	 89.55208	 61.45359	 17.04806	 20.25041	 55.69939	 -0.55675	 92.81829	714.15002	 38.20	
 10.194	-28.474	 89.56420	 64.26580	 14.46706	 23.89820	 51.57941	 -0.35592	 92.78743	714.17999	 38.30	
 10.210	-18.966	 89.57668	 66.41295	 12.49540	 28.07398	 46.93316	 -0.18665	 92.78535	714.21997	 38.30	
 10.191	 -9.503	 89.58444	 67.70871	 11.61850	 32.63758	 42.19617	 -0.03645	 92.75582	714.17999	 38.30	
 10.200	  0.000	 89.53607	 68.19333	 11.23092	 37.17159	 37.42038	  0.07500	 92.76643	714.14001	 38.30	
 10.191	  9.503	 89.50777	 67.79282	 11.48763	 42.26227	 32.64697	  0.13014	 92.78110	714.19000	 38.40	
 10.210	 18.966	 89.45965	 66.65331	 12.25851	 47.08816	 27.91983	  0.13149	 92.77988	714.22998	 38.40	
 10.194	 28.474	 89.42774	 64.67986	 13.85361	 51.63118	 23.64131	  0.15804	 92.75347	714.10999	 38.40	
 10.190	 37.895	 89.45651	 62.00437	 16.04995	 55.95473	 19.78249	  0.14379	 92.79845	714.17999	 38.40	
 10.215	 47.354	 89.44678	 58.60287	 18.76523	 59.88333	 16.46649	  0.06829	 92.83169	714.17999	 38.50	
 10.203	 56.908	 89.31121	 54.42314	 22.11935	 63.05959	 13.64354	 -0.04189	 92.74931	714.21002	 38.50	
 10.192	 66.322	 89.33670	 50.25320	 26.34258	 65.55563	 11.43440	 -0.06562	 92.81501	714.19000	 38.50	
 10.208	 75.751	 89.30677	 45.61441	 30.55986	 67.37926	 10.14452	 -0.08195	 92.77392	714.15997	 38.50	
 10.210	 85.199	 89.28055	 40.83407	 34.94554	 68.35253	  9.60589	 -0.09407	 92.79411	714.10999	 38.60	
 10.210	 94.801	 89.24709	 35.79882	 39.95742	 68.43914	  9.71080	 -0.09033	 92.81441	714.17999	 38.60	
 10.208	104.249	 89.16209	 30.91609	 44.69486	 67.61382	 10.40594	 -0.16913	 92.77492	714.20001	 38.60	
 10.192	113.678	 89.06721	 26.90950	 49.36476	 65.83733	 11.62454	 -0.28640	 92.75858	714.16998	 38.60	
 10.203	123.092	 89.07014	 23.05603	 53.79381	 63.49128	 13.46573	 -0.46097	 92.82746	714.15002	 38.60	
 10.215	132.646	 88.96702	 19.57426	 57.99694	 60.26012	 16.06529	 -0.49504	 92.77685	714.17999	 38.60	
 10.190	142.105	 88.88580	 16.24812	 61.60515	 56.37326	 19.20744	 -0.83797	 92.76900	714.26001	 38.70	
 10.194	151.526	 88.85202	 13.85656	 64.51385	 52.13987	 22.89299	 -1.11753	 92.78532	714.19000	 38.70	
 10.210	161.034	 88.75491	 12.12170	 66.65266	 47.64060	 26.86558	 -1.32557	 92.75152	714.17999	 38.70	
 10.191	170.497	 88.74294	 11.18518	 67.99725	 42.82473	 31.44295	 -1.44952	 92.77341	714.21997	 38.80	
 11.899	171.783	 87.00688	  5.68597	 71.73401	 41.36169	 29.90347	 -2.35297	 92.78300	714.21997	 38.80	
 11.890	163.610	 87.08319	  6.67258	 70.48376	 46.28702	 25.43788	 -2.30057	 92.80347	714.12000	 38.80	
 11.889	155.445	 87.12198	  7.98949	 68.54478	 50.89880	 21.34902	 -2.19207	 92.78766	714.22998	 38.90	
 11.909	147.299	 87.16105	  9.89954	 65.96785	 55.38969	 17.38671	 -2.14626	 92.77874	714.25000	 38.90	
 11.902	139.148	 87.28471	 12.57802	 62.76596	 59.63375	 13.84951	 -2.12753	 92.82368	714.23999	 38.90	
 11.894	130.867	 87.38326	 15.82249	 58.95332	 63.33709	 10.86474	 -2.09528	 92.84065	714.13000	 38.90	
 11.897	122.732	 87.38026	 19.39049	 54.65981	 66.31684	  8.51541	 -2.01695	 92.74266	714.23999	 38.90	
 11.903	114.597	 87.49030	 23.24645	 50.22906	 68.90438	  6.65675	 -2.02980	 92.81087	714.20001	 39.00	
 11.893	106.346	 87.53257	 27.73039	 45.43415	 70.65937	  5.47321	 -1.66412	 92.77724	714.19000	 39.00	
 11.892	 98.155	 87.61960	 32.21445	 40.64163	 71.76297	  4.72512	 -1.66140	 92.81619	714.23999	 39.00	
 11.900	 90.000	 87.65406	 36.68932	 35.66422	 72.12717	  4.25087	 -1.01362	 92.83408	714.07001	 39.10	
 11.892	 81.845	 87.74946	 41.54854	 31.13633	 71.65275	  4.43797	 -1.23710	 92.86357	714.12000	 39.10	
 11.893	 73.654	 87.71187	 46.60732	 26.71710	 70.36617	  5.17860	 -1.10556	 92.77488	714.09003	 39.10	
 11.903	 65.403	 87.74880	 51.19758	 22.53005	 68.43255	  6.67504	 -1.10267	 92.81332	714.12000	 39.10	
 11.897	 57.268	 87.82761	 55.50988	 18.49195	 65.93164	  8.80114	 -0.95877	 92.85928	714.21002	 39.20	
 11.894	 49.133	 87.84793	 59.70846	 15.16451	 62.85701	 11.46644	 -1.06107	 92.84560	714.19000	 39.20	
 11.902	 40.852	 87.88762	 63.44179	 12.18803	 59.10520	 14.56498	 -0.74462	 92.88734	714.14001	 39.20	
 11.909	 32.701	 87.83324	 66.40117	  9.84891	 54.82680	 18.06918	 -0.76660	 92.83273	714.17999	 39.20	
 11.889	 24.555	 87.92478	 68.69599	  8.08274	 50.33426	 22.15087	 -0.71254	 92.86583	714.32001	 39.20	
 11.890	 16.390	 88.00552	 70.49028	  6.90836	 45.58006	 26.65757	 -0.72971	 92.87287	714.12000	 39.30	
 11.899	  8.217	 88.00420	 71.59782	  6.15415	 40.52489	 31.34685	 -0.73305	 92.86472	714.23999	 39.30	
 11.900	  0.000	 88.05834	 72.01252	  5.99353	 35.68856	 36.31754	 -0.81941	 92.91570	714.20001	 39.30	
 11.899	 -8.217	 88.08360	 71.58305	  6.38876	 31.02836	 41.08302	 -0.94781	 92.89246	714.25000	 39.30	
 11.890	-16.390	 88.09581	 70.37679	  7.15959	 26.52295	 45.79984	 -1.18706	 92.90154	714.21002	 39.40	
 11.889	-24.555	 88.04707	 68.40955	  8.50556	 22.18912	 50.58002	 -1.32899	 92.86855	714.19000	 39.40	
 11.909	-32.701	 88.00044	 65.87748	 10.55814	 18.13257	 54.96776	 -1.57519	 92.87714	714.15002	 39.40	
 11.902	-40.852	 87.88905	 62.77338	 13.09907	 14.50151	 59.11072	 -1.95414	 92.85373	714.09003	 39.40	
 11.894	-49.133	 87.79524	 59.00102	 16.24185	 11.48910	 62.80240	 -1.82580	 92.84886	714.21997	 39.50	
 11.897	-57.268	 87.73872	 54.81286	 19.77304	  9.00600	 65.82726	 -2.01178	 92.86024	714.20001	 39.50	
 11.903	-65.403	 87.65723	 49.94106	 23.66367	  7.11305	 68.21827	 -1.86469	 92.83675	714.13000	 39.50	
 11.893	-73.654	 87.61256	 45.65026	 28.09160	  5.85223	 70.02502	 -2.01897	 92.90928	714.12000	 39.50	
 11.892	-81.845	 87.44217	 40.81576	 32.63765	  5.27889	 70.99356	 -1.99324	 92.84234	714.13000	 39.50	
 11.900	-90.000	 87.32133	 36.07477	 37.30107	  5.17993	 71.24100	 -1.89123	 92.85739	714.17999	 39.50	
 11.892	-98.155	 87.27240	 30.97510	 42.00747	  5.64281	 70.68920	 -2.15833	 92.88792	714.15997	 39.50	
 11.893	-106.346	 87.20438	 26.35999	 46.79212	  6.36908	 69.42966	 -2.11430	 92.92377	714.21997	 39.50	
 11.903	-114.597	 87.06563	 22.20346	 51.49693	  7.64848	 67.34428	 -2.14672	 92.84145	714.19000	 39.50	
 11.897	-122.732	 86.97879	 18.40982	 56.24691	  9.43619	 64.67998	 -2.17180	 92.86420	714.23999	 39.60	
 11.894	-130.867	 86.96434	 15.00561	 60.31678	 12.11271	 61.40083	 -2.22502	 92.89828	714.26001	 39.60	
 11.902	-139.148	 86.94481	 12.04827	 63.94697	 15.25077	 57.50568	 -2.21373	 92.90154	714.19000	 39.60	
 11.909	-147.299	 86.94761	  9.52709	 67.02593	 18.78437	 53.36481	 -2.24360	 92.93528	714.22998	 39.60	
 11.889	-155.445	 86.99709	  7.82877	 69.34317	 22.94072	 48.95514	 -2.24049	 92.88981	714.09003	 39.60	
 11.890	-163.610	 87.07941	  6.61017	 70.99829	 27.31071	 44.28039	 -2.27099	 92.93057	714.23999	 39.60	
 11.899	-171.783	 87.08765	  5.85915	 72.00249	 31.88736	 39.37840	 -2.33461	 92.90926	714.20001	 39.60	
 11.900	180.000	 87.07961	  5.56405	 72.22556	 36.57090	 34.73119	 -2.37837	 92.87435	714.23999	 39.60	
 13.600	180.000	 85.06299	  0.14512	 75.67613	 34.87400	 33.02464	 -3.04047	 92.94678	714.17999	 39.70	
 13.608	-172.853	 84.99206	  0.41045	 75.44473	 30.24415	 37.61500	 -2.95399	 92.90152	714.26001	 39.70	
 13.611	-165.583	 84.97370	  1.07174	 74.62212	 25.65097	 42.53948	 -2.81024	 92.92118	714.10999	 39.70	
 13.601	-158.353	 85.00044	  2.05304	 73.17850	 21.10291	 47.33606	 -2.71613	 92.97935	714.09003	 39.70	
 13.609	-151.210	 85.03045	  3.62928	 71.08501	 17.08016	 51.87054	 -2.62778	 93.01577	714.16998	 39.80	
 13.611	-143.999	 84.99968	  5.75312	 68.34481	 12.73584	 56.26273	 -2.57983	 93.03037	714.12000	 39.80	
 13.601	-136.825	 85.01604	  8.26133	 65.07532	  9.50095	 60.44032	 -2.55724	 93.03278	714.10999	 39.80	
 13.596	-129.640	 85.04242	 11.26613	 61.38578	  6.68928	 64.10745	 -2.57012	 93.00307	714.04999	 39.80	
 13.611	-122.431	 85.12671	 14.72344	 57.28038	  4.35780	 67.39896	 -2.50999	 93.07574	714.09998	 39.90	
 13.604	-115.211	 85.17641	 18.55509	 52.73525	  2.42940	 70.16847	 -2.44481	 93.03169	714.19000	 39.90	
 13.595	-108.042	 85.22657	 22.52695	 48.10358	  0.98899	 72.26398	 -2.43521	 93.02262	714.23999	 39.90	
 13.607	-100.793	 85.28634	 26.79504	 43.26466	  0.22379	 73.83302	 -2.47759	 93.04588	714.21002	 40.00	
 13.601	-93.617	 85.38003	 31.54522	 38.45427	 -0.18679	 74.72296	 -2.48901	 93.06763	714.20001	 40.00	
 13.601	-86.383	 85.45128	 36.21768	 33.61451	 -0.50124	 74.92001	 -2.47757	 93.04941	714.12000	 40.00	
 13.607	-79.207	 85.59247	 41.47804	 28.96431	 -0.56667	 74.41624	 -2.48503	 93.06904	714.02002	 40.00	
 13.595	-71.958	 85.67081	 46.28638	 24.50624	  0.16600	 73.17035	 -2.45802	 93.05541	714.15002	 40.00	
 13.604	-64.789	 85.77699	 50.70353	 20.27764	  1.59724	 71.33564	 -2.49106	 93.03671	714.19000	 40.00	
 13.611	-57.569	 85.92195	 55.65578	 16.31785	  3.32961	 68.97283	 -2.56656	 93.12919	714.13000	 40.00	
 13.596	-50.360	 85.95107	 59.92773	 12.82536	  5.64457	 65.89067	 -2.61684	 93.04119	714.15997	 40.00	
 13.601	-43.175	 86.02876	 63.76220	  9.37461	  8.54144	 62.30191	 -2.61391	 93.03920	714.15997	 40.00	
 13.611	-36.001	 86.14639	 67.07474	  6.63124	 11.93079	 58.24551	 -2.59257	 93.04752	714.13000	 40.10	
 13.609	-28.790	 86.22748	 70.02122	  4.39140	 15.94307	 53.75616	 -2.44646	 93.02547	714.14001	 40.00	
 13.601	-21.647	 86.31577	 72.41772	  2.64304	 20.07725	 49.13241	 -2.36023	 93.08778	714.14001	 40.10	
 13.611	-14.417	 86.31879	 74.17058	  1.43199	 24.66456	 44.27188	 -2.37421	 93.06808	714.19000	 40.10	
 13.608	 -7.147	 86.34657	 75.25626	  0.79047	 29.44776	 39.38651	 -2.35390	 93.09605	714.09003	 40.10	
 13.600	  0.000	 86.29909	 75.58931	  0.47140	 33.97247	 34.66834	 -2.31385	 93.10258	714.12000	 40.10	
 13.608	  7.147	 86.21738	 75.29623	  0.50939	 38.96271	 29.56922	 -2.18590	 93.07951	714.19000	 40.10	
 13.611	 14.417	 86.23089	 74.40228	  1.19065	 43.76753	 24.99516	 -2.36507	 93.13707	714.12000	 40.10	
 13.601	 21.647	 86.23364	 72.84183	  2.31111	 48.67941	 20.54795	 -2.36895	 93.15388	714.27002	 40.10	
 13.609	 28.790	 86.16402	 70.59729	  3.81902	 53.41045	 16.28924	 -2.32261	 93.10595	714.13000	 40.10	
 13.611	 36.001	 86.16219	 67.70842	  5.89939	 57.79766	 12.27910	 -2.44438	 93.12891	714.21002	 40.10	
 13.601	 43.175	 86.19554	 64.59943	  8.41496	 61.93625	  8.88123	 -2.64563	 93.14263	714.27002	 40.20	
 13.596	 50.360	 86.18961	 60.87626	 11.27685	 65.49104	  6.03482	 -2.80907	 93.10618	714.13000	 40.20	
 13.611	 57.569	 86.10244	 56.60953	 14.58619	 68.70108	  3.57374	 -2.84413	 93.12268	714.06000	 40.20	
 13.604	 64.789	 86.05686	 52.10308	 18.24574	 71.35040	  1.59064	 -2.84734	 93.09732	714.17999	 40.20	
 13.595	 71.958	 86.07734	 47.47689	 22.34272	 73.46114	  0.10819	 -2.88842	 93.14729	714.20001	 40.20	
 13.607	 79.207	 86.03561	 42.53334	 27.13072	 74.95128	 -0.98769	 -2.86121	 93.13493	714.19000	 40.20	
 13.601	 86.383	 86.05767	 37.63547	 31.66812	 75.68174	 -1.13892	 -2.97623	 93.16048	714.16998	 40.20	
 13.601	 93.617	 85.97256	 33.08689	 36.24040	 75.74564	 -0.77857	 -2.89388	 93.09683	714.17999	 40.20	
 13.607	100.793	 85.91364	 28.47098	 41.24291	 75.14890	 -0.36380	 -3.01334	 93.11201	714.28003	 40.20	
 13.595	108.042	 85.89100	 24.01423	 46.09881	 73.84101	  0.51043	 -3.00194	 93.11608	714.19000	 40.20	
 13.604	115.211	 85.76518	 19.59880	 50.82471	 71.87399	  1.64269	 -2.98813	 93.06149	714.14001	 40.20	
 13.611	122.431	 85.77557	 15.58633	 55.48976	 69.41589	  3.33725	 -2.97506	 93.14044	714.25000	 40.20	
 13.596	129.640	 85.69462	 11.92191	 59.82938	 66.17376	  5.50271	 -3.02742	 93.10766	714.21002	 40.20	
 13.601	136.825	 85.58947	  8.75240	 63.72712	 62.59935	  8.16834	 -3.07427	 93.08598	714.22998	 40.20	
 13.611	143.999	 85.48134	  6.05305	 67.16595	 58.59901	 11.77206	 -3.08208	 93.07188	714.20001	 40.30	
 13.609	151.210	 85.46413	  3.85391	 70.20264	 54.19486	 15.54997	 -3.02993	 93.13288	714.29999	 40.30	
 13.601	158.353	 85.35913	  2.18013	 72.56327	 49.48107	 19.57968	 -3.03633	 93.08483	714.16998	 40.30	
 13.611	165.583	 85.28035	  0.96946	 74.34692	 44.67903	 23.77399	 -3.10408	 93.09335	714.15002	 40.30	
 13.608	172.853	 85.24870	  0.07783	 75.45284	 39.58006	 28.38230	 -3.10548	 93.11485	714.22998	 40.30	
 15.298	173.587	 82.89278	 -5.20303	 78.54979	 37.78957	 26.57450	 -3.53865	 93.12317	714.17999	 40.30	
 15.291	167.167	 82.96880	 -4.51178	 77.54305	 42.64163	 22.04071	 -3.60416	 93.13101	714.15997	 40.30	
 15.307	160.676	 83.04746	 -3.47781	 76.05741	 47.56327	 17.72806	 -3.58442	 93.17223	714.12000	 40.30	
 15.300	154.261	 83.02693	 -2.08142	 73.78246	 52.30084	 13.47785	 -3.64020	 93.07999	714.15997	 40.30	
 15.288	147.854	 83.20771	 -0.01340	 71.10680	 56.95654	  9.71427	 -3.75048	 93.17242	714.16998	 40.40	
 15.293	141.428	 83.27236	  2.40124	 67.87469	 61.23638	  6.05080	 -3.84051	 93.13600	714.29999	 40.40	
 15.299	134.985	 83.36217	  5.07676	 64.14021	 65.22674	  2.59088	 -3.89366	 93.12465	714.27002	 40.40	
 15.305	128.583	 83.40207	  8.13274	 60.12280	 68.74566	  0.05312	 -3.89292	 93.09541	714.21997	 40.40	
 15.309	122.142	 83.42719	 11.55113	 55.73013	 71.82216	 -1.95252	 -3.82520	 93.06586	714.19000	 40.40	
 15.304	115.711	 83.52351	 15.62344	 51.11923	 74.37872	 -3.39723	 -3.80931	 93.09055	714.15002	 40.40	
 15.297	109.291	 83.59989	 19.99493	 46.38594	 76.34820	 -4.46468	 -3.82613	 93.06337	714.19000	 40.40	
 15.293	102.897	 83.69363	 24.65843	 41.66423	 77.78152	 -5.27944	 -3.85598	 93.11871	714.21997	 40.40	
 15.293	 96.458	 83.63476	 28.99976	 36.65951	 78.50826	 -5.80054	 -3.87579	 93.00622	714.22998	 40.40	
 15.300	 90.000	 83.65530	 33.59290	 31.94880	 78.74297	 -6.15056	 -3.83584	 93.00903	714.13000	 40.40	
 15.293	 83.542	 83.73746	 38.00067	 27.45634	 78.37240	 -6.25164	 -3.76168	 93.01369	714.14001	 40.50	
 15.293	 77.103	 83.73157	 43.11957	 22.68333	 77.33718	 -5.89422	 -3.76484	 92.98296	714.19000	 40.50	
 15.297	 70.709	 83.76771	 47.90661	 18.42887	 75.82485	 -4.76172	 -3.80238	 93.00704	714.12000	 40.50	
 15.304	 64.289	 83.73992	 52.55139	 14.43644	 73.69966	 -3.32521	 -3.75537	 92.97978	714.22998	 40.50	
 15.309	 57.858	 83.76660	 57.08516	 10.50503	 71.00935	 -1.36755	 -3.69236	 93.00394	714.23999	 40.50	
 15.305	 51.417	 83.89507	 61.47551	  7.38197	 67.83002	  1.10009	 -3.68321	 93.02785	714.14001	 40.60	
 15.299	 45.015	 83.82117	 65.23031	  4.51534	 64.22548	  3.90029	 -3.56310	 92.97087	714.13000	 40.60	
 15.293	 38.572	 83.83074	 68.67554	  2.02121	 60.21273	  6.96040	 -3.39758	 92.99388	714.12000	 40.60	
 15.288	 32.146	 83.77116	 71.66680	 -0.20776	 55.95202	 10.30127	 -3.23020	 92.98786	714.15997	 40.60	
 15.300	 25.739	 83.80418	 74.29324	 -1.97443	 51.33804	 14.25937	 -3.18560	 93.05489	714.15997	 40.60	
 15.307	 19.324	 83.80875	 76.14903	 -3.33298	 46.45515	 18.65487	 -3.17338	 92.97317	714.21997	 40.60	
 15.291	 12.833	 83.86896	 77.51817	 -4.31762	 41.62377	 23.15193	 -3.18728	 93.02632	714.23999	 40.60	
 15.298	  6.413	 83.87129	 78.37261	 -5.01087	 36.56157	 27.93949	 -3.16248	 93.04668	714.09998	 40.70	
 15.300	  0.000	 83.91744	 78.60684	 -5.06963	 31.67718	 32.77332	 -3.14159	 93.02184	714.07001	 40.70	
 15.298	 -6.413	 83.89993	 78.26492	 -4.86822	 27.17183	 37.52692	 -3.03754	 92.98859	714.12000	 40.70	
 15.291	-12.833	 83.94643	 77.35159	 -4.16359	 22.65665	 42.45680	 -2.93287	 93.03142	714.14001	 40.70	
 15.307	-19.324	 83.91998	 75.83627	 -3.12849	 17.95630	 47.38511	 -2.88839	 93.01678	714.16998	 40.70	
 15.300	-25.739	 83.90738	 73.73360	 -1.49344	 13.58536	 52.00258	 -2.89860	 92.99515	714.09998	 40.70	
 15.288	-32.146	 83.99636	 71.13699	  0.44709	  9.78715	 56.64230	 -2.93133	 93.10253	714.16998	 40.70	
 15.293	-38.572	 83.91518	 67.91706	  2.77752	  6.19285	 61.03714	 -2.95657	 93.13580	714.20001	 40.70	
 15.299	-45.015	 83.80916	 64.41305	  5.56131	  3.12901	 65.02512	 -2.90684	 93.10233	714.12000	 40.70	
 15.305	-51.417	 83.73586	 60.46191	  8.74313	  0.45529	 68.60203	 -2.90428	 93.16454	714.09998	 40.70	
 15.309	-57.858	 83.60622	 56.05734	 12.20399	 -1.83341	 71.60934	 -2.85866	 93.15306	714.15997	 40.70	
 15.304	-64.289	 83.47118	 51.25564	 16.14571	 -3.60445	 74.06052	 -2.77237	 93.12616	714.14001	 40.70	
 15.297	-70.709	 83.38139	 46.68068	 20.32160	 -4.95965	 75.96420	 -2.76347	 93.12167	714.08002	 40.70	
 15.293	-77.103	 83.22733	 41.79279	 24.66196	 -5.73069	 77.31295	 -2.70987	 93.09973	714.16998	 40.70	
 15.293	-83.542	 83.16746	 36.86877	 29.41371	 -5.90174	 78.14441	 -2.66330	 93.18363	714.15002	 40.80	
 15.300	-90.000	 83.03256	 31.85401	 34.02536	 -5.52143	 78.18065	 -2.61177	 93.11500	714.28003	 40.80	
 15.293	-96.458	 82.94739	 27.22885	 38.92439	 -5.45451	 77.73136	 -2.60491	 93.14487	714.28998	 40.80	
 15.293	-102.897	 82.87408	 22.81068	 43.86380	 -5.01169	 76.68964	 -2.54350	 93.17242	714.13000	 40.80	
 15.297	-109.291	 82.78877	 18.58047	 48.68058	 -4.18080	 74.95947	 -2.58679	 93.12249	714.16998	 40.80	
 15.304	-115.711	 82.74801	 14.61487	 53.31213	 -2.78014	 72.69645	 -2.57827	 93.12344	714.21997	 40.80	
 15.309	-122.142	 82.69030	 10.84719	 57.88780	 -0.89595	 69.99903	 -2.61767	 93.12441	714.21997	 40.80	
 15.305	-128.583	 82.66609	  7.50496	 62.08027	  1.55508	 66.73153	 -2.72267	 93.14836	714.19000	 40.80	
 15.299	-134.985	 82.67112	  4.51325	 65.94250	  4.24947	 63.09231	 -2.74540	 93.16872	714.20001	 40.80	
 15.293	-141.428	 82.64790	  2.01234	 69.30586	  7.41111	 58.95701	 -2.77016	 93.11051	714.19000	 40.80	
 15.288	-147.854	 82.61659	 -0.31439	 72.31996	 10.82363	 54.51307	 -2.83677	 93.07763	714.21997	 40.80	
 15.300	-154.261	 82.68716	 -2.23686	 74.81047	 14.73280	 49.93146	 -2.93993	 93.09841	714.27002	 40.90	
 15.307	-160.676	 82.72808	 -3.67207	 76.72371	 19.22930	 45.37581	 -3.08686	 93.13728	714.15002	 40.90	
 15.291	-167.167	 82.80426	 -4.42596	 77.98887	 23.75394	 40.56575	 -3.20149	 93.11195	714.09998	 40.90	
 15.298	-173.587	 82.81732	 -4.96744	 78.72118	 28.31878	 35.87241	 -3.37261	 93.10924	714.19000	 40.90	
 15.300	180.000	 82.74944	 -5.56356	 78.89178	 32.73310	 31.19301	 -3.51203	 93.04491	714.15002	 40.90	
 17.000	180.000	 80.05319	-10.99317	 81.70068	 30.56370	 29.11169	 -3.71508	 93.05524	714.19000	 40.90	
 16.990	-174.179	 80.07711	-10.53568	 81.53929	 26.24316	 33.56250	 -3.47361	 93.07272	714.19000	 40.90	
 17.009	-168.383	 80.02234	-10.27261	 80.92099	 21.87873	 38.19551	 -3.25345	 93.10330	714.17999	 40.90	
 17.000	-162.596	 79.99957	 -9.49538	 79.74583	 16.97478	 42.88123	 -3.09488	 93.06005	714.21002	 40.90	
 16.990	-156.759	 80.00563	 -8.15481	 78.03477	 12.72788	 47.60129	 -2.98484	 93.10190	714.22998	 40.90	
 16.995	-150.919	 79.94421	 -6.34041	 75.82173	  8.74569	 52.42845	 -2.84888	 93.09786	714.25000	 40.90	
 16.988	-145.161	 79.81296	 -4.32830	 73.07863	  5.17228	 56.86692	 -2.80146	 93.03539	714.21002	 41.00	
 17.014	-139.343	 79.81812	 -2.07677	 69.99589	  1.92843	 61.24102	 -2.71971	 93.06030	714.19000	 40.90	
 17.007	-133.546	 79.76559	  0.60765	 66.35767	 -0.97220	 65.28232	 -2.66484	 93.09165	714.20001	 41.00	
 17.001	-127.699	 79.73100	  3.66460	 62.31991	 -3.60039	 68.87074	 -2.59674	 92.98433	714.08002	 41.00	
 17.006	-121.937	 79.86164	  6.83833	 58.20556	 -5.78348	 72.16506	 -2.55806	 93.11028	714.26001	 41.00	
 17.002	-116.134	 79.82499	 10.45079	 53.53732	 -7.47947	 74.76360	 -2.50267	 92.98111	714.16998	 41.00	
 17.001	-110.310	 79.91312	 14.52206	 48.75646	 -8.71864	 77.04126	 -2.46348	 92.98561	714.32001	 41.00	
 16.988	-104.517	 80.00546	 18.63194	 43.95866	 -9.80381	 78.83292	 -2.47719	 92.97364	714.21997	 41.00	
 17.008	-98.662	 80.05246	 23.05370	 38.79381	-10.67120	 80.15249	 -2.44831	 93.01735	714.28998	 41.00	
 16.996	-92.909	 80.15557	 27.37021	 33.87595	-10.74725	 80.79083	 -2.47033	 92.96934	714.32001	 41.00	
 16.996	-87.091	 80.17484	 31.66631	 29.70444	-10.93464	 80.96481	 -2.56667	 92.96083	714.29999	 41.00	
 17.012	-81.253	 80.29742	 36.53297	 25.21001	-11.05924	 80.62241	 -2.57104	 92.98746	714.33002	 41.00	
 16.988	-75.483	 80.44918	 41.84467	 20.92040	-10.49086	 79.67809	 -2.62712	 92.95897	714.20001	 41.00	
 17.001	-69.690	 80.54689	 46.70965	 16.64011	-10.09652	 78.27354	 -2.70313	 92.99151	714.15002	 41.00	
 17.002	-63.866	 80.59184	 51.39568	 12.57362	 -8.91479	 76.31427	 -2.80564	 92.92978	714.15002	 41.00	
 17.006	-58.063	 80.65624	 56.04884	  8.66572	 -7.28257	 73.88047	 -2.84387	 92.95592	714.19000	 41.00	
 17.001	-52.301	 80.78741	 60.51959	  5.07883	 -5.10855	 70.89262	 -2.87157	 92.97006	714.16998	 41.00	
 17.007	-46.454	 80.85575	 64.60487	  1.82335	 -2.55274	 67.34292	 -2.91881	 92.93747	714.15002	 41.00	
 17.014	-40.657	 81.00159	 68.23377	 -1.13662	  0.32047	 63.61956	 -3.01232	 93.00765	714.17999	 41.10	
 16.988	-34.839	 81.12902	 71.58633	 -3.56702	  3.58255	 59.42505	 -3.06160	 92.95824	714.16998	 41.10	
 16.995	-29.081	 81.25246	 74.58888	 -5.63770	  7.26452	 54.94770	 -3.07235	 93.01516	714.26001	 41.10	
 16.990	-23.241	 81.34142	 76.90527	 -7.21742	 11.47364	 50.06812	 -3.12765	 92.94128	714.17999	 41.10	
 17.000	-17.404	 81.35686	 78.76741	 -8.62767	 15.70883	 45.30587	 -3.25423	 92.93930	714.19000	 41.10	
 17.009	-11.617	 81.35471	 80.22110	 -9.69031	 20.51360	 40.37111	 -3.34668	 92.95239	714.21997	 41.10	
 16.990	 -5.821	 81.42928	 81.10487	-10.14922	 25.02691	 35.56906	 -3.49268	 93.01339	714.22998	 41.10	
 17.000	  0.000	 81.28610	 81.40693	-10.67252	 29.25882	 30.75100	 -3.69954	 92.93989	714.26001	 41.10	
 16.990	  5.821	 81.29506	 81.15701	-10.37573	 34.14000	 25.86736	 -3.80765	 92.97014	714.27002	 41.20	
 17.009	 11.617	 81.30841	 80.49786	 -9.96802	 39.33998	 21.28069	 -3.85494	 93.02937	714.20001	 41.20	
 17.000	 17.404	 81.28664	 79.25912	 -9.02054	 43.96917	 16.60475	 -3.93066	 93.00219	714.17999	 41.20	
 16.990	 23.241	 81.23471	 77.55182	 -7.76655	 48.93731	 12.33553	 -4.00992	 93.02976	714.17999	 41.20	
 16.995	 29.081	 81.20611	 75.23023	 -6.14027	 53.69254	  8.45548	 -4.09370	 93.00156	714.22998	 41.20	
 16.988	 34.839	 81.25381	 72.45537	 -4.18235	 58.10589	  4.97235	 -4.25548	 93.01096	714.20001	 41.20	
 17.014	 40.657	 81.16763	 69.26664	 -2.02506	 62.45105	  1.66767	 -4.45409	 93.01707	714.15002	 41.20	
 17.007	 46.454	 81.20712	 65.63624	  0.58160	 66.35120	 -0.83943	 -4.53058	 92.97625	714.09003	 41.20	
 17.001	 52.301	 81.28866	 61.68610	  3.64389	 69.93261	 -3.28898	 -4.59466	 93.00618	714.22998	 41.20	
 17.006	 58.063	 81.17963	 57.31699	  6.88864	 73.03123	 -5.50840	 -4.65323	 92.96244	714.14001	 41.20	
 17.002	 63.866	 81.19673	 52.79717	 10.52061	 75.78424	 -7.38604	 -4.68708	 93.00777	714.15997	 41.20	
 17.001	 69.690	 81.11810	 48.05570	 14.30945	 77.97419	 -9.62203	 -4.74479	 92.96306	714.17999	 41.20	
 16.988	 75.483	 81.12141	 43.28714	 18.41577	 79.64845	-10.86402	 -4.74466	 92.95306	714.27002	 41.20	
 17.012	 81.253	 81.00977	 38.26106	 22.88082	 80.79511	-11.64767	 -4.68742	 92.94756	714.26001	 41.20	
 16.996	 87.091	 81.01683	 33.72283	 27.45160	 81.39098	-11.76474	 -4.75332	 92.94991	714.21002	 41.20	
 16.996	 92.909	 81.01518	 29.46179	 31.71680	 81.49055	-11.55693	 -4.86924	 92.98315	714.28998	 41.20	
 17.008	 98.662	 80.96119	 25.06531	 36.62544	 81.02439	-11.06204	 -4.81477	 92.96411	714.31000	 41.20	
 16.988	104.517	 80.95009	 20.51094	 41.62063	 79.98669	-10.35189	 -4.70515	 92.94307	714.28003	 41.20	
 17.001	110.310	 80.87098	 15.98153	 46.37764	 78.47420	 -9.46193	 -4.65858	 92.92348	714.26001	 41.20	
 17.002	116.134	 80.82060	 11.50458	 51.18449	 76.38432	 -8.18797	 -4.61939	 92.90473	714.21002	 41.30	
 17.006	121.937	 80.74786	  7.74883	 55.80369	 73.78508	 -6.55248	 -4.59908	 92.92302	714.29999	 41.30	
 17.001	127.699	 80.68159	  4.37876	 60.13983	 70.85125	 -4.82072	 -4.57568	 92.95227	714.32001	 41.30	
 17.007	133.546	 80.56715	  1.13712	 64.24906	 67.28788	 -2.44347	 -4.56116	 92.91167	714.28003	 41.30	
 17.014	139.343	 80.49654	 -1.54330	 68.09525	 63.50041	  1.04502	 -4.48600	 92.97948	714.23999	 41.30	
 16.988	145.161	 80.42854	 -3.77045	 71.44579	 59.17479	  4.37170	 -4.34817	 92.92196	714.26001	 41.30	
 16.995	150.919	 80.27763	 -5.83806	 74.34416	 54.84186	  7.61177	 -4.19581	 92.90318	714.20001	 41.30	
 16.990	156.759	 80.18667	 -7.63939	 76.87206	 50.04452	 11.46284	 -4.07119	 92.89206	714.19000	 41.30	
 17.000	162.596	 80.08898	 -8.96827	 78.81841	 45.19358	 15.61285	 -4.00429	 92.86110	714.26001	 41.40	
 17.009	168.383	 79.97709	-10.04635	 80.22910	 40.43734	 19.85426	 -3.90770	 92.86190	714.26001	 41.40	
 16.990	174.179	 79.97109	-10.51130	 81.16055	 35.41603	 24.47887	 -3.82177	 92.87695	714.29999	 41.40	
 18.709	174.675	 76.92178	-16.09606	 83.69763	 32.97593	 22.11894	 -3.83361	 92.84007	714.22998	 41.40	
 18.703	169.441	 77.02168	-15.51405	 82.89235	 37.82057	 17.59216	 -3.92966	 92.87835	714.19000	 41.40	
 18.691	164.085	 77.17040	-14.51126	 81.57217	 42.83635	 13.35581	 -4.12052	 92.90405	714.27002	 41.40	
 18.706	158.818	 77.23837	-13.41122	 79.78683	 47.66370	  9.18546	 -4.22177	 92.94002	714.27002	 41.40	
 18.695	153.537	 77.33818	-11.64855	 77.45126	 52.49737	  5.48978	 -4.36784	 92.90102	714.34998	 41.40	
 18.704	148.255	 77.40783	 -9.79265	 74.71806	 56.97564	  2.10062	 -4.58322	 92.85780	714.25000	 41.40	
 18.698	142.952	 77.43109	 -7.78619	 71.53380	 61.35135	 -1.20907	 -4.72587	 92.84633	714.31000	 41.40	
 18.699	137.625	 77.48029	 -5.30936	 67.98070	 65.51720	 -4.20584	 -4.74339	 92.76115	714.26001	 41.40	
 18.705	132.343	 77.62732	 -2.56509	 64.19212	 69.29092	 -6.78193	 -4.85730	 92.83609	714.26001	 41.40	
 18.713	127.067	 77.75246	  0.54371	 60.04290	 72.65633	 -9.35775	 -4.96376	 92.82098	714.34998	 41.40	
 18.700	121.794	 77.90170	  3.90479	 55.65619	 75.75697	-11.60735	 -4.98471	 92.89935	714.32001	 41.40	
 18.698	116.504	 77.93911	  7.52461	 51.06143	 78.30160	-13.44654	 -5.09226	 92.84390	714.27002	 41.40	
 18.707	111.165	 77.96684	 11.52920	 46.20901	 80.41388	-14.88433	 -5.22272	 92.82251	714.28998	 41.50	
 18.690	105.863	 77.99252	 15.84211	 41.40927	 81.97156	-15.49031	 -5.33749	 92.81622	714.34003	 41.50	
 18.696	100.583	 77.98728	 20.47972	 36.45033	 83.14843	-16.18026	 -5.39086	 92.81291	714.35999	 41.50	
 18.700	 95.309	 78.00134	 25.18859	 31.52988	 83.77013	-16.73068	 -5.52791	 92.81645	714.37000	 41.50	
 18.700	 90.000	 78.02944	 29.43983	 27.07429	 83.91056	-17.29007	 -5.52549	 92.80747	714.31000	 41.50	
 18.700	 84.691	 78.03344	 33.41978	 23.02709	 83.59711	-17.30483	 -5.28338	 92.78136	714.21002	 41.50	
 18.696	 79.417	 78.13858	 38.30860	 18.45238	 82.86143	-16.53793	 -5.32795	 92.84994	714.37000	 41.50	
 18.690	 74.137	 78.17852	 42.93132	 14.16730	 81.53687	-15.43020	 -5.38541	 92.83355	714.31000	 41.50	
 18.707	 68.835	 78.24222	 48.06434	 10.15462	 79.80589	-14.54765	 -5.42325	 92.88399	714.32001	 41.40	
 18.698	 63.496	 78.19291	 52.75496	  6.40145	 77.41538	-12.20066	 -5.40990	 92.77617	714.32001	 41.50	
 18.700	 58.206	 78.28581	 57.33603	  2.88825	 74.68001	-10.41764	 -5.33232	 92.81747	714.28998	 41.50	
 18.713	 52.933	 78.38999	 61.69777	 -0.28312	 71.55229	 -8.33506	 -5.23500	 92.82494	714.32001	 41.50	
 18.705	 47.657	 78.33439	 65.71273	 -3.21719	 68.08849	 -6.07709	 -5.15046	 92.83553	714.23999	 41.50	
 18.699	 42.375	 78.30798	 69.44224	 -5.98988	 64.21835	 -3.38302	 -5.03211	 92.86389	714.37000	 41.50	
 18.698	 37.048	 78.25899	 72.73473	 -8.32643	 59.87799	 -0.31984	 -4.91358	 92.80413	714.28003	 41.50	
 18.704	 31.745	 78.23446	 75.71140	-10.23409	 55.54444	  2.95156	 -4.75634	 92.76848	714.35999	 41.50	
 18.695	 26.463	 78.24506	 78.22477	-11.91970	 51.00115	  6.36926	 -4.60453	 92.81415	714.32001	 41.50	
 18.706	 21.182	 78.19469	 80.29362	-13.33772	 46.26048	 10.22318	 -4.42834	 92.77048	714.35999	 41.50	
 18.691	 15.915	 78.29879	 81.93200	-14.42093	 41.51997	 14.45244	 -4.27458	 92.83066	714.37000	 41.50	
 18.703	 10.559	 78.27821	 83.03710	-15.30897	 36.19994	 18.87052	 -4.16496	 92.82144	714.34998	 41.50	
 18.709	  5.325	 78.19335	 83.67284	-15.89354	 31.27556	 23.51239	 -4.02274	 92.81573	714.34998	 41.50	
 18.700	  0.000	 78.23151	 83.87296	-16.06375	 26.44257	 28.41975	 -3.86734	 92.80689	714.39001	 41.50	
 18.709	 -5.325	 78.28184	 83.59602	-15.68401	 21.87097	 33.13262	 -3.73898	 92.78689	714.31000	 41.50	
 18.703	-10.559	 78.29795	 82.83409	-15.24872	 17.69388	 37.70060	 -3.42571	 92.80659	714.31000	 41.50	
 18.691	-15.915	 78.20512	 81.42573	-14.35536	 13.17139	 42.80362	 -3.28394	 92.73682	714.42999	 41.50	
 18.706	-21.182	 78.27290	 79.73140	-13.13282	  8.99892	 47.71605	 -3.10476	 92.82018	714.37000	 41.50	
 18.695	-26.463	 78.13094	 77.48358	-11.58624	  5.04998	 52.50642	 -2.96018	 92.75265	714.32001	 41.50	
 18.704	-31.745	 78.05988	 74.86261	 -9.77632	  1.44636	 57.11460	 -2.90824	 92.76800	714.29999	 41.60	
 18.698	-37.048	 77.99459	 71.75818	 -7.58918	 -1.84287	 61.48254	 -2.84480	 92.75431	714.39001	 41.60	
 18.699	-42.375	 77.94077	 68.27546	 -5.00419	 -4.72111	 65.68690	 -2.74083	 92.79398	714.21997	 41.60	
 18.705	-47.657	 77.85381	 64.45502	 -2.12882	 -7.31505	 69.46265	 -2.75135	 92.79427	714.34003	 41.60	
 18.713	-52.933	 77.67864	 60.28121	  0.99647	 -9.53038	 72.71017	 -2.69206	 92.71442	714.31000	 41.60	
 18.700	-58.206	 77.65124	 55.75242	  4.47978	-11.30743	 75.67672	 -2.66477	 92.74345	714.35999	 41.60	
 18.698	-63.496	 77.58045	 51.25714	  8.13408	-12.95871	 78.17304	 -2.56901	 92.75262	714.37000	 41.70	
 18.707	-68.835	 77.41250	 46.38061	 12.17864	-14.39734	 80.18810	 -2.53182	 92.71157	714.25000	 41.70	
 18.690	-74.137	 77.30914	 41.50402	 16.39840	-15.37877	 81.67702	 -2.42381	 92.71636	714.27002	 41.70	
 18.696	-79.417	 77.17944	 36.20102	 20.67770	-16.16550	 82.78017	 -2.33684	 92.74211	714.34003	 41.70	
 18.700	-84.691	 76.98415	 31.38823	 25.22029	-16.52842	 83.28079	 -2.32411	 92.71785	714.35999	 41.70	
 18.700	-90.000	 76.84268	 27.06208	 29.79461	-16.40561	 83.30608	 -2.25444	 92.69199	714.27002	 41.70	
 18.700	-95.309	 76.82855	 23.27081	 33.91690	-16.39175	 82.98507	 -2.16319	 92.76340	714.31000	 41.70	
 18.696	-100.583	 76.69728	 18.80878	 39.09191	-15.81652	 81.98022	 -2.08995	 92.66877	714.48999	 41.70	
 18.690	-105.863	 76.72826	 14.56159	 43.99290	-14.80004	 80.67137	 -2.10672	 92.72878	714.26001	 41.70	
 18.707	-111.165	 76.66469	 10.36057	 48.79787	-13.53888	 78.87062	 -2.19542	 92.74780	714.31000	 41.70	
 18.698	-116.504	 76.60414	  6.49239	 53.56321	-11.89632	 76.43242	 -2.23465	 92.69249	714.16998	 41.70	
 18.700	-121.794	 76.58317	  3.01798	 58.00336	-10.11526	 73.67699	 -2.26360	 92.66966	714.23999	 41.70	
 18.713	-127.067	 76.57453	 -0.26172	 62.28727	 -8.10424	 70.58132	 -2.34175	 92.71502	714.29999	 41.70	
 18.705	-132.343	 76.54114	 -3.32353	 66.31628	 -6.01655	 66.91492	 -2.30869	 92.68758	714.27002	 41.70	
 18.699	-137.625	 76.58410	 -5.94889	 69.98665	 -3.52685	 62.98504	 -2.44720	 92.71108	714.25000	 41.70	
 18.698	-142.952	 76.56952	 -8.29354	 73.28452	 -0.46408	 58.67286	 -2.45343	 92.67949	714.27002	 41.70	
 18.704	-148.255	 76.59718	-10.47827	 76.19216	  2.85221	 54.27192	 -2.54365	 92.71825	714.26001	 41.70	
 18.695	-153.537	 76.63413	-12.23978	 78.54929	  6.52514	 49.62894	 -2.63272	 92.67846	714.25000	 41.70	
 18.706	-158.818	 76.67532	-13.95245	 80.63647	 10.38898	 44.85056	 -2.73438	 92.73006	714.28003	 41.70	
 18.691	-164.085	 76.69480	-15.17348	 82.13869	 14.51106	 40.07286	 -2.80434	 92.69616	714.28998	 41.70	
 18.703	-169.441	 76.69344	-15.96875	 83.25016	 19.22193	 35.04112	 -2.97375	 92.73615	714.28003	 41.70	
 18.709	-174.675	 76.65125	-16.28340	 83.79124	 23.46574	 30.84556	 -3.35493	 92.69236	714.21002	 41.70	
 18.700	180.000	 76.65394	-16.53822	 83.89311	 27.86249	 26.65775	 -3.56654	 92.66951	714.29999	 41.70	
 20.400	180.000	 73.46568	-21.80897	 86.09661	 25.18272	 24.01121	 -3.40542	 92.69202	714.29999	 41.70	
 20.401	-175.153	 73.40335	-21.75671	 86.00240	 21.04910	 27.70700	 -2.98291	 92.69452	714.35999	 41.70	
 20.407	-170.264	 73.38985	-21.38699	 85.51096	 16.61564	 32.05010	 -2.77481	 92.71479	714.27002	 41.70	
 20.410	-165.423	 73.38106	-20.75249	 84.56865	 12.30924	 36.88381	 -2.62680	 92.68609	714.39001	 41.80	
 20.392	-160.496	 73.37149	-19.57687	 83.16248	  8.17429	 41.86708	 -2.58553	 92.69251	714.25000	 41.80	
 20.401	-155.705	 73.36501	-18.28243	 81.46124	  4.41370	 46.69540	 -2.50850	 92.76505	714.32001	 41.80	
 20.405	-150.835	 73.28719	-16.68283	 79.23650	  0.87993	 51.49706	 -2.43932	 92.77541	714.34998	 41.80	
 20.397	-145.903	 73.29562	-14.70739	 76.55681	 -2.34470	 56.06200	 -2.33772	 92.75646	714.32001	 41.80	
 20.392	-141.062	 73.27607	-12.45786	 73.44385	 -5.32746	 60.45622	 -2.31005	 92.74756	714.34003	 41.80	
 20.396	-136.227	 73.21238	-10.08303	 70.02890	 -8.13884	 64.62204	 -2.25484	 92.74683	714.20001	 41.80	
 20.408	-131.372	 73.16656	 -7.47533	 66.30662	-10.76154	 68.39943	 -2.24270	 92.68539	714.31000	 41.80	
 20.410	-126.511	 73.28822	 -4.33141	 62.24597	-12.94342	 71.97742	 -2.21861	 92.74699	714.25000	 41.80	
 20.400	-121.604	 73.35545	 -0.95068	 57.83512	-14.95028	 75.32864	 -2.15667	 92.75600	714.21002	 41.80	
 20.403	-116.741	 73.30437	  2.39466	 53.31724	-16.77176	 78.07521	 -2.08808	 92.71568	714.34998	 41.80	
 20.413	-111.900	 73.39925	  5.94474	 48.65830	-18.42958	 80.47266	 -2.03333	 92.79708	714.22998	 41.80	
 20.398	-107.004	 73.24445	  9.86509	 43.69720	-19.77162	 82.34227	 -2.02188	 92.70744	714.28998	 41.80	
 20.394	-102.132	 73.35779	 13.99715	 38.85770	-20.80198	 83.83067	 -2.01635	 92.74712	714.37000	 41.80	
 20.403	-97.332	 73.39009	 18.22958	 33.98350	-21.50152	 84.89335	 -2.11528	 92.72498	714.40002	 41.80	
 20.392	-92.440	 73.51671	 22.76597	 29.12074	-21.94101	 85.51936	 -2.02441	 92.76727	714.29999	 41.80	
 20.392	-87.560	 73.60616	 26.94507	 24.86154	-21.92849	 85.61936	 -2.13730	 92.71526	714.28003	 41.80	
 20.403	-82.668	 73.70821	 31.23770	 21.00612	-21.95116	 85.42105	 -2.27246	 92.70846	714.33002	 41.80	
 20.394	-77.868	 73.88572	 35.84073	 16.63747	-21.35583	 84.71277	 -2.21940	 92.72874	714.37000	 41.80	
 20.398	-72.996	 74.04781	 40.80779	 12.38447	-20.54752	 83.59954	 -2.30113	 92.78630	714.32001	 41.80	
 20.413	-68.100	 74.13429	 46.07027	  8.28299	-19.50878	 82.02725	 -2.40831	 92.77573	714.38000	 41.90	
 20.403	-63.259	 74.35935	 50.84146	  4.20900	-18.03004	 80.00964	 -2.52407	 92.81404	714.40002	 41.90	
 20.400	-58.396	 74.49012	 55.27612	  0.62231	-16.44050	 77.44140	 -2.54496	 92.73243	714.33002	 41.90	
 20.410	-53.489	 74.53548	 59.87553	 -2.68152	-14.52629	 74.56834	 -2.56655	 92.73604	714.39001	 41.90	
 20.408	-48.628	 74.53350	 64.13208	 -5.89326	-12.44275	 71.15397	 -2.60725	 92.73130	714.27002	 41.90	
 20.396	-43.773	 74.68973	 67.98867	 -8.66842	-10.00675	 67.50608	 -2.70389	 92.75647	714.40997	 41.90	
 20.392	-38.938	 74.80424	 71.60384	-11.31935	 -7.24913	 63.53949	 -2.82429	 92.75880	714.41998	 41.90	
 20.397	-34.097	 74.94546	 74.95635	-13.69797	 -4.14959	 59.21282	 -2.76949	 92.74973	714.39001	 41.80	
 20.405	-29.165	 74.88038	 77.77747	-15.77861	 -0.83246	 54.70148	 -2.84990	 92.75159	714.31000	 41.80	
 20.401	-24.295	 74.92406	 80.21455	-17.47053	  2.85170	 49.93502	 -2.97657	 92.72962	714.40002	 41.80	
 20.392	-19.504	 75.03502	 82.21828	-18.81765	  6.81398	 45.05391	 -3.11835	 92.70165	714.32001	 41.80	
 20.410	-14.577	 75.04726	 83.82908	-19.88504	 10.89771	 39.76516	 -3.29829	 92.70278	714.37000	 41.90	
 20.407	 -9.736	 75.07906	 84.99966	-20.41497	 14.97174	 35.16321	 -3.72863	 92.72525	714.35999	 41.90	
 20.401	 -4.847	 75.06783	 85.77262	-21.24176	 19.30461	 30.47679	 -3.74057	 92.76249	714.28003	 41.90	
 20.400	  0.000	 75.04105	 86.03394	-21.48261	 23.30874	 26.35857	 -4.01724	 92.77518	714.34998	 41.90	
 20.401	  4.847	 74.99308	 85.82118	-21.20219	 28.45016	 21.43193	 -4.25154	 92.72205	714.33002	 41.90	
 20.407	  9.736	 75.04129	 85.28114	-20.73834	 33.46127	 16.69992	 -4.42822	 92.72924	714.42999	 41.90	
 20.410	 14.577	 74.96609	 84.33495	-19.95871	 38.32260	 12.33009	 -4.66322	 92.71169	714.32001	 41.90	
 20.392	 19.504	 74.98739	 82.76533	-18.90200	 43.43380	  8.04877	 -4.86624	 92.69903	714.28998	 41.90	
 20.401	 24.295	 74.86301	 80.88041	-17.82981	 48.06464	  4.28949	 -5.04617	 92.67205	714.35999	 41.90	
 20.405	 29.165	 75.01299	 78.63646	-16.29600	 52.72083	  0.95094	 -5.22939	 92.74870	714.28003	 41.90	
 20.397	 34.097	 75.01063	 75.78172	-14.38489	 57.35954	 -2.44651	 -5.36908	 92.66724	714.40002	 41.90	
 20.392	 38.938	 75.08021	 72.72234	-12.36523	 61.66725	 -5.49941	 -5.53249	 92.76735	714.42999	 41.90	
 20.396	 43.773	 75.07076	 69.35877	 -9.97523	 65.76437	 -8.26193	 -5.64007	 92.75228	714.47998	 41.90	
 20.408	 48.628	 75.08221	 65.60476	 -7.36396	 69.53242	-10.84132	 -5.73021	 92.78648	714.31000	 41.90	
 20.410	 53.489	 75.15681	 61.45393	 -4.42720	 73.02455	-13.19567	 -5.91570	 92.75777	714.44000	 41.90	
 20.400	 58.396	 75.09326	 57.07106	 -1.20371	 76.25617	-15.25739	 -6.02956	 92.77196	714.47998	 41.90	
 20.403	 63.259	 75.03645	 52.43237	  2.19726	 78.97811	-17.07438	 -6.11172	 92.73131	714.39001	 41.90	
 20.413	 68.100	 75.00723	 47.73725	  5.78969	 81.23727	-19.22368	 -6.05163	 92.71694	714.42999	 41.90	
 20.398	 72.996	 75.04976	 42.60853	  9.75343	 83.14474	-19.74125	 -6.00093	 92.75509	714.28998	 41.90	
 20.394	 77.868	 75.00948	 38.06770	 13.77112	 84.56966	-21.70007	 -5.95902	 92.76940	714.46002	 41.90	
 20.403	 82.668	 74.90848	 33.26490	 18.12699	 85.44824	-22.41390	 -5.90772	 92.70946	714.42999	 41.90	
 20.392	 87.560	 74.83588	 28.70114	 22.41545	 85.91190	-22.88531	 -6.01307	 92.70411	714.34003	 41.90	
 20.392	 92.440	 74.88967	 24.90682	 26.33642	 86.03789	-22.40602	 -6.22510	 92.76628	714.44000	 42.00	
 20.403	 97.332	 74.81146	 19.97797	 31.13650	 85.70437	-21.66499	 -6.06464	 92.73846	714.35999	 42.00	
 20.394	102.132	 74.84520	 15.46163	 36.00399	 84.92723	-20.95409	 -5.93905	 92.76665	714.34998	 42.00	
 20.398	107.004	 74.81510	 11.24444	 40.89229	 83.65763	-20.53465	 -5.88476	 92.72351	714.32001	 41.90	
 20.413	111.900	 74.79212	  7.17796	 45.79470	 81.99651	-19.73070	 -5.74569	 92.78787	714.45001	 41.90	
 20.403	116.741	 74.67628	  3.38210	 50.49459	 79.86802	-18.03897	 -5.53023	 92.75389	714.27002	 42.00	
 20.400	121.604	 74.47124	 -0.15512	 55.06416	 77.24760	-16.44974	 -5.38401	 92.69804	714.34998	 42.00	
 20.410	126.511	 74.49548	 -3.63785	 59.55229	 74.20768	-14.05756	 -5.20171	 92.71505	714.22998	 42.00	
 20.408	131.372	 74.41439	 -6.64182	 63.81303	 70.86801	-11.87450	 -5.08437	 92.74934	714.34003	 42.00	
 20.396	136.227	 74.30145	 -9.32289	 67.69575	 67.15659	 -9.38920	 -4.94949	 92.69834	714.29999	 42.00	
 20.392	141.062	 74.24633	-11.76031	 71.28899	 63.23152	 -6.71854	 -4.80469	 92.73458	714.32001	 42.00	
 20.397	145.903	 74.15949	-13.84468	 74.52828	 58.93580	 -3.67364	 -4.61643	 92.68240	714.39001	 42.00	
 20.405	150.835	 74.06874	-15.79983	 77.56886	 54.33363	 -0.34577	 -4.46826	 92.72688	714.39001	 42.00	
 20.401	155.705	 73.96587	-17.39464	 80.03999	 49.71905	  3.11531	 -4.21235	 92.71946	714.42999	 42.00	
 20.392	160.496	 73.90298	-18.79535	 82.12682	 45.00175	  6.84250	 -4.08118	 92.74066	714.46002	 42.00	
 20.410	165.423	 73.78304	-19.99917	 83.83723	 39.94365	 10.87851	 -3.92654	 92.74113	714.46997	 42.00	
 20.407	170.264	 73.63091	-21.06881	 85.05293	 35.11562	 14.88660	 -3.73584	 92.73254	714.39001	 42.00	
 20.401	175.153	 73.56593	-21.52486	 85.77564	 30.22365	 19.42524	 -3.59798	 92.69649	714.45001	 42.00	
  0.141	 45.000	 92.85005	 42.17552	 42.17677	 41.87042	 40.56365	  2.16458	 92.75517	714.34003	 42.00	
  4.001	128.691	 92.42843	 34.24989	 48.87259	 50.40823	 31.27021	  1.71142	 92.70764	714.37000	 42.00	
  4.002	 76.995	 92.53568	 43.98689	 38.98020	 52.62109	 29.09897	  1.97819	 92.71712	714.39001	 42.00	
  4.002	 25.892	 92.59822	 51.75186	 31.45821	 45.96315	 35.27145	  2.08791	 92.69601	714.40997	 42.00	
  4.002	-25.892	 92.60110	 51.55896	 31.49648	 35.99572	 45.10949	  1.85507	 92.65195	714.41998	 42.00	
  4.002	-76.995	 92.51744	 43.75517	 38.95465	 29.93585	 51.53363	  1.52934	 92.69252	714.37000	 42.00	
  4.001	-128.691	 92.35719	 34.11638	 48.94436	 32.42673	 48.91434	  1.36100	 92.69593	714.34003	 42.00	
  4.000	180.000	 92.28096	 29.54801	 53.35809	 40.96640	 39.91409	  1.42083	 92.67353	714.35999	 42.00	
  8.000	180.000	 90.34122	 17.38115	 63.42625	 39.30047	 37.74029	 -0.02922	 92.67731	714.34998	 42.00	
  7.991	-152.370	 90.33285	 19.64905	 60.88446	 28.80233	 48.43243	 -0.12561	 92.66951	714.34003	 42.00	
  7.997	-124.550	 90.34623	 26.08545	 53.42553	 21.22279	 57.21297	 -0.24941	 92.63357	714.37000	 42.00	
  8.006	-96.837	 90.53272	 35.93648	 42.87509	 17.44075	 61.83718	 -0.14704	 92.63721	714.46997	 42.00	
  7.988	-69.228	 90.76600	 47.22540	 32.15826	 18.43598	 60.71130	  0.10581	 92.67435	714.34998	 42.00	
  7.997	-41.563	 90.90340	 56.81561	 23.45710	 23.83393	 54.24485	  0.37762	 92.59887	714.51001	 42.00	
  8.008	-13.821	 91.01225	 62.43277	 18.59242	 33.25719	 44.07950	  0.82611	 92.64942	714.42999	 42.00	
  8.008	 13.821	 90.93111	 62.52386	 18.39118	 44.27843	 33.15596	  1.00560	 92.62337	714.39001	 42.10	
  7.997	 41.563	 90.94902	 57.20522	 23.01432	 54.50274	 23.61926	  0.98762	 92.69051	714.39001	 42.10	
  7.988	 69.228	 90.80608	 47.84975	 31.14741	 61.39694	 17.66851	  0.87297	 92.61007	714.40002	 42.00	
  8.006	 96.837	 90.66171	 36.89103	 41.87033	 62.99614	 16.35814	  0.70972	 92.60438	714.46002	 42.00	
  7.997	124.550	 90.50961	 26.49259	 52.50565	 58.88604	 19.78010	  0.46562	 92.59750	714.41998	 42.10	
  7.991	152.370	 90.42606	 20.06833	 60.47475	 50.17030	 27.25672	  0.27332	 92.67046	714.42999	 42.10	
 12.009	161.059	 86.76484	  6.47935	 70.03441	 47.55842	 23.72103	 -2.37541	 92.61822	714.39001	 42.10	
 12.013	142.081	 86.88899	 11.06442	 63.91634	 58.05489	 14.55929	 -2.30338	 92.60046	714.39001	 42.10	
 12.006	123.113	 87.16920	 18.84455	 54.83427	 66.21690	  8.07950	 -2.16296	 92.65731	714.42999	 42.10	
 12.007	104.200	 87.28345	 28.49802	 44.03879	 71.04385	  4.72793	 -2.07753	 92.59571	714.34998	 42.10	
 11.989	 85.301	 87.46012	 39.53824	 32.88653	 71.90746	  3.85029	 -1.47354	 92.62513	714.33002	 42.10	
 12.013	 66.294	 87.50565	 50.61279	 22.34581	 68.65883	  6.04948	 -1.31151	 92.65871	714.32001	 42.10	
 12.012	 47.388	 87.57021	 60.49855	 14.07651	 62.04098	 11.50821	 -1.68180	 92.62978	714.41998	 42.10	
 11.990	 28.440	 87.53777	 67.68839	  8.46869	 52.27214	 19.87728	 -0.81893	 92.62306	714.39001	 42.10	
 11.991	  9.464	 87.64150	 71.53625	  5.71593	 41.09880	 30.27880	 -0.81794	 92.63148	714.38000	 42.10	
 11.991	 -9.464	 87.72666	 71.46912	  5.97081	 29.86717	 41.67557	 -1.06880	 92.63450	714.44000	 42.20	
 11.990	-28.440	 87.65453	 67.28573	  8.86484	 19.74821	 52.61144	 -1.68924	 92.62493	714.38000	 42.20	
 12.012	-47.388	 87.42338	 59.83641	 14.99647	 11.56951	 62.08644	 -1.89623	 92.61252	714.35999	 42.20	
 12.013	-66.294	 87.25469	 49.34272	 23.74921	  6.35580	 68.47258	 -1.96376	 92.58525	714.35999	 42.20	
 11.989	-85.301	 87.06107	 38.57359	 34.40025	  4.66194	 71.19578	 -1.92455	 92.62677	714.45001	 42.20	
 12.007	-104.200	 86.82056	 27.29716	 45.30878	  5.64408	 69.79254	 -2.18733	 92.60635	714.38000	 42.20	
 12.006	-123.113	 86.56539	 17.89793	 56.28851	  9.02302	 64.49750	 -2.24616	 92.59135	714.40002	 42.20	
 12.013	-142.081	 86.50537	 10.69735	 65.05873	 15.94794	 55.91550	 -2.26703	 92.61029	714.40997	 42.20	
 12.009	-161.059	 86.55337	  6.39788	 70.55368	 25.41303	 45.54867	 -2.33840	 92.60511	714.33002	 42.20	
 16.000	180.000	 81.25694	 -7.60646	 79.66084	 31.70163	 30.13895	 -3.59011	 92.57983	714.40002	 42.20	
 15.990	-165.604	 81.19830	 -6.56210	 78.39254	 21.25843	 41.07497	 -3.11456	 92.57297	714.38000	 42.20	
 16.002	-151.165	 81.04239	 -3.40610	 74.18919	 11.00910	 51.91259	 -2.80160	 92.54614	714.32001	 42.20	
 16.002	-136.836	 81.02702	  1.75352	 67.23277	  3.16438	 62.03331	 -2.62645	 92.59151	714.38000	 42.20	
 15.995	-122.439	 81.08047	  8.93280	 57.99608	 -2.81514	 70.23705	 -2.50509	 92.54182	714.33002	 42.20	
 15.993	-107.966	 81.21169	 17.98907	 47.13530	 -6.39843	 75.97269	 -2.43315	 92.54813	714.39001	 42.20	
 16.005	-93.629	 81.37112	 28.00383	 35.81165	 -7.98482	 78.72018	 -2.46795	 92.52490	714.38000	 42.20	
 15.992	-79.234	 81.65547	 38.96271	 25.27800	 -7.87623	 78.34577	 -2.56568	 92.57693	714.41998	 42.20	
 16.009	-64.774	 81.90159	 50.37809	 15.23382	 -6.15168	 74.91673	 -2.72945	 92.56311	714.44000	 42.20	
 15.997	-50.364	 82.09995	 61.07791	  6.30901	 -1.35103	 68.40425	 -2.88488	 92.52319	714.44000	 42.20	
 15.997	-36.045	 82.32067	 69.56622	 -0.34475	  5.37916	 59.47565	 -2.97922	 92.54214	714.39001	 42.20	
 16.000	-21.597	 82.51761	 75.76716	 -4.67333	 14.60984	 48.76550	 -2.97173	 92.55859	714.34003	 42.20	
 16.003	 -7.169	 82.57166	 78.97373	 -6.92042	 25.33625	 37.39540	 -3.17524	 92.55965	714.46997	 42.20	
 16.003	  7.169	 82.48508	 79.09411	 -7.21867	 36.11991	 26.10766	 -3.41810	 92.58282	714.47998	 42.20	
 16.000	 21.597	 82.37627	 76.25632	 -5.12849	 47.66149	 15.43988	 -3.47134	 92.52617	714.42999	 42.20	
 15.997	 36.045	 82.38167	 70.38573	 -1.01179	 58.38067	  6.56405	 -3.65771	 92.56592	714.45001	 42.20	
 15.997	 50.364	 82.46989	 62.20938	  4.99318	 67.58054	 -0.31335	 -4.00780	 92.57641	714.35999	 42.20	
 16.009	 64.774	 82.36386	 51.91712	 13.04330	 74.48144	 -5.57863	 -4.16555	 92.57755	714.34003	 42.20	
 15.992	 79.234	 82.28708	 40.38846	 22.85266	 78.49648	 -8.37789	 -4.12197	 92.57465	714.46002	 42.20	
 16.005	 93.629	 82.16232	 29.79097	 33.44473	 79.47462	 -8.26885	 -4.28014	 92.52457	714.50000	 42.20	
 15.993	107.966	 82.12438	 19.62809	 44.77711	 77.33870	 -6.90324	 -4.16231	 92.56821	714.41998	 42.20	
 15.995	122.439	 81.98510	  9.71568	 55.79646	 72.09186	 -4.00420	 -4.12442	 92.57211	714.39001	 42.30	
 16.002	136.836	 81.78584	  2.33829	 65.44096	 64.20181	  2.38352	 -4.11762	 92.55173	714.40002	 42.30	
 16.002	151.165	 81.55878	 -3.09435	 72.99645	 54.34433	  9.93120	 -3.90881	 92.56827	714.34998	 42.20	
 15.990	165.604	 81.36272	 -6.44507	 77.78935	 43.12549	 19.52518	 -3.70285	 92.52426	714.41998	 42.20	
 20.003	168.362	 74.38100	-19.35611	 83.99265	 37.33400	 14.05427	 -3.86039	 92.56576	714.38000	 42.20	
 20.008	156.764	 74.57539	-16.56165	 79.99525	 48.79426	  4.72710	 -4.22021	 92.53898	714.51001	 42.30	
 20.000	145.147	 74.87618	-12.42090	 73.68484	 59.54753	 -3.25185	 -4.62117	 92.62159	714.57001	 42.30	
 19.995	133.545	 75.05463	 -6.76579	 65.37265	 68.91734	 -9.68661	 -5.02127	 92.59134	714.46997	 42.30	
 20.009	121.926	 75.15958	  0.52855	 55.30776	 76.53786	-14.91044	 -5.33165	 92.50027	714.53998	 42.30	
 20.005	110.327	 75.37139	  9.30884	 44.43608	 81.94383	-19.07856	 -5.68388	 92.56413	714.65002	 42.30	
 19.989	 98.733	 75.37677	 19.34227	 32.97075	 84.81269	-20.26370	 -5.90491	 92.52454	714.56000	 42.20	
 19.999	 87.075	 75.43520	 29.66387	 22.67677	 85.24496	-21.31662	 -5.90070	 92.57953	714.51001	 42.30	
 19.992	 75.457	 75.61327	 40.58633	 12.61470	 83.23700	-19.73583	 -5.90251	 92.54697	714.53003	 42.30	
 20.009	 63.844	 75.60745	 51.87683	  3.56086	 78.73869	-16.04965	 -5.98494	 92.54821	714.45001	 42.30	
 19.989	 52.269	 75.77947	 62.31833	 -4.03869	 71.78699	-11.48428	 -5.79330	 92.57296	714.46997	 42.30	
 19.999	 40.602	 75.63768	 71.11828	-10.37804	 62.91796	 -5.58066	 -5.47244	 92.53166	714.47998	 42.30	
 20.004	 29.051	 75.64330	 78.11880	-15.05543	 52.70675	  2.01249	 -5.11241	 92.56011	714.56000	 42.30	
 20.005	 17.433	 75.59947	 82.90131	-18.21229	 41.62347	 10.63373	 -4.66978	 92.53601	714.53003	 42.30	
 20.006	  5.780	 75.58326	 85.06309	-19.92230	 29.94335	 21.07365	 -4.22732	 92.51773	714.46002	 42.40	
 20.006	 -5.780	 75.67126	 84.95889	-19.94682	 19.42059	 31.71396	 -3.65416	 92.53800	714.46002	 42.40	
 20.005	-17.433	 75.59605	 82.32323	-18.17931	  9.32578	 43.09462	 -3.21649	 92.49645	714.44000	 42.40	
 20.004	-29.051	 75.55363	 77.34481	-14.61291	  0.32285	 54.52445	 -2.89391	 92.58481	714.50000	 42.40	
 19.999	-40.602	 75.38857	 70.03523	 -9.34678	 -7.06054	 64.65467	 -2.70848	 92.56466	714.46002	 42.40	
 19.989	-52.269	 75.24078	 60.84948	 -2.49962	-12.69784	 73.22124	 -2.60322	 92.50739	714.40002	 42.40	
 20.009	-63.844	 74.92717	 50.23893	  5.46535	-16.90934	 79.57177	 -2.48178	 92.48139	714.31000	 42.40	
 19.992	-75.457	 74.68415	 38.81063	 14.95639	-19.48570	 83.46760	 -2.29736	 92.51048	714.32001	 42.40	
 19.999	-87.075	 74.25549	 27.33375	 25.48019	-20.63634	 84.90087	 -2.25835	 92.47752	714.38000	 42.40	
 19.989	-98.733	 74.05510	 17.94411	 35.77792	-20.14340	 83.83298	 -1.99063	 92.42610	714.46997	 42.40	
 20.005	-110.327	 73.93687	  8.11554	 47.16852	-17.64809	 80.38572	 -2.07415	 92.42538	714.42999	 42.40	
 20.009	-121.926	 73.91120	 -0.26339	 57.96918	-13.70755	 74.55723	 -2.18787	 92.44502	714.51001	 42.40	
 19.995	-133.545	 73.88709	 -7.49686	 67.62544	 -8.54290	 66.42778	 -2.22930	 92.48112	714.57001	 42.40	
 20.000	-145.147	 73.83332	-13.09085	 75.48122	 -2.04039	 56.58501	 -2.39396	 92.41862	714.46997	 42.40	
 20.008	-156.764	 73.90607	-17.30283	 81.14909	  5.97002	 45.69999	 -2.54705	 92.40793	714.47998	 42.40	
 20.003	-168.362	 73.94208	-19.92473	 84.40648	 15.59846	 34.29311	 -2.76205	 92.38528	714.57001	 42.40	
 20.000	180.000	 74.02621	-20.52879	 85.33645	 25.78489	 24.47455	 -3.48419	 92.40865	714.62000	 42.40	
