FileType=PCF
NHL=14
Date=03/14/19	14:14:31
Facility=APL
Serial=16071-9
Customer=NASA
NP=6
Mach=0.450000
Calibration=1:1
CalPts=490
TstPts=95
PortNumbering=AP Standard
Units=Torr C m/s kg/m^3 deg mm 
Theta[deg]	Phi[deg]	P1[Torr]	P2[Torr]	P3[Torr]	P4[Torr]	P5[Torr]	P6[Torr]	Pt[Torr]	Ps[Abs,Torr]	Ts[C]	
0.000000	0.000000	92.075170	39.159730	40.598890	40.324710	38.601400	0.688290	91.953200	708.020020	37.900000	
1.691000	128.401000	92.065290	36.104370	43.453980	44.080680	34.598240	0.561340	91.987340	708.070010	37.900000	
1.692000	77.194000	92.121350	40.248020	39.365090	44.992550	33.815580	0.741010	92.030390	708.030030	38.000000	
1.699000	26.182000	92.086200	43.553770	36.284070	42.391860	36.391880	0.810130	91.978970	707.969970	38.000000	
1.699000	-26.182000	92.131470	43.547130	36.391110	38.115220	40.772540	0.748310	91.998530	708.090030	38.100000	
1.692000	-77.194000	92.131200	40.154130	39.502850	35.555850	43.351590	0.584660	92.018140	707.950010	38.100000	
1.691000	-128.401000	92.143020	36.015010	43.672900	36.450520	42.338100	0.461260	92.046580	708.060000	38.200000	
1.700000	180.000000	92.161970	34.208390	45.532290	40.357410	38.375400	0.448110	92.073570	708.020020	38.200000	
3.400000	180.000000	91.960210	28.785960	50.259740	39.978730	37.927390	0.039040	92.056270	708.000000	38.200000	
3.388000	-152.325000	92.001580	29.822780	49.191510	35.486830	42.578800	0.000080	92.072790	708.030030	38.300000	
3.397000	-124.529000	92.052010	33.152580	46.010170	31.931540	46.262050	0.072890	92.061460	708.039980	38.300000	
3.399000	-96.763000	92.102500	37.506290	41.521520	30.238280	48.153660	0.179660	92.093890	708.030030	38.300000	
3.394000	-69.283000	92.108600	42.189450	37.091320	30.889390	47.634200	0.331300	92.089130	708.090030	38.400000	
3.400000	-41.398000	92.125800	46.278530	33.175480	33.468560	45.002010	0.507920	92.106520	707.989990	38.400000	
3.401000	-14.021000	92.134190	48.633560	31.059550	37.540950	40.892970	0.657620	92.133350	707.969970	38.500000	
3.401000	14.021000	92.092600	48.650650	30.958750	42.252110	36.068230	0.728740	92.119540	708.049990	38.500000	
3.400000	41.398000	92.024860	46.394550	32.965560	46.448470	31.725830	0.672170	92.067310	708.090030	38.500000	
3.394000	69.283000	91.932970	42.378480	36.699500	49.227550	29.021040	0.570650	92.007800	707.960020	38.600000	
3.399000	96.763000	91.990810	37.778980	41.169000	49.786270	28.494670	0.411440	92.094440	707.969970	38.600000	
3.397000	124.529000	91.977970	33.331610	45.701440	48.045990	30.019430	0.289340	92.081180	708.080020	38.700000	
3.388000	152.325000	91.988620	29.973510	48.968280	44.403330	33.331950	0.113610	92.090410	708.080020	38.700000	
5.099000	161.165000	91.449260	24.366560	53.902490	44.095250	32.405830	-0.502450	92.073440	708.010010	38.700000	
5.109000	142.013000	91.483770	26.645430	51.387470	48.670270	28.293270	-0.336950	92.140700	707.400020	38.700000	
5.095000	123.033000	91.486910	30.185040	47.598130	52.066730	25.353090	-0.138410	92.123730	708.099980	38.800000	
5.105000	104.191000	91.452960	34.808650	43.010330	54.075260	23.689760	-0.051540	92.074210	708.049990	38.800000	
5.093000	85.207000	91.526920	39.684520	38.260490	54.488020	23.495660	0.067980	92.136740	708.020020	38.900000	
5.104000	66.290000	91.534970	44.455970	33.668050	53.192420	24.668080	0.206670	92.122860	708.020020	38.900000	
5.094000	47.331000	91.578040	48.695790	29.726020	50.292480	27.286910	0.323680	92.116740	708.159970	38.900000	
5.089000	28.397000	91.624040	51.824170	26.799160	46.315270	30.968490	0.451780	92.126110	708.109990	38.900000	
5.096000	9.576000	91.677890	53.692080	25.363390	41.692910	35.578990	0.398790	92.134570	708.130000	38.900000	
5.096000	-9.576000	91.772850	53.666830	25.470830	36.856890	40.594600	0.335130	92.200710	708.080020	39.000000	
5.089000	-28.397000	91.755040	51.663040	27.049570	32.339750	45.271060	0.178570	92.152890	708.080020	39.000000	
5.094000	-47.331000	91.790490	48.372490	30.076360	28.394250	49.148230	0.013650	92.165400	708.120000	39.000000	
5.104000	-66.290000	91.783690	44.054750	34.213340	25.934550	51.835510	-0.176260	92.138480	708.140010	39.100000	
5.093000	-85.207000	91.773570	39.257920	38.723100	24.894110	52.901970	-0.340720	92.142490	708.190000	39.100000	
5.105000	-104.191000	91.786060	34.429460	43.568400	25.301860	52.385280	-0.434550	92.174180	708.159970	39.100000	
5.095000	-123.033000	91.720590	29.777590	48.120180	27.194420	50.075370	-0.532740	92.133310	707.900020	39.100000	
5.109000	-142.013000	91.723120	26.356870	51.901700	30.363000	46.557510	-0.557350	92.209010	708.130000	39.200000	
5.099000	-161.165000	91.657840	24.216870	54.290970	34.727800	42.168900	-0.565640	92.183670	708.179990	39.200000	
5.100000	180.000000	91.607930	23.494520	54.984930	39.479010	37.220810	-0.566130	92.201100	708.179990	39.200000	
6.800000	180.000000	90.757450	18.222340	59.417170	38.679920	36.205200	-1.266650	92.180500	708.000000	39.200000	
6.796000	-166.229000	90.843870	18.689370	58.962940	33.997760	41.132580	-1.279600	92.195400	708.039980	39.200000	
6.808000	-152.311000	90.930950	20.254050	57.232140	29.438850	45.742150	-1.248820	92.201360	707.989990	39.300000	
6.795000	-138.383000	90.953370	22.741500	54.343050	25.788370	49.779990	-1.227450	92.164880	708.049990	39.300000	
6.792000	-124.591000	91.043210	26.086380	50.641620	22.995530	53.250870	-1.270250	92.177600	708.150020	39.300000	
6.787000	-110.754000	91.096380	30.047460	46.314610	20.901820	56.112440	-1.207850	92.212520	708.090030	39.400000	
6.800000	-96.985000	91.103520	34.824730	41.569820	19.687250	57.602580	-1.139910	92.197750	708.150020	39.400000	
6.800000	-83.015000	91.092640	39.555390	36.984760	19.602600	57.760600	-1.075290	92.172490	708.210020	39.400000	
6.787000	-69.246000	91.112630	44.267910	32.496270	20.612960	56.651260	-0.926540	92.189420	708.120000	39.400000	
6.792000	-55.409000	91.129050	48.735620	28.064020	22.633790	54.113350	-0.775860	92.212100	708.219970	39.400000	
6.795000	-41.617000	91.125700	52.708190	24.756520	25.597310	50.819890	-0.602410	92.232670	708.169980	39.500000	
6.808000	-27.689000	91.074100	55.890410	22.206620	29.361580	46.743820	-0.390580	92.185490	708.210020	39.500000	
6.796000	-13.771000	91.047440	57.799800	20.610550	33.967880	42.127420	-0.235410	92.179340	708.200010	39.500000	
6.800000	0.000000	91.012820	58.503030	19.924680	38.613010	37.228240	-0.191580	92.189020	708.159970	39.500000	
6.796000	13.771000	90.939030	57.973200	20.321660	43.305120	32.416560	-0.157640	92.187420	708.190000	39.600000	
6.808000	27.689000	90.861230	56.149120	21.800580	47.969690	28.094740	-0.095570	92.180630	708.130000	39.600000	
6.795000	41.617000	90.813050	52.985480	24.269250	51.971020	24.383740	-0.202980	92.172170	708.179990	39.600000	
6.792000	55.409000	90.804800	49.250250	27.653800	55.502620	21.438340	-0.385870	92.250140	708.090030	39.600000	
6.787000	69.246000	90.801870	44.901040	31.830870	57.838490	19.561430	-0.407200	92.256760	708.210020	39.700000	
6.800000	83.015000	90.718820	40.206710	36.204340	59.042860	18.466490	-0.548050	92.201680	708.239990	39.700000	
6.800000	96.985000	90.748670	35.331890	40.916210	59.011310	18.412960	-0.686610	92.239100	708.260010	39.700000	
6.787000	110.754000	90.717730	30.571260	45.593890	57.785520	19.320770	-0.695100	92.216350	708.190000	39.700000	
6.792000	124.591000	90.694180	26.425020	49.984080	55.458890	21.104000	-0.731190	92.212970	708.109990	39.700000	
6.795000	138.383000	90.691470	23.062600	53.760900	52.074420	23.805290	-0.913540	92.210660	708.109990	39.700000	
6.808000	152.311000	90.697680	20.500310	56.784410	47.986260	27.358030	-1.132140	92.203850	708.120000	39.700000	
6.796000	166.229000	90.742860	18.912130	58.692850	43.317480	31.640840	-1.193770	92.217150	708.130000	39.800000	
8.491000	168.704000	89.577320	13.864760	62.930130	42.457530	30.331480	-1.989550	92.202900	708.140010	39.800000	
8.502000	157.493000	89.533950	15.153450	61.363900	47.280320	25.947350	-1.933330	92.254360	708.130000	39.800000	
8.494000	146.194000	89.512150	17.268650	58.780920	51.749270	22.200750	-1.551500	92.237190	708.109990	39.800000	
8.495000	135.039000	89.595180	19.997150	55.382340	55.749000	19.095120	-1.566610	92.284130	708.090030	39.900000	
8.487000	123.723000	89.494450	23.357890	51.294020	58.983280	16.448410	-1.459970	92.213500	708.030030	39.900000	
8.492000	112.575000	89.465740	27.334240	46.914350	61.360290	14.525510	-1.432310	92.210530	708.169980	39.900000	
8.510000	101.220000	89.470950	31.912450	42.040870	62.890880	13.336460	-1.465170	92.193040	708.090030	39.900000	
8.500000	90.000000	89.512750	36.822210	37.362840	63.413940	13.033160	-1.406430	92.219250	708.109990	39.900000	
8.510000	78.780000	89.571500	41.711540	32.737310	62.953150	13.383230	-1.297700	92.272610	708.090030	39.900000	
8.492000	67.425000	89.577000	46.502780	28.059900	61.365820	14.681190	-1.217770	92.246880	707.510010	40.000000	
8.487000	56.277000	89.590720	50.895710	24.055520	58.975180	16.791530	-1.177940	92.246900	708.039980	40.000000	
8.495000	44.961000	89.722460	55.055820	20.787800	55.666260	19.605760	-0.975590	92.304280	708.070010	40.000000	
8.494000	33.806000	89.749260	58.418010	18.082550	51.675400	22.828250	-0.834350	92.266560	708.090030	40.000000	
8.502000	22.507000	89.846890	60.872380	16.114010	47.292430	26.924700	-0.785700	92.295570	708.200010	40.000000	
8.491000	11.296000	89.905460	62.225830	15.012810	42.458680	31.488720	-0.828930	92.261340	707.419980	40.100000	
8.500000	0.000000	89.945460	62.674290	14.641690	37.638570	36.374550	-0.881550	92.250370	708.200010	40.100000	
8.491000	-11.296000	90.040530	62.040070	15.224810	32.912310	41.414010	-0.916190	92.254830	707.299990	40.100000	
8.502000	-22.507000	90.093530	60.532610	16.558550	28.116770	46.147530	-1.077330	92.272950	708.070010	40.100000	
8.494000	-33.806000	90.151180	58.015760	18.677200	24.152830	50.529830	-1.314800	92.281270	707.190000	40.100000	
8.495000	-44.961000	90.145800	54.525770	21.393610	20.722590	54.400040	-1.466250	92.258800	707.330020	40.100000	
8.487000	-56.277000	90.177860	50.242970	24.922060	17.913180	58.002580	-1.596340	92.286520	707.260010	40.100000	
8.492000	-67.425000	90.133710	45.770590	28.867120	15.552120	60.343030	-1.777280	92.270980	707.270020	40.200000	
8.510000	-78.780000	90.115760	40.952640	33.770330	14.107780	61.778130	-1.950870	92.265690	707.340030	40.200000	
8.500000	-90.000000	90.105280	36.107940	38.438050	13.802010	62.053500	-1.962200	92.277410	707.330020	40.200000	
8.510000	-101.220000	90.024750	31.137800	43.122540	14.272590	61.427780	-1.996250	92.237590	707.609990	40.200000	
8.492000	-112.575000	90.069270	26.716200	47.931490	15.739310	59.769390	-2.038370	92.271220	707.370000	40.200000	
8.487000	-123.723000	89.976770	22.688670	52.240920	17.995370	57.116330	-1.976360	92.210480	707.429990	40.200000	
8.495000	-135.039000	89.936990	19.235820	56.226960	20.825870	53.313750	-2.015010	92.230340	707.349980	40.200000	
8.494000	-146.194000	89.882740	16.596810	59.443730	24.222460	49.252750	-1.987230	92.244000	707.479980	40.200000	
8.502000	-157.493000	89.756810	14.650460	61.822610	28.228700	44.836690	-2.032110	92.197980	707.510010	40.300000	
8.491000	-168.704000	89.698990	13.447650	63.254100	33.030730	39.912640	-2.118280	92.211940	707.440000	40.300000	
8.500000	180.000000	89.609140	13.150620	63.649300	37.816390	34.920430	-2.045520	92.195850	707.359990	40.300000	
10.200000	180.000000	88.135730	7.746580	67.490420	36.580650	33.467240	-2.846070	92.207150	707.390010	40.300000	
10.191000	-170.497000	88.229480	7.799920	67.208240	31.649650	38.692870	-2.888130	92.220690	707.609990	40.300000	
10.210000	-161.034000	88.287690	8.826400	66.052640	26.898710	43.515950	-2.834890	92.208220	707.520020	40.400000	
10.194000	-151.526000	88.383960	10.698610	63.976640	22.712340	48.140040	-2.778500	92.178640	707.750000	40.400000	
10.190000	-142.105000	88.443170	13.112320	61.208670	19.094290	52.569000	-2.796270	92.182910	707.419980	40.400000	
10.215000	-132.646000	88.533070	16.105310	57.739490	15.413300	56.918740	-2.845530	92.251620	707.450010	40.400000	
10.203000	-123.092000	88.569930	19.406790	53.515960	12.485090	60.425380	-2.874730	92.199850	707.500000	40.400000	
10.192000	-113.678000	88.595830	23.265980	49.125000	10.580340	62.917210	-2.841860	92.187830	707.429990	40.400000	
10.208000	-104.249000	88.559230	27.517780	44.446780	9.185670	64.699170	-2.833430	92.138170	707.370000	40.400000	
10.210000	-94.801000	88.611350	32.279980	39.676760	8.521240	65.793360	-2.777650	92.173570	707.330020	40.400000	
10.210000	-85.199000	88.669240	37.269310	34.906390	8.470520	65.990130	-2.802960	92.196590	707.380000	40.500000	
10.208000	-75.751000	88.679240	42.185310	29.898380	9.179610	65.212770	-2.728360	92.178440	707.760010	40.500000	
10.192000	-66.322000	88.705570	46.924620	25.457140	10.440590	63.642590	-2.633570	92.197260	707.340030	40.500000	
10.203000	-56.908000	88.696600	51.482350	21.474390	12.491310	61.406790	-2.503080	92.184520	707.200010	40.500000	
10.215000	-47.354000	88.692150	55.888200	17.939400	15.699280	58.227080	-2.424970	92.192350	707.250000	40.500000	
10.190000	-37.895000	88.673630	59.609070	14.957090	18.967200	53.953030	-2.312810	92.174620	707.320010	40.600000	
10.194000	-28.474000	88.682750	62.473100	12.633600	22.581530	49.724690	-2.042500	92.202160	707.340030	40.600000	
10.210000	-18.966000	88.595710	64.703000	10.815470	26.736240	45.115870	-1.831100	92.171070	707.200010	40.600000	
10.191000	-9.503000	88.564750	66.115820	9.701600	31.823730	40.144990	-1.764170	92.180970	707.229980	40.600000	
10.200000	0.000000	88.520610	66.640400	9.314000	36.559160	35.052360	-1.642870	92.194650	707.250000	40.600000	
10.191000	9.503000	88.441390	66.291790	9.520050	41.334220	30.217520	-1.633790	92.215470	707.229980	40.600000	
10.210000	18.966000	88.308200	65.033030	10.266430	46.255130	25.569070	-1.649150	92.205250	707.190000	40.600000	
10.194000	28.474000	88.262660	62.905060	11.815970	50.847350	21.498440	-1.664660	92.223450	707.260010	40.600000	
10.190000	37.895000	88.191770	60.148820	13.966640	55.007290	17.866910	-1.757700	92.208180	707.270020	40.600000	
10.215000	47.354000	88.101480	56.504340	16.943580	58.997100	14.477450	-2.034270	92.213250	707.250000	40.600000	
10.203000	56.908000	88.021920	52.182070	20.494870	62.203880	11.853520	-2.112430	92.201850	707.390010	40.600000	
10.192000	66.322000	87.999870	47.721610	24.344270	64.759900	9.659420	-2.195350	92.225290	707.390010	40.600000	
10.208000	75.751000	87.974430	42.976680	28.690160	66.538350	8.318790	-2.252340	92.210690	707.289980	40.600000	
10.210000	85.199000	87.950040	38.080200	33.529190	67.372090	7.761390	-2.303450	92.210460	707.280030	40.600000	
10.210000	94.801000	87.949190	33.042160	38.346840	67.449910	7.706330	-2.409000	92.228590	707.169980	40.600000	
10.208000	104.249000	87.893620	28.318720	43.150540	66.644330	8.280510	-2.369500	92.199170	707.210020	40.600000	
10.192000	113.678000	87.905770	23.986360	47.938300	64.921360	9.574600	-2.331510	92.207050	707.250000	40.600000	
10.203000	123.092000	87.870350	20.314970	52.391570	62.371110	11.437210	-2.363760	92.179500	707.320010	40.600000	
10.215000	132.646000	87.865430	16.771850	56.591000	59.143890	13.884660	-2.510610	92.135130	707.310000	40.700000	
10.190000	142.105000	87.891720	13.743340	60.253110	55.151780	17.016460	-2.602460	92.176000	707.340030	40.700000	
10.194000	151.526000	87.889400	11.245390	63.250410	50.918940	20.548190	-2.733420	92.186160	707.299990	40.700000	
10.210000	161.034000	87.961380	9.367320	65.507470	46.251160	24.528460	-2.817230	92.214970	707.330020	40.700000	
10.191000	170.497000	88.037220	8.338090	66.856860	41.298610	28.937080	-2.858940	92.158050	707.289980	40.700000	
11.899000	171.783000	86.311260	2.773520	70.556080	39.999860	27.451140	-3.690260	92.208330	707.169980	40.700000	
11.890000	163.610000	86.181110	3.507490	69.267330	44.916410	23.099470	-3.624700	92.183190	707.260010	40.700000	
11.889000	155.445000	86.106930	4.957090	67.290030	49.712270	18.951480	-3.646340	92.185350	707.289980	40.700000	
11.909000	147.299000	86.026190	7.060990	64.723270	54.035760	15.171970	-3.544840	92.152630	707.229980	40.700000	
11.902000	139.148000	86.003780	9.882780	61.480640	58.352940	11.748620	-3.623490	92.147540	707.280030	40.800000	
11.894000	130.867000	86.032620	13.258070	57.645500	62.209610	8.803260	-3.345320	92.188380	707.289980	40.800000	
11.897000	122.732000	86.036030	16.861620	53.409500	65.315830	6.445560	-3.370590	92.194290	707.219970	40.800000	
11.903000	114.597000	85.993210	20.779420	48.889590	67.803090	4.560080	-3.408010	92.175440	707.370000	40.800000	
11.893000	106.346000	86.061060	24.721240	44.113080	69.566050	3.385380	-3.322560	92.168790	707.289980	40.800000	
11.892000	98.155000	86.100820	29.310150	39.284980	70.688550	2.669240	-3.540340	92.186780	707.349980	40.800000	
11.900000	90.000000	86.157550	34.067590	34.565720	71.103610	2.370620	-3.315340	92.225140	707.390010	40.900000	
11.892000	81.845000	86.141610	38.991360	29.687180	70.645330	2.616080	-3.340240	92.193950	707.330020	40.900000	
11.893000	73.654000	86.188860	44.026550	24.966160	69.461190	3.529570	-3.229660	92.227430	707.380000	40.900000	
11.903000	65.403000	86.134320	48.770340	20.697940	67.579150	5.010490	-3.222490	92.170200	707.469970	40.900000	
11.897000	57.268000	86.190960	53.294410	16.906150	65.081560	6.971050	-3.344630	92.185970	707.349980	40.900000	
11.894000	49.133000	86.260530	57.652340	13.095310	61.912900	9.486790	-3.306700	92.188500	707.299990	40.900000	
11.902000	40.852000	86.350840	61.542680	10.021940	58.101210	12.647840	-3.033010	92.186900	707.330020	41.000000	
11.909000	32.701000	86.416480	64.607140	7.680660	53.790980	16.242690	-2.786840	92.159110	707.380000	41.000000	
11.889000	24.555000	86.513520	67.081280	5.764470	49.490730	20.093930	-2.654930	92.201130	707.330020	41.000000	
11.890000	16.390000	86.603680	68.701350	4.744560	44.691060	24.458610	-2.699280	92.167430	707.299990	41.000000	
11.899000	8.217000	86.687290	69.840390	4.178280	39.803330	28.978700	-2.471500	92.160340	707.330020	41.000000	
11.900000	0.000000	86.753640	70.197840	3.976110	34.947430	33.697620	-2.494480	92.141570	707.330020	41.000000	
11.899000	-8.217000	86.814290	69.723640	4.174590	30.095340	39.207210	-2.868520	92.145830	707.299990	41.000000	
11.890000	-16.390000	86.918370	68.446630	5.089270	25.352650	43.863330	-2.722080	92.196420	707.280030	41.000000	
11.889000	-24.555000	86.953140	66.686340	6.332280	21.451570	48.482590	-3.059930	92.142360	707.330020	41.000000	
11.909000	-32.701000	86.992610	64.084470	8.243300	17.474440	53.067650	-3.174950	92.193500	707.320010	41.100000	
11.902000	-40.852000	86.936740	60.868130	10.947490	13.684580	57.487060	-3.271900	92.172330	707.429990	41.000000	
11.894000	-49.133000	86.987720	56.929360	14.358540	10.014050	61.412060	-3.357600	92.176450	707.349980	41.000000	
11.897000	-57.268000	87.027120	52.532860	18.051560	7.286990	64.383580	-3.418800	92.202830	707.280030	41.000000	
11.903000	-65.403000	86.884720	47.892960	21.791850	5.308440	66.826950	-3.632570	92.092150	707.349980	41.000000	
11.893000	-73.654000	86.927310	43.114540	26.075650	3.949470	68.701380	-3.574980	92.169300	707.200010	41.100000	
11.892000	-81.845000	86.880360	38.116110	30.927180	3.156690	69.413920	-3.656880	92.153740	707.260010	41.100000	
11.900000	-90.000000	86.838600	33.393490	35.778470	2.950830	69.585140	-3.595790	92.139030	707.229980	41.100000	
11.892000	-98.155000	86.770090	28.390180	40.509520	3.348080	69.252500	-3.599990	92.096900	707.219970	41.100000	
11.893000	-106.346000	86.815530	23.891050	45.366600	4.103430	68.047020	-3.641420	92.142850	707.239990	41.100000	
11.903000	-114.597000	86.831860	19.966050	50.190260	5.427470	65.980830	-3.649190	92.175670	707.239990	41.100000	
11.897000	-122.732000	86.806210	16.130520	54.628600	7.398640	63.324710	-3.651790	92.154750	707.229980	41.100000	
11.894000	-130.867000	86.747540	12.529510	58.831790	9.816620	60.022280	-3.586240	92.162380	707.289980	41.100000	
11.902000	-139.148000	86.637250	9.204050	62.501850	13.095620	55.605400	-3.618220	92.094850	707.250000	41.100000	
11.909000	-147.299000	86.611170	6.132240	65.652990	17.393410	51.287690	-3.617580	92.160880	707.340030	41.100000	
11.889000	-155.445000	86.545570	4.121630	68.029480	21.456390	46.691280	-3.642140	92.130760	707.229980	41.100000	
11.890000	-163.610000	86.500740	2.810690	69.765690	25.488290	41.894190	-3.786280	92.172600	707.250000	41.100000	
11.899000	-171.783000	86.394070	2.226680	70.785980	30.158040	36.848970	-3.718270	92.121410	707.280030	41.100000	
11.900000	180.000000	86.322230	2.438300	71.042860	35.286290	31.967840	-3.764970	92.154790	707.270020	41.100000	
13.600000	180.000000	84.139680	-2.928000	74.470210	33.440050	30.111710	-4.507140	92.104200	707.280030	41.200000	
13.608000	-172.853000	84.260350	-3.178360	74.300990	28.612060	34.774970	-4.586180	92.142180	707.280030	41.200000	
13.611000	-165.583000	84.374050	-2.771450	73.434070	24.249100	40.311830	-4.448160	92.162650	707.330020	41.200000	
13.601000	-158.353000	84.483600	-1.571940	71.833830	19.937080	44.911780	-4.360810	92.153980	707.270020	41.200000	
13.609000	-151.210000	84.613170	-0.009660	69.688390	15.662810	49.715680	-4.328470	92.214070	707.280030	41.200000	
13.611000	-143.999000	84.645840	2.329030	66.848560	11.201320	54.226350	-4.287640	92.132640	707.260010	41.200000	
13.601000	-136.825000	84.690830	5.051550	63.541210	7.842710	58.704450	-4.189040	92.123580	707.349980	41.200000	
13.596000	-129.640000	84.732260	8.277650	59.750880	4.933520	62.674930	-4.168520	92.131580	707.330020	41.200000	
13.611000	-122.431000	84.691860	12.263440	55.458130	2.247340	66.045840	-4.091990	92.124980	707.260010	41.200000	
13.604000	-115.211000	84.724090	16.328370	50.891990	0.299040	68.791140	-4.172340	92.104800	707.239990	41.200000	
13.595000	-108.042000	84.701650	20.462980	46.211520	-1.175240	70.616070	-4.123430	92.135790	707.260010	41.200000	
13.607000	-100.793000	84.663600	24.523720	41.289060	-2.247380	72.196080	-4.146370	92.088170	707.429990	41.300000	
13.601000	-93.617000	84.734150	29.075870	36.478900	-2.698240	73.105430	-4.165260	92.139060	707.250000	41.300000	
13.601000	-86.383000	84.767620	34.057060	31.627490	-2.586360	73.229500	-4.128950	92.126800	707.210020	41.300000	
13.607000	-79.207000	84.788540	38.779320	26.943530	-2.273100	72.740860	-4.099890	92.145340	707.289980	41.300000	
13.595000	-71.958000	84.856330	43.826850	22.510090	-1.305450	71.458220	-4.107400	92.145440	707.190000	41.300000	
13.604000	-64.789000	84.873760	48.608430	18.299220	0.106120	69.812760	-4.131900	92.150930	707.179990	41.300000	
13.611000	-57.569000	84.876010	53.215140	14.305860	2.091100	67.370510	-4.166320	92.135730	707.219970	41.300000	
13.596000	-50.360000	84.901120	57.798360	10.586720	4.539170	64.249460	-4.147940	92.123890	707.250000	41.300000	
13.601000	-43.175000	84.940120	61.791790	7.049180	7.375780	60.626640	-4.102130	92.161260	707.299990	41.300000	
13.611000	-36.001000	84.856190	65.191240	4.081500	11.550620	56.154070	-4.213370	92.097840	707.179990	41.300000	
13.609000	-28.790000	84.896600	68.089400	1.986460	15.534440	51.814250	-4.062630	92.138370	707.270020	41.300000	
13.601000	-21.647000	84.853230	70.406740	0.332130	19.718530	47.060650	-3.871780	92.126230	707.299990	41.300000	
13.611000	-14.417000	84.792100	72.247770	-0.867450	23.939640	42.191910	-3.768410	92.146220	707.270020	41.300000	
13.608000	-7.147000	84.710950	73.373700	-1.578770	28.185470	37.162740	-3.737080	92.108350	707.200010	41.300000	
13.600000	0.000000	84.672790	73.813510	-1.540140	33.235900	32.063780	-3.742900	92.142540	707.229980	41.300000	
13.608000	7.147000	84.585460	73.599510	-1.445140	37.897380	27.450460	-3.851970	92.186700	707.280030	41.300000	
13.611000	14.417000	84.443090	72.526190	-1.295510	42.862240	22.799000	-3.791550	92.138870	707.330020	41.300000	
13.601000	21.647000	84.333080	70.727840	-0.194000	47.735080	18.442200	-3.710050	92.110950	707.299990	41.300000	
13.609000	28.790000	84.272220	68.576870	1.320160	52.319500	14.405700	-3.706690	92.119080	707.340030	41.300000	
13.611000	36.001000	84.233960	65.848690	3.369190	56.848230	10.558310	-3.850050	92.183240	707.320010	41.300000	
13.601000	43.175000	84.094290	62.465220	5.848940	60.979720	7.041490	-4.229640	92.143810	707.330020	41.300000	
13.596000	50.360000	83.995690	58.536220	8.998500	64.575560	4.100010	-4.503270	92.144750	707.380000	41.400000	
13.611000	57.569000	83.935380	54.061160	12.856750	67.740600	1.673160	-4.579100	92.162960	707.359990	41.400000	
13.604000	64.789000	83.886570	49.501640	16.895860	70.315340	-0.170580	-4.427800	92.142440	707.340030	41.400000	
13.595000	71.958000	83.828240	44.750140	21.080530	72.337260	-1.644810	-4.259330	92.116800	707.359990	41.400000	
13.607000	79.207000	83.838780	39.735840	25.516700	73.800400	-2.725520	-4.259930	92.147850	707.250000	41.400000	
13.601000	86.383000	83.798940	34.739840	30.133860	74.514760	-3.219950	-4.393400	92.141080	707.330020	41.400000	
13.601000	93.617000	83.761250	29.981490	34.960460	74.523250	-3.183640	-4.671570	92.108790	707.349980	41.400000	
13.607000	100.793000	83.693450	25.436360	39.769910	73.884700	-2.854020	-4.779440	92.067540	707.280030	41.400000	
13.595000	108.042000	83.743420	21.244990	44.629940	72.580010	-2.028210	-4.596630	92.163810	707.440000	41.400000	
13.604000	115.211000	83.715450	16.974910	49.400920	70.581760	-0.737140	-4.386800	92.136240	707.380000	41.400000	
13.611000	122.431000	83.652740	12.851720	53.952190	67.987270	1.074430	-4.292430	92.070720	707.359990	41.400000	
13.596000	129.640000	83.707190	8.866530	58.291060	64.898400	3.361080	-4.367640	92.083350	707.349980	41.400000	
13.601000	136.825000	83.716220	5.674670	62.236090	61.312640	5.998240	-4.502090	92.077840	707.349980	41.400000	
13.611000	143.999000	83.755230	3.100450	65.757000	57.133370	9.324520	-4.627220	92.123500	707.460020	41.400000	
13.609000	151.210000	83.808880	0.972490	68.733770	52.658130	13.117550	-4.516700	92.133990	707.320010	41.500000	
13.601000	158.353000	83.832890	-0.699500	71.052870	48.064100	16.998020	-4.349090	92.110170	707.340030	41.500000	
13.611000	165.583000	83.896820	-1.960140	72.876740	43.125720	21.213830	-4.286380	92.084470	707.280030	41.500000	
13.608000	172.853000	83.971600	-2.696170	74.002420	38.128150	25.677070	-4.380290	92.083610	707.310000	41.500000	
15.298000	173.587000	81.568130	-8.243330	77.160480	36.233910	23.788480	-4.796920	92.107830	707.310000	41.500000	
15.291000	167.167000	81.501480	-7.526520	76.115070	41.122220	19.376350	-4.826330	92.077130	707.299990	41.500000	
15.307000	160.676000	81.403850	-6.464400	74.539300	46.070390	14.907240	-5.004770	92.074420	707.320010	41.500000	
15.300000	154.261000	81.296180	-4.937930	72.346690	50.773210	10.873860	-5.176890	92.055600	707.359990	41.500000	
15.288000	147.854000	81.307310	-3.065760	69.709260	55.412490	7.070580	-5.316020	92.105800	707.400020	41.500000	
15.293000	141.428000	81.259160	-0.745540	66.467620	59.900420	3.615940	-5.345750	92.068850	707.330020	41.500000	
15.299000	134.985000	81.315320	2.003020	62.824300	63.890640	0.713440	-5.279850	92.079870	707.179990	41.500000	
15.305000	128.583000	81.236270	5.150700	58.731580	67.407930	-1.806940	-5.208420	92.055890	707.190000	41.500000	
15.309000	122.142000	81.194680	8.497360	54.292500	70.477300	-4.082960	-5.217840	92.068340	707.200010	41.500000	
15.304000	115.711000	81.224980	12.584340	49.672710	73.148470	-5.850990	-5.323330	92.119190	707.239990	41.500000	
15.297000	109.291000	81.187660	17.155910	44.885790	75.172700	-7.235050	-5.521800	92.078000	707.310000	41.500000	
15.293000	102.897000	81.214760	21.630910	40.111850	76.612980	-8.179100	-5.741040	92.080650	707.250000	41.500000	
15.293000	96.458000	81.235220	26.115220	35.179890	77.441110	-8.635450	-5.733840	92.048430	707.200010	41.500000	
15.300000	90.000000	81.269640	30.427110	30.438610	77.698410	-8.717440	-5.531070	92.060830	707.250000	41.600000	
15.293000	83.542000	81.262830	35.137460	25.874720	77.389750	-8.732440	-5.390730	92.093770	707.260010	41.600000	
15.293000	77.103000	81.310670	40.268010	21.350710	76.459930	-8.037320	-5.325860	92.114270	707.250000	41.600000	
15.297000	70.709000	81.298360	45.190980	16.966360	74.884890	-6.948970	-5.359220	92.068630	707.310000	41.600000	
15.304000	64.289000	81.376550	49.995170	12.813070	72.752190	-5.270590	-5.549830	92.080420	707.349980	41.600000	
15.309000	57.858000	81.415370	54.589010	8.873950	69.975650	-3.205970	-5.628370	92.035580	707.310000	41.600000	
15.305000	51.417000	81.547070	59.112170	5.337970	66.856950	-0.747130	-5.560690	92.100720	707.349980	41.600000	
15.299000	45.015000	81.685260	63.198890	2.217040	63.334120	1.956720	-5.262880	92.147510	707.349980	41.600000	
15.293000	38.572000	81.713940	66.671490	-0.491970	59.350690	5.025110	-4.980440	92.086600	707.429990	41.600000	
15.288000	32.146000	81.789500	69.625440	-2.628380	54.947780	8.596870	-4.755890	92.068640	707.390010	41.600000	
15.300000	25.739000	81.882550	72.264670	-4.473160	50.427980	12.447600	-4.684300	92.107570	707.340030	41.600000	
15.307000	19.324000	81.881270	74.351100	-5.986020	45.660800	16.687430	-4.681750	92.039740	707.349980	41.600000	
15.291000	12.833000	82.061800	75.884030	-6.927640	40.759980	21.223190	-4.659810	92.099400	707.320010	41.700000	
15.298000	6.413000	82.152180	76.744700	-7.319480	35.897780	25.801960	-4.618500	92.086760	707.299990	41.700000	
15.300000	0.000000	82.256790	76.973980	-7.073970	30.968740	30.368240	-4.499650	92.071270	707.239990	41.700000	
15.298000	-6.413000	82.279280	76.603360	-6.980740	26.386490	35.202250	-4.442580	92.064290	707.330020	41.700000	
15.291000	-12.833000	82.381600	75.617810	-6.295380	22.036720	40.934450	-4.454370	92.081710	707.239990	41.700000	
15.307000	-19.324000	82.394840	74.026480	-5.447210	17.713040	45.270740	-4.536190	92.076300	707.310000	41.700000	
15.300000	-25.739000	82.405840	71.800180	-4.076410	13.373900	50.085230	-4.566040	92.031000	707.330020	41.700000	
15.288000	-32.146000	82.481700	69.042020	-2.025880	8.953980	54.644840	-4.637870	92.033190	707.299990	41.700000	
15.293000	-38.572000	82.583860	66.001820	0.497850	5.277500	59.130760	-4.683230	92.066070	707.359990	41.700000	
15.299000	-45.015000	82.498740	62.316910	3.245860	2.147740	63.289290	-4.686430	92.025310	707.289980	41.700000	
15.305000	-51.417000	82.498350	58.248170	6.674160	-0.678040	66.927310	-4.662440	92.114270	707.340030	41.700000	
15.309000	-57.858000	82.404110	53.640840	10.187460	-3.047500	69.882230	-4.489330	92.051860	707.419980	41.700000	
15.304000	-64.289000	82.374560	48.969320	14.280400	-5.010640	72.201190	-4.404050	92.046470	707.500000	41.700000	
15.297000	-70.709000	82.408860	44.223910	18.588500	-6.506870	74.195570	-4.326820	92.080670	707.419980	41.700000	
15.293000	-77.103000	82.366780	39.213810	23.000230	-7.366690	75.541880	-4.203480	92.070080	707.409970	41.700000	
15.293000	-83.542000	82.353810	34.306850	27.584800	-7.358690	76.308650	-4.170250	92.088080	707.450010	41.800000	
15.300000	-90.000000	82.281540	29.494690	32.136990	-7.502720	76.452130	-4.165700	92.050090	707.330020	41.800000	
15.293000	-96.458000	82.238700	25.072980	37.039280	-7.387790	75.959880	-4.145190	92.054730	707.390010	41.800000	
15.293000	-102.897000	82.247310	20.700640	41.900100	-6.672550	74.912040	-4.195240	92.064540	707.549990	41.800000	
15.297000	-109.291000	82.276710	16.321420	46.681670	-5.665040	73.306140	-4.161450	92.103520	707.500000	41.800000	
15.304000	-115.711000	82.283030	11.939550	51.464080	-4.791590	70.936430	-4.197580	92.050830	707.479980	41.800000	
15.309000	-122.142000	82.273290	7.693150	55.990290	-2.829660	68.425030	-4.218600	92.043900	707.370000	41.800000	
15.305000	-128.583000	82.311650	4.184880	60.357440	-0.381810	65.179310	-4.275840	92.072700	707.409970	41.800000	
15.299000	-134.985000	82.279800	1.089420	64.240610	2.422170	61.289630	-4.270100	92.051770	707.380000	41.800000	
15.293000	-141.428000	82.220950	-1.744530	67.713330	5.613870	56.743590	-4.427460	92.037270	707.349980	41.800000	
15.288000	-147.854000	82.100610	-4.044300	70.675220	9.122100	52.300360	-4.529620	91.981790	707.409970	41.800000	
15.300000	-154.261000	82.056240	-5.864440	73.293790	13.296850	47.650340	-4.766340	92.070030	707.479980	41.800000	
15.307000	-160.676000	81.927170	-7.014880	75.244190	17.899570	42.721530	-4.776850	92.061640	707.460020	41.800000	
15.291000	-167.167000	81.881750	-7.970600	76.623880	22.425670	37.753470	-4.898940	92.113560	707.530030	41.800000	
15.298000	-173.587000	81.736820	-8.475960	77.385970	26.974230	32.684060	-4.953560	92.091710	707.429990	41.800000	
15.300000	180.000000	81.574710	-8.335990	77.489940	31.444330	27.994580	-4.934840	92.031600	707.469970	41.800000	
17.000000	180.000000	78.841730	-13.771660	80.356320	29.562640	25.759900	-5.176150	92.049840	707.489990	41.800000	
16.990000	-174.179000	78.934080	-13.813880	80.164510	25.081860	30.350770	-5.069560	92.012960	707.310000	41.800000	
17.009000	-168.383000	79.081690	-13.410600	79.530940	20.307410	35.287080	-4.951050	92.061780	707.429990	41.800000	
17.000000	-162.596000	79.231480	-12.502110	78.314160	15.799330	40.521100	-4.802420	92.043300	707.409970	41.800000	
16.990000	-156.759000	79.436960	-11.030700	76.577520	11.091820	45.287620	-4.635490	92.057260	707.380000	41.800000	
16.995000	-150.919000	79.461840	-9.341960	74.226670	7.108510	50.159060	-4.486890	92.001050	707.479980	41.800000	
16.988000	-145.161000	79.576300	-7.424300	71.544360	3.531620	54.646270	-4.328660	92.029080	707.450010	41.900000	
17.014000	-139.343000	79.682500	-5.124260	68.415920	0.018970	59.263360	-4.279600	92.101380	707.370000	41.900000	
17.007000	-133.546000	79.666370	-2.340480	64.737450	-2.825110	63.631640	-4.154800	92.061410	707.489990	41.800000	
17.001000	-127.699000	79.610540	0.318370	60.623700	-5.049550	67.422830	-4.081910	92.056810	707.570010	41.800000	
17.006000	-121.937000	79.586010	3.624920	56.316170	-7.309270	70.544710	-4.052520	92.029800	707.520020	41.800000	
17.002000	-116.134000	79.601210	7.308440	51.726920	-9.197460	73.141380	-4.013660	92.005830	707.580020	41.800000	
17.001000	-110.310000	79.618580	11.385510	46.909010	-10.701020	75.587460	-4.028560	92.035540	707.659970	41.800000	
16.988000	-104.517000	79.556180	16.304110	42.098790	-11.895510	77.352740	-4.058860	92.019530	707.469970	41.900000	
17.008000	-98.662000	79.498600	20.893410	37.136890	-12.799590	78.603010	-4.088760	92.030710	707.479980	41.900000	
16.996000	-92.909000	79.546030	25.394690	32.194930	-13.167230	79.253930	-4.089560	92.054170	707.409970	41.900000	
16.996000	-87.091000	79.638950	29.656340	27.768960	-13.018750	79.421710	-4.068980	92.065830	707.489990	41.900000	
17.012000	-81.253000	79.630620	34.286870	23.292680	-12.898000	79.096210	-4.051050	92.077840	707.599980	41.900000	
16.988000	-75.483000	79.674510	39.279040	18.796690	-12.160680	78.153140	-4.102010	92.049350	707.530030	41.900000	
17.001000	-69.690000	79.691180	44.198450	14.293840	-11.109250	76.681690	-4.144490	92.031800	707.469970	41.900000	
17.002000	-63.866000	79.776670	49.106950	10.086300	-9.604550	74.645420	-4.311500	92.058610	707.620000	41.900000	
17.006000	-58.063000	79.724820	53.774640	6.205010	-7.812390	71.992390	-4.467040	92.030590	707.409970	41.900000	
17.001000	-52.301000	79.755990	58.301190	2.765400	-5.641000	69.260040	-4.758880	92.050010	707.510010	41.900000	
17.007000	-46.454000	79.851560	62.705550	-0.315040	-3.553470	65.823390	-4.812380	92.058440	707.520020	41.900000	
17.014000	-40.657000	79.821580	66.478460	-3.228020	-0.565440	61.805230	-4.753730	92.033360	707.479980	41.900000	
16.988000	-34.839000	79.901340	69.750550	-5.726670	2.823620	57.255450	-4.802630	92.054530	707.500000	41.900000	
16.995000	-29.081000	79.890940	72.743480	-7.864180	6.320540	52.940300	-4.820510	92.061040	707.419980	41.900000	
16.990000	-23.241000	79.882070	75.280860	-9.786510	10.466610	48.140530	-4.907940	92.056260	707.479980	41.900000	
17.000000	-17.404000	79.749350	77.228630	-11.053450	15.421130	43.111370	-4.900300	92.015880	707.500000	41.900000	
17.009000	-11.617000	79.639700	78.599080	-11.833520	19.760390	38.612100	-4.982690	92.005940	707.500000	41.900000	
16.990000	-5.821000	79.645340	79.458410	-12.346350	24.422950	33.220450	-5.043070	92.039930	707.479980	41.900000	
17.000000	0.000000	79.565800	79.774810	-12.212060	28.705740	28.556050	-5.146750	92.010850	707.479980	41.900000	
16.990000	5.821000	79.478490	79.578640	-12.448790	33.331590	24.029700	-5.270240	92.052600	707.450010	41.900000	
17.009000	11.617000	79.330510	78.875720	-12.578800	38.346850	19.410930	-5.432560	92.029550	707.460020	41.900000	
17.000000	17.404000	79.213590	77.516680	-11.721750	43.238890	14.739490	-5.492150	91.992550	707.599980	41.900000	
16.990000	23.241000	79.216880	75.679550	-10.398410	48.145060	10.448870	-5.535330	92.048420	707.530030	41.900000	
16.995000	29.081000	79.057980	73.244720	-8.777930	52.825620	6.377240	-5.670670	92.048810	707.330020	41.900000	
16.988000	34.839000	79.060240	70.379510	-6.826320	57.237420	2.774040	-5.899580	92.000100	707.489990	41.900000	
17.014000	40.657000	79.013770	67.296310	-4.599240	61.526360	-0.484990	-6.210890	92.072540	707.539980	41.900000	
17.007000	46.454000	78.908770	63.544590	-1.816030	65.414060	-3.466620	-6.479620	92.004260	707.429990	41.900000	
17.001000	52.301000	78.903050	59.326320	1.373260	69.015790	-6.143100	-6.730800	92.085420	707.469970	42.000000	
17.006000	58.063000	78.784220	54.893460	4.746770	72.120750	-8.370190	-6.749790	92.036960	707.429990	42.000000	
17.002000	63.866000	78.715970	50.245670	8.483410	74.844090	-10.319330	-6.693830	92.028970	707.429990	42.000000	
17.001000	69.690000	78.636630	45.433090	12.590740	77.037090	-11.863250	-6.529320	92.021240	707.429990	42.000000	
16.988000	75.483000	78.632390	40.726450	16.888390	78.685780	-13.096280	-6.382100	92.029930	707.460020	42.000000	
17.012000	81.253000	78.547480	35.447190	21.339330	79.819860	-14.010510	-6.411430	92.038310	707.520020	42.000000	
16.996000	87.091000	78.441600	30.559660	25.948220	80.381820	-14.422780	-6.540850	92.007930	707.510010	42.000000	
16.996000	92.909000	78.499590	26.574250	30.206060	80.436230	-14.340860	-6.806710	92.022540	707.469970	42.000000	
17.008000	98.662000	78.484210	21.932020	35.026750	79.982080	-14.164590	-6.845340	92.021230	707.450010	42.000000	
16.988000	104.517000	78.538520	17.218110	40.102660	78.928720	-13.362630	-6.645910	92.039710	707.419980	42.000000	
17.001000	110.310000	78.546200	12.430210	44.857780	77.410600	-12.238220	-6.450810	92.021540	707.419980	42.000000	
17.002000	116.134000	78.510860	8.465330	49.686900	75.321240	-10.961830	-6.227100	92.027110	707.450010	42.000000	
17.006000	121.937000	78.474020	4.761830	54.321720	72.693500	-9.273800	-6.141420	92.047360	707.419980	42.000000	
17.001000	127.699000	78.521320	1.412280	58.679870	69.644100	-7.144740	-6.101620	92.048490	707.479980	42.000000	
17.007000	133.546000	78.532500	-1.763360	62.940780	66.098720	-4.674490	-6.088310	92.005640	707.419980	42.000000	
17.014000	139.343000	78.602800	-4.581050	66.836400	62.202860	-1.837300	-6.104500	92.043500	707.450010	42.000000	
16.988000	145.161000	78.592400	-6.928620	70.142850	57.875780	1.207530	-6.022230	92.019070	707.460020	42.000000	
16.995000	150.919000	78.648930	-8.959090	73.108310	53.392430	4.720900	-5.867150	92.020610	707.560000	42.000000	
16.990000	156.759000	78.768390	-10.562330	75.613720	48.624710	8.648340	-5.591160	92.041050	707.450010	42.000000	
17.000000	162.596000	78.814880	-11.960930	77.601040	43.755100	12.674220	-5.436680	92.031180	707.450010	42.000000	
17.009000	168.383000	78.795590	-13.002450	79.033360	38.897400	17.063010	-5.305940	92.019770	707.460020	42.000000	
16.990000	174.179000	78.733140	-13.643490	79.916630	33.738410	21.688920	-5.149170	92.014370	707.409970	42.000000	
18.709000	174.675000	75.827420	-18.988960	82.527280	31.298560	19.239090	-5.289010	91.992420	707.479980	42.000000	
18.703000	169.441000	75.838630	-18.416250	81.762570	36.223580	14.682740	-5.445570	92.089450	707.469970	42.000000	
18.691000	164.085000	75.749330	-17.383790	80.309150	41.341920	10.289290	-5.675190	91.998480	707.390010	42.000000	
18.706000	158.818000	75.712410	-16.165240	78.548580	46.107740	6.255700	-5.885390	91.994990	707.380000	42.000000	
18.695000	153.537000	75.625730	-14.579600	76.221210	50.946310	2.458230	-6.101420	91.976170	707.340030	42.000000	
18.704000	148.255000	75.484440	-12.869220	73.491390	55.566330	-1.054530	-6.295890	92.004150	707.450010	42.000000	
18.698000	142.952000	75.467860	-10.715710	70.339680	59.982860	-4.202530	-6.410690	91.982110	707.500000	42.000000	
18.699000	137.625000	75.411210	-8.239880	66.766720	64.225430	-7.135960	-6.496930	91.942020	707.409970	42.100000	
18.705000	132.343000	75.370670	-5.532320	62.860110	68.071610	-9.847660	-6.588490	91.960490	707.450010	42.100000	
18.713000	127.067000	75.350860	-2.457550	58.623410	71.465860	-12.250630	-6.668700	91.978650	707.539980	42.100000	
18.700000	121.794000	75.399880	0.953700	54.209640	74.535920	-14.207690	-6.749310	91.953960	707.450010	42.100000	
18.698000	116.504000	75.363920	4.595420	49.569840	77.146990	-15.842340	-6.890780	91.950640	707.539980	42.100000	
18.707000	111.165000	75.496150	8.501550	44.732950	79.342490	-17.255300	-7.120400	91.982250	707.489990	42.100000	
18.690000	105.863000	75.400440	12.628200	39.863840	81.002880	-18.258650	-7.384690	91.985840	707.580020	42.100000	
18.696000	100.583000	75.447530	17.084190	34.929620	82.203220	-19.123760	-7.596000	91.988720	707.620000	42.100000	
18.700000	95.309000	75.398980	21.942010	30.229490	82.911440	-19.593100	-7.696830	92.021770	707.609990	42.100000	
18.700000	90.000000	75.376460	26.012100	26.023040	83.091550	-19.905800	-7.450680	92.018140	707.510010	42.100000	
18.700000	84.691000	75.342290	30.634120	21.351220	82.741070	-19.760030	-7.273520	91.935940	707.520020	42.100000	
18.696000	79.417000	75.402320	35.521980	16.715600	81.911800	-19.081920	-7.236030	91.931180	707.440000	42.100000	
18.690000	74.137000	75.538910	40.747120	12.367080	80.641890	-18.045210	-7.270700	91.979240	707.549990	42.100000	
18.707000	68.835000	75.564120	45.491970	8.283360	78.887420	-16.781220	-7.414280	91.961180	707.489990	42.100000	
18.698000	63.496000	75.632760	50.403980	4.387480	76.604900	-15.126560	-7.527050	91.950320	707.570010	42.100000	
18.700000	58.206000	75.687870	55.008110	0.781290	73.873580	-13.228970	-7.575010	91.968110	707.599980	42.200000	
18.713000	52.933000	75.736570	59.390640	-2.460550	70.773930	-11.120650	-7.575920	91.965640	707.640010	42.200000	
18.705000	47.657000	75.790920	63.679040	-5.383740	67.251690	-8.563150	-7.350110	91.933490	707.530030	42.200000	
18.699000	42.375000	75.910430	67.561410	-8.126360	63.428130	-5.772950	-7.023040	92.007800	707.590030	42.200000	
18.698000	37.048000	75.982830	70.883930	-10.664220	59.177990	-2.690230	-6.733590	91.958360	707.549990	42.200000	
18.704000	31.745000	76.051570	73.909070	-12.737260	54.863990	0.617320	-6.504690	91.983740	707.500000	42.200000	
18.695000	26.463000	76.229800	76.575490	-14.407630	50.375740	4.300820	-6.270710	92.029750	707.380000	42.200000	
18.706000	21.182000	76.315320	78.674170	-16.108760	45.581210	8.249910	-6.049320	91.967240	707.390010	42.200000	
18.691000	15.915000	76.423350	80.271980	-17.142480	40.710610	12.460610	-6.010680	91.932560	707.489990	42.200000	
18.703000	10.559000	76.573120	81.561780	-18.001380	35.693180	17.148570	-5.913770	91.991510	707.419980	42.200000	
18.709000	5.325000	76.585740	82.290710	-17.918360	30.732710	21.833160	-5.730790	91.962610	707.349980	42.200000	
18.700000	0.000000	76.746990	82.510880	-17.721590	26.517370	26.187740	-5.440640	92.005070	707.330020	42.300000	
18.709000	-5.325000	76.781560	82.202980	-17.735140	22.022130	30.814600	-5.260700	91.963290	707.370000	42.200000	
18.703000	-10.559000	76.872250	81.376480	-17.273440	17.348460	35.914010	-5.098700	91.990920	707.320010	42.300000	
18.691000	-15.915000	76.973500	80.059440	-16.221190	12.485210	41.213990	-5.015530	91.983800	707.380000	42.300000	
18.706000	-21.182000	76.993630	78.337750	-15.231880	8.163690	45.596530	-4.908710	91.964710	707.320010	42.300000	
18.695000	-26.463000	77.005580	76.047470	-13.581660	4.275720	50.462460	-4.741790	91.941900	707.270020	42.300000	
18.704000	-31.745000	77.026540	73.284320	-11.772520	0.809140	55.080740	-4.615240	91.959660	707.270020	42.300000	
18.698000	-37.048000	77.017220	70.120940	-9.701190	-2.315660	59.442800	-4.575660	91.967960	707.380000	42.300000	
18.699000	-42.375000	76.968860	66.588900	-7.232290	-5.586470	63.960060	-4.484430	91.956080	707.289980	42.300000	
18.705000	-47.657000	77.004070	62.643090	-4.334320	-8.346650	67.869450	-4.494110	91.975650	707.359990	42.300000	
18.713000	-52.933000	77.023380	58.284080	-1.186390	-10.641820	71.014810	-4.374620	91.980060	707.320010	42.300000	
18.700000	-58.206000	77.001710	53.780330	2.185290	-12.806270	73.990260	-4.146300	91.968010	707.419980	42.300000	
18.698000	-63.496000	76.945420	49.061150	5.968630	-14.612860	76.582200	-3.998810	91.948790	707.539980	42.300000	
18.707000	-68.835000	76.924210	44.119650	9.976640	-16.147460	78.736520	-3.880130	91.987790	707.489990	42.300000	
18.690000	-74.137000	76.869320	39.255350	14.252500	-17.297420	80.203660	-3.749500	91.960890	707.460020	42.300000	
18.696000	-79.417000	76.819050	34.117400	18.783990	-18.145180	81.339460	-3.739940	91.988370	707.429990	42.300000	
18.700000	-84.691000	76.780790	29.350160	23.379830	-18.545750	81.922780	-3.698820	91.967290	707.349980	42.300000	
18.700000	-90.000000	76.738270	25.188300	27.567140	-18.744010	82.033420	-3.800760	91.975850	707.280030	42.300000	
18.700000	-95.309000	76.714560	20.774440	32.155010	-18.591670	81.628580	-3.768880	91.974980	707.359990	42.300000	
18.696000	-100.583000	76.730160	16.067580	37.198140	-17.924340	80.690820	-3.736270	91.966400	707.489990	42.300000	
18.690000	-105.863000	76.772990	11.236740	42.062630	-16.905180	79.330080	-3.787440	91.961150	707.560000	42.300000	
18.707000	-111.165000	76.715350	7.116690	46.867000	-15.751540	77.483540	-3.684440	91.950040	707.510010	42.300000	
18.698000	-116.504000	76.826610	3.138180	51.780100	-14.221220	75.060750	-3.692740	92.000460	707.380000	42.300000	
18.700000	-121.794000	76.806410	-0.388470	56.284840	-12.381230	72.084820	-3.715540	91.936970	707.380000	42.300000	
18.713000	-127.067000	76.842380	-3.310760	60.665010	-10.229580	69.156980	-3.740230	91.967670	707.359990	42.300000	
18.705000	-132.343000	76.797510	-6.317690	64.741000	-7.706400	65.519640	-3.902570	91.918920	707.440000	42.300000	
18.699000	-137.625000	76.826910	-9.033420	68.551990	-4.896060	61.405610	-3.925680	92.019800	707.560000	42.400000	
18.698000	-142.952000	76.763080	-11.457670	71.918040	-1.768920	56.817870	-4.006420	91.971120	707.440000	42.300000	
18.704000	-148.255000	76.669470	-13.551780	74.869000	1.668430	52.200500	-4.096320	91.919790	707.500000	42.300000	
18.695000	-153.537000	76.612740	-15.441840	77.380990	5.061330	47.558110	-4.195180	91.966870	707.390010	42.300000	
18.706000	-158.818000	76.519870	-16.773570	79.466260	8.930020	43.059350	-4.359730	91.965660	707.500000	42.300000	
18.691000	-164.085000	76.405940	-17.669340	81.017170	13.265810	37.600950	-4.570670	91.972590	707.520020	42.300000	
18.703000	-169.441000	76.178790	-18.639960	82.122220	17.990480	32.654160	-4.697330	91.963810	707.380000	42.300000	
18.709000	-174.675000	75.995380	-19.141190	82.684290	22.728850	27.732190	-4.905360	91.923610	707.450010	42.300000	
18.700000	180.000000	75.930920	-19.141600	82.829730	27.322780	23.182950	-5.071270	91.945400	707.419980	42.400000	
20.400000	180.000000	72.451440	-24.365780	85.064160	24.446700	20.703890	-4.875200	91.956890	707.520020	42.300000	
20.401000	-175.153000	72.610080	-24.400360	85.016620	20.277340	24.915210	-4.738600	92.005010	707.599980	42.300000	
20.407000	-170.264000	72.805910	-23.817320	84.504140	15.294360	29.902460	-4.548680	92.018710	707.539980	42.300000	
20.410000	-165.423000	72.907100	-23.261650	83.508740	11.098380	34.743730	-4.421480	91.959950	707.560000	42.300000	
20.392000	-160.496000	73.068700	-22.228690	82.000250	7.056280	39.907730	-4.135400	91.953320	707.599980	42.300000	
20.401000	-155.705000	73.189630	-20.917450	80.161970	3.079180	44.568000	-3.999650	91.961710	707.530030	42.300000	
20.405000	-150.835000	73.380390	-19.326520	77.930110	-0.552430	49.424640	-3.894180	91.990910	707.650020	42.300000	
20.397000	-145.903000	73.450850	-17.337820	75.040470	-4.067380	54.199320	-3.776320	91.933850	707.520020	42.400000	
20.392000	-141.062000	73.559300	-15.257590	71.933140	-7.309770	58.740960	-3.707180	92.026300	707.570010	42.300000	
20.396000	-136.227000	73.524350	-12.877480	68.426510	-10.192890	63.162730	-3.640220	91.936900	707.590030	42.300000	
20.408000	-131.372000	73.504150	-10.249820	64.662170	-12.831690	67.139920	-3.622130	91.955760	707.549990	42.300000	
20.410000	-126.511000	73.528500	-7.339040	60.501510	-15.410260	70.760160	-3.546280	92.006690	707.570010	42.300000	
20.400000	-121.604000	73.397480	-4.080790	55.985520	-17.544900	73.858960	-3.522330	91.923650	707.520020	42.300000	
20.403000	-116.741000	73.395170	-0.628570	51.435130	-19.350450	76.796420	-3.511010	91.981450	707.590030	42.300000	
20.413000	-111.900000	73.375960	3.119910	46.668140	-20.849360	79.159960	-3.427760	91.955040	707.500000	42.300000	
20.398000	-107.004000	73.381780	7.208610	41.778190	-22.056600	80.991490	-3.478620	91.937920	707.479980	42.300000	
20.394000	-102.132000	73.445470	11.183150	36.946460	-23.737390	82.625340	-3.447440	91.985700	707.580020	42.300000	
20.403000	-97.332000	73.365950	15.398630	32.012750	-24.658840	83.676220	-3.508520	91.959850	707.479980	42.300000	
20.392000	-92.440000	73.354960	20.587060	27.141030	-24.113270	84.257660	-3.499500	91.958640	707.429990	42.300000	
20.392000	-87.560000	73.376830	24.601810	23.108600	-24.017680	84.369820	-3.516000	91.917430	707.620000	42.300000	
20.403000	-82.668000	73.371540	29.024620	18.714250	-23.899710	84.131600	-3.497300	91.940570	707.590030	42.300000	
20.394000	-77.868000	73.484930	33.850570	14.236490	-23.532550	83.414920	-3.503660	91.978870	707.450010	42.300000	
20.398000	-72.996000	73.483890	38.821740	9.940150	-22.466430	82.169410	-3.566280	91.966400	707.539980	42.300000	
20.413000	-68.100000	73.460410	43.684080	5.791310	-21.205980	80.449510	-3.621280	91.923440	707.479980	42.300000	
20.403000	-63.259000	73.520450	48.613480	1.943830	-19.769240	78.423930	-3.740820	91.958080	707.510010	42.300000	
20.400000	-58.396000	73.535340	53.302310	-1.661020	-17.977840	75.835390	-3.828670	91.917730	707.599980	42.300000	
20.410000	-53.489000	73.593510	57.829730	-5.075720	-15.947160	72.754130	-3.939190	91.941240	707.539980	42.300000	
20.408000	-48.628000	73.573570	62.318850	-8.203630	-13.550990	69.616260	-4.069790	91.909770	707.380000	42.300000	
20.396000	-43.773000	73.635010	66.381550	-11.029200	-10.915770	65.952800	-4.254380	91.929720	707.479980	42.300000	
20.392000	-38.938000	73.661020	70.042600	-13.637620	-8.119730	61.777070	-4.333510	91.976420	707.479980	42.400000	
20.397000	-34.097000	73.629290	73.326160	-15.834300	-4.943520	57.309280	-4.384640	91.945030	707.580020	42.400000	
20.405000	-29.165000	73.624540	76.427290	-17.776920	-1.433770	52.740150	-4.487360	91.970870	707.570010	42.400000	
20.401000	-24.295000	73.604450	78.961220	-19.370700	2.174120	48.063290	-4.650410	91.989380	707.659970	42.300000	
20.392000	-19.504000	73.566250	80.931420	-20.674090	5.834540	43.690930	-4.824800	91.934690	707.539980	42.400000	
20.410000	-14.577000	73.518080	82.671360	-21.700340	10.096210	38.376580	-5.032840	91.936390	707.590030	42.400000	
20.407000	-9.736000	73.469180	83.837010	-22.490510	14.367800	33.330540	-5.263460	91.960600	707.539980	42.300000	
20.401000	-4.847000	73.375300	84.553200	-23.083560	19.534280	28.204460	-5.407160	91.977500	707.710020	42.300000	
20.400000	0.000000	73.305780	84.773510	-23.117560	23.812410	23.814020	-5.635390	91.937380	707.609990	42.300000	
20.401000	4.847000	73.210930	84.663050	-23.541420	27.922050	19.511190	-5.956110	91.968150	707.520020	42.300000	
20.407000	9.736000	73.118320	84.000500	-23.569370	32.820190	14.771580	-6.147790	91.937070	707.570010	42.300000	
20.410000	14.577000	72.998350	82.944340	-22.485860	37.696470	10.285360	-6.307960	91.962680	707.590030	42.400000	
20.392000	19.504000	72.951810	81.298870	-21.292690	42.622300	6.143420	-6.456380	91.939190	707.659970	42.400000	
20.401000	24.295000	72.867230	79.426990	-20.046780	47.497110	2.206060	-6.623960	91.994490	707.679990	42.400000	
20.405000	29.165000	72.736200	76.981580	-18.553610	52.167980	-1.531080	-6.918170	91.912510	707.549990	42.400000	
20.397000	34.097000	72.695680	74.061100	-16.673930	56.683930	-4.911150	-7.173000	91.934700	707.700010	42.400000	
20.392000	38.938000	72.648160	70.946370	-14.557910	61.016350	-8.050840	-7.539330	91.954180	707.580020	42.400000	
20.396000	43.773000	72.541650	67.445030	-12.067950	65.131770	-10.994470	-7.899080	91.948370	707.469970	42.400000	
20.408000	48.628000	72.427510	63.537930	-9.333130	68.867700	-13.653300	-8.164250	91.909000	707.479980	42.400000	
20.410000	53.489000	72.408090	59.096680	-6.288720	72.317450	-15.963640	-8.283670	91.953060	707.409970	42.400000	
20.400000	58.396000	72.308590	54.691520	-3.004610	75.489690	-18.139170	-8.273800	91.918270	707.539980	42.400000	
20.403000	63.259000	72.221460	50.095390	0.350420	78.216840	-20.059580	-8.262070	91.952270	707.419980	42.400000	
20.413000	68.100000	72.096650	45.225290	3.959040	80.497410	-21.657580	-8.223460	91.928090	707.500000	42.400000	
20.398000	72.996000	71.986980	40.399410	7.810060	82.349940	-23.090560	-8.054260	91.897120	707.510010	42.400000	
20.394000	77.868000	71.971860	35.316100	12.045380	83.722740	-24.017930	-7.998820	91.881590	707.510010	42.400000	
20.403000	82.668000	71.962100	30.587790	16.410890	84.738890	-24.756330	-8.063560	91.973580	707.530030	42.400000	
20.392000	87.560000	71.869930	25.606710	21.124310	85.184590	-25.075500	-8.147030	91.883730	707.500000	42.400000	
20.392000	92.440000	71.904590	20.836580	25.638500	85.273270	-25.105520	-8.263400	91.968630	707.419980	42.400000	
20.403000	97.332000	71.887050	16.771230	29.628450	84.898740	-24.582770	-8.446770	91.934040	707.479980	42.400000	
20.394000	102.132000	71.886140	12.693110	34.436900	84.059140	-24.047770	-8.254490	91.913380	707.530030	42.400000	
20.398000	107.004000	71.890610	8.460820	39.363640	82.760680	-23.241360	-8.077280	91.916860	707.580020	42.400000	
20.413000	111.900000	71.867250	4.332180	44.329010	80.942090	-22.161640	-7.802790	91.932210	707.570010	42.400000	
20.403000	116.741000	71.882600	0.547680	49.103910	78.797110	-20.772360	-7.567770	91.914180	707.539980	42.400000	
20.400000	121.604000	71.917800	-2.922320	53.739200	76.191290	-18.816970	-7.343250	91.925570	707.500000	42.400000	
20.410000	126.511000	71.862400	-6.344630	58.225350	73.027470	-16.998830	-7.144430	91.923710	707.489990	42.400000	
20.408000	131.372000	71.871770	-9.211990	62.541480	69.687730	-14.817150	-6.983800	91.906210	707.549990	42.400000	
20.396000	136.227000	71.961240	-11.944150	66.502590	65.998540	-12.568190	-6.790460	91.938290	707.620000	42.400000	
20.392000	141.062000	71.950980	-14.509230	70.094930	61.776030	-9.786070	-6.598840	91.903330	707.630000	42.400000	
20.397000	145.903000	71.959180	-16.818790	73.409260	57.450890	-6.880570	-6.357730	91.898500	707.549990	42.400000	
20.405000	150.835000	71.981720	-18.827430	76.420750	52.868680	-3.651610	-6.192510	91.922070	707.510010	42.400000	
20.401000	155.705000	72.027150	-20.579030	78.942760	48.167430	-0.069310	-5.945710	91.920600	707.539980	42.400000	
20.392000	160.496000	72.114580	-21.732580	81.048160	43.412960	3.798600	-5.715700	91.945070	707.500000	42.400000	
20.410000	165.423000	72.059190	-22.869010	82.697330	38.426680	7.755200	-5.485510	91.895000	707.590030	42.400000	
20.407000	170.264000	72.196620	-23.742820	83.982280	33.437370	12.072480	-5.279610	91.938160	707.520020	42.400000	
20.401000	175.153000	72.271890	-24.170290	84.722870	28.696680	16.569680	-5.081870	91.922890	707.549990	42.400000	
0.141000	45.000000	92.061650	39.449510	40.298760	40.534640	38.398550	0.609330	91.967120	707.469970	42.400000	
4.001000	128.691000	91.636930	31.257380	47.189010	48.858330	28.764060	0.013410	91.950840	707.500000	42.400000	
4.002000	76.995000	91.671810	41.336700	37.258090	51.130220	26.889500	0.278110	91.946240	707.620000	42.400000	
4.002000	25.892000	91.791040	49.343640	29.824070	44.561980	33.160320	0.536220	91.967550	707.530030	42.400000	
4.002000	-25.892000	91.875780	49.220480	30.044930	34.659880	43.433320	0.386340	91.994960	707.570010	42.400000	
4.002000	-76.995000	91.848320	40.906750	37.690330	28.298070	49.651000	-0.012480	91.949010	707.700010	42.400000	
4.001000	-128.691000	91.703000	30.968280	47.523610	30.699250	46.844920	-0.259140	91.886700	707.539980	42.400000	
4.000000	180.000000	91.671900	26.827020	51.834880	39.707510	37.613160	-0.282770	91.978790	707.460020	42.500000	
8.000000	180.000000	89.610630	14.608070	62.170280	37.757480	35.212100	-1.924100	91.896570	707.530030	42.500000	
7.991000	-152.370000	89.826600	16.768550	59.519030	27.001380	46.397980	-1.848960	91.910380	707.539980	42.500000	
7.997000	-124.550000	89.982770	23.327450	51.814930	19.472060	55.677210	-1.878520	91.918240	707.460020	42.500000	
8.006000	-96.837000	90.075080	33.529900	41.157530	15.487380	60.393490	-1.781650	91.953550	707.530030	42.500000	
7.988000	-69.228000	90.138790	44.604580	30.223900	16.916670	59.306020	-1.596550	91.941420	707.419980	42.500000	
7.997000	-41.563000	90.141000	54.590210	21.670050	22.687600	52.410610	-1.251500	91.948510	707.500000	42.500000	
8.008000	-13.821000	90.031330	60.350030	16.874550	32.380230	42.208740	-0.798290	91.912390	707.429990	42.500000	
8.008000	13.821000	89.888830	60.543340	16.665030	43.418250	30.809420	-0.730090	91.914670	707.609990	42.500000	
7.997000	41.563000	89.700000	54.952600	21.126130	53.532890	21.521640	-0.818050	91.895010	707.539980	42.500000	
7.988000	69.228000	89.602420	45.233540	29.682200	60.284800	15.878850	-1.077320	91.918330	707.630000	42.500000	
8.006000	96.837000	89.555060	34.070500	40.309060	61.749030	14.544140	-1.332090	91.953620	707.520020	42.500000	
7.997000	124.550000	89.431920	23.781720	50.943980	57.559460	17.800210	-1.363490	91.839150	707.549990	42.500000	
7.991000	152.370000	89.478440	17.128780	59.035110	48.737330	24.966040	-1.743940	91.867460	707.630000	42.500000	
12.009000	161.059000	85.683940	3.548410	68.738570	46.149430	21.458350	-3.705230	91.906530	707.539980	42.500000	
12.013000	142.081000	85.524450	8.371040	62.671700	56.648900	12.515450	-3.754120	91.847500	707.609990	42.500000	
12.006000	123.113000	85.517820	16.296200	53.437020	65.040660	6.060970	-3.444130	91.854720	707.640010	42.500000	
12.007000	104.200000	85.588830	25.594510	42.655410	69.865930	2.725110	-3.338150	91.871410	707.690000	42.500000	
11.989000	85.301000	85.676870	36.850180	31.549890	70.858580	2.042690	-3.447030	91.884680	707.560000	42.500000	
12.013000	66.294000	85.680270	48.096070	20.930210	67.798580	4.412880	-3.287620	91.884740	707.679990	42.500000	
12.012000	47.388000	85.750810	58.415040	12.181500	61.147170	9.555770	-3.402840	91.854660	707.609990	42.500000	
11.990000	28.440000	85.993690	65.917370	6.240980	51.416470	17.822650	-2.830580	91.860340	707.570010	42.500000	
11.991000	9.464000	86.223790	69.660030	3.615210	40.321850	27.898530	-2.545840	91.847530	707.659970	42.500000	
11.991000	-9.464000	86.434160	69.555490	3.899630	28.987610	39.394770	-2.947260	91.862030	707.590030	42.500000	
11.990000	-28.440000	86.540260	65.417660	6.911370	19.211380	50.556460	-3.021080	91.846880	707.650020	42.500000	
12.012000	-47.388000	86.549270	57.742480	13.236330	10.419770	60.613120	-3.382140	91.866150	707.640010	42.500000	
12.013000	-66.294000	86.523330	47.249280	21.950330	4.758740	67.109780	-3.616950	91.875760	707.760010	42.500000	
11.989000	-85.301000	86.468410	35.796630	32.771030	2.632590	69.498320	-3.605260	91.861560	707.719970	42.500000	
12.007000	-104.200000	86.401290	24.680230	43.940150	3.421080	68.481570	-3.660210	91.876880	707.659970	42.500000	
12.006000	-123.113000	86.381320	15.569510	54.701210	7.146750	63.124930	-3.631350	91.862950	707.620000	42.500000	
12.013000	-142.081000	86.222190	7.538920	63.587360	14.238000	54.039760	-3.666130	91.872650	707.640010	42.500000	
12.009000	-161.059000	86.093560	2.715550	69.259860	23.730580	43.243670	-3.747070	91.879520	707.609990	42.500000	
16.000000	180.000000	80.298670	-10.642910	78.511250	30.591870	26.931330	-5.042200	91.851300	707.500000	42.500000	
15.990000	-165.604000	80.577840	-10.024590	77.252600	19.985640	38.410530	-4.780800	91.835310	707.479980	42.500000	
16.002000	-151.165000	80.837900	-6.718660	72.883500	9.376050	49.863040	-4.442790	91.849370	707.690000	42.500000	
16.002000	-136.836000	81.089780	-1.639740	65.788350	1.458230	60.524210	-4.202840	91.906950	707.590030	42.500000	
15.995000	-122.439000	81.093190	5.804290	56.293400	-4.771500	69.028530	-4.133400	91.880130	707.609990	42.500000	
15.993000	-107.966000	81.048780	15.814790	45.239370	-8.218980	74.663400	-4.103800	91.887590	707.520020	42.500000	
16.005000	-93.629000	80.996090	26.125920	33.859970	-9.964590	77.392170	-4.053980	91.865330	707.469970	42.500000	
15.992000	-79.234000	81.072710	37.001840	23.248020	-9.471030	76.962970	-4.069670	91.876580	707.570010	42.500000	
16.009000	-64.774000	81.136920	48.424020	12.897260	-6.782200	73.355980	-4.228320	91.846860	707.650020	42.600000	
15.997000	-50.364000	81.265950	59.293660	4.368230	-2.346600	66.975270	-4.683260	91.895190	707.580020	42.600000	
15.997000	-36.045000	81.300160	68.015820	-2.615550	4.661350	57.474960	-4.693540	91.859830	707.510010	42.600000	
16.000000	-21.597000	81.230450	74.295360	-7.236420	14.644410	46.751780	-4.584460	91.880930	707.580020	42.600000	
16.003000	-7.169000	81.098270	77.576580	-9.177290	24.959470	35.232310	-4.664760	91.874700	707.560000	42.600000	
16.003000	7.169000	80.865150	77.713980	-9.678540	35.659970	24.215530	-4.863840	91.864080	707.590030	42.600000	
16.000000	21.597000	80.718710	74.764690	-7.755580	47.088630	13.688430	-4.951250	91.936410	707.560000	42.600000	
15.997000	36.045000	80.481180	68.660540	-3.370160	57.889180	4.591480	-5.284960	91.920850	707.549990	42.600000	
15.997000	50.364000	80.268810	60.160220	2.931030	66.920390	-2.519960	-5.932020	91.928340	707.609990	42.600000	
16.009000	64.774000	80.041050	49.505550	11.558850	73.836300	-7.582700	-5.951270	91.892910	707.510010	42.600000	
15.992000	79.234000	79.969860	38.087870	21.616730	77.778650	-10.573880	-5.675010	91.848870	707.479980	42.600000	
16.005000	93.629000	79.890630	27.108940	32.033450	78.664570	-11.169790	-6.098250	91.853400	707.590030	42.600000	
15.993000	107.966000	79.826000	16.579150	43.453180	76.501430	-9.764480	-5.944340	91.870440	707.400020	42.600000	
15.995000	122.439000	79.858040	6.745680	54.544740	71.037950	-6.082020	-5.515160	91.854620	707.570010	42.600000	
16.002000	136.836000	79.940790	-0.688710	64.364290	63.115110	-0.468420	-5.574660	91.858180	707.570010	42.600000	
16.002000	151.165000	79.939320	-6.176220	71.900120	52.999580	7.270040	-5.476170	91.860940	707.570010	42.600000	
15.990000	165.604000	80.189690	-9.411630	76.738370	41.731410	17.028840	-5.002820	91.896620	707.520020	42.600000	
20.003000	168.362000	72.988170	-22.132590	83.023460	35.812740	11.218070	-5.401840	91.915080	707.500000	42.600000	
20.008000	156.764000	72.804680	-19.600700	78.971220	47.238300	1.701260	-5.935000	91.816070	707.510010	42.600000	
20.000000	145.147000	72.787100	-15.194460	72.602840	58.110400	-6.169980	-6.405980	91.849370	707.560000	42.600000	
19.995000	133.545000	72.701960	-9.428410	64.197130	67.784700	-12.632870	-6.806360	91.836770	707.479980	42.600000	
20.009000	121.926000	72.663470	-2.226230	54.143080	75.504980	-17.849020	-7.203910	91.856980	707.539980	42.600000	
20.005000	110.327000	72.682100	6.522400	43.051800	81.069500	-21.268370	-7.663260	91.899960	707.500000	42.600000	
19.989000	98.733000	72.700350	16.204330	31.563410	84.090690	-23.152830	-8.312040	91.871090	707.510010	42.600000	
19.999000	87.075000	72.650420	26.672450	21.381260	84.578360	-23.823600	-7.956180	91.849770	707.530030	42.700000	
19.992000	75.457000	72.761870	38.132920	10.830090	82.536410	-22.264970	-7.864400	91.838720	707.549990	42.700000	
20.009000	63.844000	72.894200	49.609630	1.753850	77.973910	-18.986590	-8.119700	91.781140	707.479980	42.700000	
19.989000	52.269000	73.195930	60.145130	-5.796690	71.073530	-14.082770	-8.091840	91.814030	707.510010	42.700000	
19.999000	40.602000	73.319760	69.468660	-12.505530	62.299870	-8.022180	-7.443510	91.832820	707.489990	42.700000	
20.004000	29.051000	73.450180	76.526360	-17.317830	52.174420	-0.535970	-6.799480	91.818270	707.549990	42.700000	
20.005000	17.433000	73.670700	81.462050	-20.465960	40.926440	8.631400	-6.282220	91.870030	707.570010	42.700000	
20.006000	5.780000	73.882390	83.929790	-21.930880	29.420670	19.251080	-5.889120	91.844040	707.460020	42.700000	
20.006000	-5.780000	74.092170	83.861980	-21.733560	19.339310	29.717740	-5.407790	91.877590	707.510010	42.700000	
20.005000	-17.433000	74.276760	81.178840	-19.802670	8.469560	41.822660	-4.985990	91.862170	707.409970	42.700000	
20.004000	-29.051000	74.291890	76.012360	-16.639680	-0.348390	52.583540	-4.613150	91.830250	707.419980	42.700000	
19.999000	-40.602000	74.296520	68.562520	-11.676900	-8.051400	63.057010	-4.331710	91.860670	707.419980	42.700000	
19.989000	-52.269000	74.323360	58.920600	-4.712320	-13.996540	71.548480	-4.142010	91.825080	707.510010	42.700000	
20.009000	-63.844000	74.214340	48.236220	3.248410	-18.699410	78.210190	-3.790690	91.869020	707.520020	42.700000	
19.992000	-75.457000	74.202580	36.726740	12.818500	-21.539350	82.262500	-3.573690	91.903840	707.520020	42.700000	
19.999000	-87.075000	74.113010	25.519830	23.419020	-22.745510	83.806710	-3.525230	91.870330	707.520020	42.700000	
19.989000	-98.733000	74.060730	14.971650	33.848930	-22.983480	82.794950	-3.578950	91.831290	707.549990	42.700000	
20.005000	-110.327000	74.030530	5.044680	45.221150	-20.003600	79.286990	-3.512690	91.815160	707.650020	42.700000	
20.009000	-121.926000	74.038630	-3.323640	56.161240	-16.280860	73.231580	-3.534310	91.819930	707.650020	42.700000	
19.995000	-133.545000	74.128210	-10.393330	66.054500	-10.677470	65.187280	-3.707680	91.782130	707.640010	42.700000	
20.000000	-145.147000	74.054660	-15.992610	74.099210	-3.738040	54.922150	-3.910670	91.806630	707.570010	42.700000	
20.008000	-156.764000	73.777980	-20.244210	80.003970	4.634110	44.078720	-4.101870	91.822040	707.570010	42.700000	
20.003000	-168.362000	73.465270	-22.303460	83.429000	14.287090	32.232440	-4.584800	91.788890	707.570010	42.700000	
20.000000	180.000000	73.113060	-23.138440	84.426860	25.079040	21.211610	-4.930990	91.835790	707.590030	42.700000	
