FileType=PCF
NHL=14
Date=03/14/19	13:38:59
Facility=APL
Serial=16071-9
Customer=NASA
NP=6
Mach=0.380000
Calibration=1:1
CalPts=490
TstPts=95
PortNumbering=AP Standard
Units=Torr C m/s kg/m^3 deg mm 
Theta[deg]	Phi[deg]	P1[Torr]	P2[Torr]	P3[Torr]	P4[Torr]	P5[Torr]	P6[Torr]	Pt[Torr]	Ps[Abs,Torr]	Ts[C]	
  0.000	  0.000	 66.99786	 28.26723	 29.18306	 28.95097	 27.64367	  0.57919	 66.91164	708.16998	 31.10	
  1.691	128.401	 67.02621	 25.71396	 31.35959	 31.73997	 24.71907	  0.45821	 66.96892	708.27002	 31.10	
  1.692	 77.194	 67.01528	 29.07701	 28.24874	 32.41355	 24.09430	  0.58600	 66.94945	708.23999	 31.20	
  1.699	 26.182	 67.06738	 31.69816	 25.83669	 30.48344	 26.08773	  0.63893	 66.99876	708.14001	 31.20	
  1.699	-26.182	 67.06571	 31.65943	 25.87431	 27.17957	 29.57170	  0.61098	 66.97707	708.13000	 31.20	
  1.692	-77.194	 67.03243	 28.99429	 28.37614	 25.24174	 31.58118	  0.48811	 66.96082	708.28998	 31.30	
  1.691	-128.401	 67.05110	 25.67064	 31.49209	 25.99075	 30.76152	  0.38343	 66.98498	708.28998	 31.30	
  1.700	180.000	 67.04157	 24.30063	 32.84701	 28.92412	 27.47603	  0.37771	 66.96767	708.25000	 31.40	
  3.400	180.000	 66.93587	 20.45451	 36.36102	 28.71723	 27.07813	  0.04864	 67.01697	708.15002	 31.40	
  3.388	-152.325	 66.92210	 21.21836	 35.55698	 25.24377	 30.88643	  0.05746	 66.96450	708.15002	 31.40	
  3.397	-124.529	 66.94711	 23.49669	 33.20344	 22.66559	 33.75790	  0.09941	 66.96907	708.35999	 31.50	
  3.399	-96.763	 66.99146	 26.86893	 29.86596	 21.43198	 35.17314	  0.17550	 66.98362	708.31000	 31.50	
  3.394	-69.283	 67.01250	 30.56242	 26.40643	 21.81207	 34.83786	  0.30248	 67.00635	708.23999	 31.60	
  3.400	-41.398	 67.01042	 33.64465	 23.50929	 23.67401	 32.82443	  0.43505	 67.00061	708.27002	 31.60	
  3.401	-14.021	 67.02985	 35.37614	 21.91784	 26.70554	 29.56373	  0.55344	 67.02908	708.32001	 31.60	
  3.401	 14.021	 66.95940	 35.40155	 21.83472	 30.37476	 25.71230	  0.58714	 66.99173	708.21997	 31.70	
  3.400	 41.398	 66.96291	 33.82631	 23.34026	 33.54353	 22.63575	  0.55618	 67.00996	708.33002	 31.70	
  3.394	 69.283	 66.95826	 30.80639	 26.15614	 35.59551	 20.67590	  0.47098	 67.03809	708.27002	 31.70	
  3.399	 96.763	 66.97155	 27.05250	 29.62916	 36.03582	 20.26111	  0.37026	 67.06133	708.29999	 31.80	
  3.397	124.529	 66.97017	 23.67853	 33.00492	 34.79768	 21.33516	  0.25395	 67.06610	708.34998	 31.80	
  3.388	152.325	 66.97903	 21.34307	 35.45584	 32.09229	 23.86614	  0.14107	 67.06567	708.28003	 31.80	
  5.099	161.165	 66.56312	 17.12322	 39.07993	 31.83474	 23.13977	 -0.30867	 67.05131	708.28998	 31.90	
  5.109	142.013	 66.57620	 18.84571	 37.22068	 35.16033	 20.08554	 -0.20975	 67.06952	708.33002	 31.90	
  5.095	123.033	 66.58603	 21.47812	 34.40464	 37.66455	 17.96239	 -0.04768	 67.07310	708.25000	 31.90	
  5.105	104.191	 66.55364	 24.70483	 30.96250	 39.20256	 16.65500	  0.02491	 67.04295	708.23999	 32.00	
  5.093	 85.207	 66.59875	 28.52100	 27.33062	 39.48385	 16.51682	  0.10644	 67.05132	708.28003	 32.00	
  5.104	 66.290	 66.58327	 32.28333	 23.90357	 38.51535	 17.39645	  0.22674	 67.03403	708.32001	 32.00	
  5.094	 47.331	 66.64140	 35.43138	 21.06666	 36.36129	 19.32326	  0.29597	 67.05197	708.28998	 32.10	
  5.089	 28.397	 66.65765	 37.65416	 19.03075	 33.39961	 22.08250	  0.40893	 67.03746	708.27002	 32.10	
  5.096	  9.576	 66.72388	 38.86947	 17.98891	 29.94453	 25.42427	  0.37203	 67.06665	708.23999	 32.10	
  5.096	 -9.576	 66.73207	 38.83729	 18.01136	 26.20072	 29.03904	  0.32911	 67.04705	708.16998	 32.10	
  5.089	-28.397	 66.77015	 37.51740	 19.16228	 22.85247	 32.90000	  0.23816	 67.06876	708.09998	 32.20	
  5.094	-47.331	 66.77576	 35.15646	 21.25795	 20.14127	 35.86670	  0.09780	 67.06535	708.22998	 32.20	
  5.104	-66.290	 66.79657	 32.00507	 24.22981	 18.35535	 37.82241	 -0.04690	 67.09341	708.15997	 32.30	
  5.093	-85.207	 66.82085	 28.24248	 27.77147	 17.63539	 38.60598	 -0.17302	 67.08817	708.26001	 32.30	
  5.105	-104.191	 66.79128	 24.44739	 31.42236	 17.94174	 38.17317	 -0.26118	 67.08454	708.16998	 32.30	
  5.095	-123.033	 66.76197	 21.20250	 34.78631	 19.32316	 36.57723	 -0.32245	 67.08673	708.16998	 32.40	
  5.109	-142.013	 66.69305	 18.60627	 37.52688	 21.58852	 33.96972	 -0.35481	 67.05000	708.15997	 32.40	
  5.099	-161.165	 66.70146	 17.03895	 39.28290	 24.72415	 30.48455	 -0.38367	 67.09895	708.20001	 32.40	
  5.100	180.000	 66.64635	 16.54209	 39.79490	 28.32490	 26.56107	 -0.38426	 67.09167	708.16998	 32.40	
  6.800	180.000	 66.02901	 12.59248	 42.99336	 27.68045	 25.76839	 -0.89296	 67.08453	708.13000	 32.50	
  6.796	-166.229	 66.11066	 12.94860	 42.64605	 24.25129	 29.37588	 -0.88866	 67.10530	708.21002	 32.50	
  6.808	-152.311	 66.16356	 14.03000	 41.43800	 20.98139	 33.26816	 -0.83874	 67.10606	708.39001	 32.50	
  6.795	-138.383	 66.20805	 15.88870	 39.36889	 18.27767	 36.35859	 -0.83555	 67.11065	708.26001	 32.50	
  6.792	-124.591	 66.22274	 18.35218	 36.64722	 16.21196	 38.79780	 -0.86444	 67.07763	708.26001	 32.60	
  6.787	-110.754	 66.23054	 21.34880	 33.40500	 14.62001	 40.67752	 -0.83826	 67.06791	708.28998	 32.60	
  6.800	-96.985	 66.28218	 24.69835	 29.91162	 13.75915	 41.79676	 -0.77045	 67.10910	708.27002	 32.60	
  6.800	-83.015	 66.26923	 28.43805	 26.30231	 13.68790	 41.90829	 -0.72888	 67.09713	708.15002	 32.70	
  6.787	-69.246	 66.31113	 32.09964	 23.00950	 14.45581	 41.09380	 -0.58919	 67.10781	708.16998	 32.70	
  6.792	-55.409	 66.29960	 35.39851	 19.94689	 15.90131	 39.41063	 -0.46867	 67.09901	708.16998	 32.70	
  6.795	-41.617	 66.29666	 38.18228	 17.44212	 18.03889	 37.05904	 -0.35725	 67.13525	708.26001	 32.70	
  6.808	-27.689	 66.26949	 40.43677	 15.55440	 20.76263	 34.07745	 -0.20682	 67.12856	708.21997	 32.70	
  6.796	-13.771	 66.26384	 41.81910	 14.39266	 24.04751	 30.46099	 -0.08187	 67.13493	708.31000	 32.70	
  6.800	  0.000	 66.22768	 42.26134	 13.93610	 27.55831	 26.67251	 -0.08227	 67.12469	708.21002	 32.70	
  6.796	 13.771	 66.18948	 41.89568	 14.26966	 31.17463	 23.23712	 -0.04476	 67.13877	708.26001	 32.80	
  6.808	 27.689	 66.10065	 40.64558	 15.30883	 34.60896	 19.97039	 -0.00629	 67.09350	708.33002	 32.80	
  6.795	 41.617	 66.03088	 38.49913	 17.07539	 37.59050	 17.21206	 -0.12138	 67.06857	708.27002	 32.80	
  6.792	 55.409	 66.04925	 35.80106	 19.53243	 40.09628	 15.04697	 -0.18584	 67.11514	708.23999	 32.80	
  6.787	 69.246	 66.02799	 32.55652	 22.45635	 41.83770	 13.52589	 -0.26920	 67.11584	708.17999	 32.90	
  6.800	 83.015	 65.97211	 28.87956	 25.70740	 42.70927	 12.67028	 -0.36771	 67.08851	708.29999	 32.90	
  6.800	 96.985	 65.98671	 25.16846	 29.28385	 42.75123	 12.60839	 -0.46515	 67.11810	708.10999	 32.90	
  6.787	110.754	 65.97349	 21.81062	 32.80210	 41.92096	 13.28242	 -0.48848	 67.11250	708.14001	 32.90	
  6.792	124.591	 65.94804	 18.73441	 36.04996	 40.26050	 14.58416	 -0.53095	 67.11359	708.08002	 33.00	
  6.795	138.383	 65.98557	 16.22455	 38.85060	 37.79340	 16.64372	 -0.46694	 67.11550	708.20001	 33.00	
  6.808	152.311	 65.98035	 14.27474	 41.08823	 34.74067	 19.30618	 -0.80259	 67.11255	708.28998	 33.00	
  6.796	166.229	 66.02513	 13.06179	 42.47549	 31.27140	 22.42778	 -0.85468	 67.12289	708.19000	 33.00	
  8.491	168.704	 65.15340	  8.99226	 45.63735	 30.55048	 21.49848	 -1.36893	 67.13313	708.15002	 33.00	
  8.502	157.493	 65.08347	  9.90423	 44.46848	 34.15792	 18.27559	 -1.37843	 67.12714	708.17999	 33.00	
  8.494	146.194	 65.07121	 11.54829	 42.50989	 37.46166	 15.40418	 -1.18583	 67.11028	708.13000	 33.10	
  8.495	135.039	 65.11404	 13.68649	 40.09517	 40.36264	 13.02495	 -1.02416	 67.14243	708.19000	 33.10	
  8.487	123.723	 65.07767	 16.33156	 37.10224	 42.73551	 11.01407	 -1.04763	 67.11535	708.20001	 33.10	
  8.492	112.575	 65.09581	 19.29697	 33.87785	 44.48695	  9.63492	 -1.01049	 67.13840	708.17999	 33.10	
  8.510	101.220	 65.07844	 22.67373	 30.22204	 45.63528	  8.76345	 -1.04927	 67.10443	708.19000	 33.10	
  8.500	 90.000	 65.10220	 26.22448	 26.62732	 45.98987	  8.62243	 -1.00328	 67.12466	708.15997	 33.10	
  8.510	 78.780	 65.11272	 29.93449	 23.16320	 45.63456	  8.83462	 -0.90962	 67.12393	708.10999	 33.10	
  8.492	 67.425	 65.13476	 33.68076	 19.87462	 44.39780	  9.85271	 -0.83312	 67.12373	708.15997	 33.20	
  8.487	 56.277	 65.16166	 36.94491	 16.99011	 42.57516	 11.44631	 -0.78118	 67.10710	708.21997	 33.20	
  8.495	 44.961	 65.20438	 39.86279	 14.46984	 40.19893	 13.55674	 -0.66233	 67.11937	708.15002	 33.20	
  8.494	 33.806	 65.29296	 42.19984	 12.57701	 37.35061	 16.20280	 -0.52171	 67.14076	708.27002	 33.20	
  8.502	 22.507	 65.30470	 43.82369	 11.11457	 34.03637	 19.21584	 -0.51191	 67.12581	708.25000	 33.20	
  8.491	 11.296	 65.38457	 44.98067	 10.25648	 30.43060	 22.56324	 -0.54998	 67.15014	708.09998	 33.20	
  8.500	  0.000	 65.39651	 45.36411	 10.02257	 26.74206	 26.02168	 -0.57539	 67.11333	708.26001	 33.20	
  8.491	-11.296	 65.43793	 44.90480	 10.40311	 23.17495	 29.69835	 -0.62165	 67.11996	708.20001	 33.20	
  8.502	-22.507	 65.49864	 43.69814	 11.31196	 19.87380	 33.58048	 -0.70012	 67.17070	708.25000	 33.30	
  8.494	-33.806	 65.52972	 41.91171	 12.92706	 16.99208	 36.81490	 -0.89196	 67.13573	708.19000	 33.30	
  8.495	-44.961	 65.55386	 39.42688	 14.95048	 14.46909	 39.66542	 -1.01529	 67.12330	708.20001	 33.30	
  8.487	-56.277	 65.54350	 36.45247	 17.58094	 12.38036	 42.07727	 -1.08703	 67.13496	708.20001	 33.30	
  8.492	-67.425	 65.50905	 33.15609	 20.54213	 10.81183	 43.84509	 -1.22488	 67.11947	708.23999	 33.30	
  8.510	-78.780	 65.53053	 29.45229	 23.89799	  9.89726	 44.55818	 -1.35198	 67.15443	708.20001	 33.30	
  8.500	-90.000	 65.52749	 25.65696	 27.40385	  9.67557	 44.85531	 -1.36804	 67.13919	708.25000	 33.40	
  8.510	-101.220	 65.48658	 22.15350	 31.00708	  9.97971	 44.39473	 -1.38243	 67.14629	708.28003	 33.40	
  8.492	-112.575	 65.50156	 18.83635	 34.57948	 11.01950	 43.39891	 -1.43574	 67.15544	708.17999	 33.40	
  8.487	-123.723	 65.50626	 15.93755	 37.83242	 12.52231	 41.44145	 -1.36786	 67.17802	708.12000	 33.40	
  8.495	-135.039	 65.42467	 13.33035	 40.69790	 14.50618	 38.87448	 -1.43797	 67.12928	708.17999	 33.40	
  8.494	-146.194	 65.37873	 11.28057	 43.03614	 17.07723	 35.94157	 -1.39775	 67.12807	708.25000	 33.40	
  8.502	-157.493	 65.33700	  9.75374	 44.80431	 20.07681	 32.49341	 -1.43635	 67.14536	708.16998	 33.50	
  8.491	-168.704	 65.24584	  8.88680	 45.81953	 23.41472	 28.53680	 -1.48139	 67.11550	708.31000	 33.50	
  8.500	180.000	 65.19796	  8.60733	 46.13520	 26.94228	 24.86071	 -1.47712	 67.13788	708.25000	 33.50	
 10.200	180.000	 64.11759	  4.56175	 49.00699	 26.13089	 23.84207	 -2.03670	 67.14749	708.26001	 33.50	
 10.191	-170.497	 64.20815	  4.74433	 48.78455	 22.53884	 27.46670	 -2.05727	 67.16203	708.15997	 33.50	
 10.210	-161.034	 64.24188	  5.45924	 47.93905	 19.04268	 31.37857	 -2.07337	 67.14038	708.28003	 33.50	
 10.194	-151.526	 64.31255	  6.83531	 46.41906	 15.94222	 35.10445	 -1.96113	 67.14475	708.26001	 33.50	
 10.190	-142.105	 64.35511	  8.55573	 44.35571	 13.16766	 38.38180	 -1.97422	 67.14478	708.14001	 33.50	
 10.215	-132.646	 64.39729	 10.76369	 41.80423	 10.77097	 41.28884	 -2.04499	 67.14284	708.20001	 33.60	
 10.203	-123.092	 64.43635	 13.39581	 38.76013	  8.85800	 43.83372	 -2.05348	 67.14923	708.32001	 33.60	
 10.192	-113.678	 64.45903	 16.30984	 35.49300	  7.41925	 45.49548	 -2.02824	 67.14767	708.19000	 33.60	
 10.208	-104.249	 64.44441	 19.45147	 31.98357	  6.39813	 46.96896	 -1.98375	 67.13602	708.19000	 33.60	
 10.210	-94.801	 64.41992	 22.87416	 28.32183	  5.83648	 47.74541	 -1.97563	 67.11327	708.20001	 33.60	
 10.210	-85.199	 64.47305	 26.54665	 24.69943	  5.81092	 47.86293	 -1.97733	 67.13083	708.31000	 33.60	
 10.208	-75.751	 64.50801	 30.36626	 21.26993	  6.33745	 47.31122	 -1.95018	 67.14539	708.29999	 33.60	
 10.192	-66.322	 64.50944	 34.00016	 18.01001	  7.29230	 46.10424	 -1.92256	 67.13049	708.15997	 33.60	
 10.203	-56.908	 64.50980	 37.32831	 15.04915	  8.70008	 44.61013	 -1.75801	 67.14050	708.10999	 33.70	
 10.215	-47.354	 64.54881	 40.45478	 12.47907	 10.63882	 42.25850	 -1.69985	 67.16027	708.21997	 33.70	
 10.190	-37.895	 64.51775	 43.00618	 10.26568	 12.99475	 39.44968	 -1.64946	 67.14749	708.17999	 33.70	
 10.194	-28.474	 64.48078	 45.24038	  8.51394	 15.77170	 36.26872	 -1.42421	 67.13599	708.13000	 33.70	
 10.210	-18.966	 64.42156	 46.97934	  7.21854	 18.84589	 32.75690	 -1.26434	 67.14426	708.15997	 33.70	
 10.191	 -9.503	 64.41949	 48.01553	  6.57220	 22.34672	 28.82769	 -1.28047	 67.14661	708.07001	 33.70	
 10.200	  0.000	 64.33542	 48.39247	  6.15692	 25.84700	 25.15538	 -1.11777	 67.10726	708.09003	 33.70	
 10.191	  9.503	 64.32803	 48.13602	  6.24740	 29.45208	 21.67990	 -1.10404	 67.15379	708.14001	 33.80	
 10.210	 18.966	 64.27242	 47.21056	  6.88632	 33.21812	 18.21712	 -1.12886	 67.17949	708.17999	 33.80	
 10.194	 28.474	 64.20996	 45.55052	  8.07880	 36.69075	 15.05420	 -1.18595	 67.17234	708.28998	 33.80	
 10.190	 37.895	 64.13599	 43.41875	  9.73438	 39.75216	 12.26651	 -1.20491	 67.11881	708.09998	 33.80	
 10.215	 47.354	 64.10574	 40.98238	 11.78676	 42.60675	  9.75509	 -1.48894	 67.16813	708.19000	 33.80	
 10.203	 56.908	 63.99266	 37.89983	 14.26848	 44.99426	  7.70675	 -1.57199	 67.10705	708.15002	 33.80	
 10.192	 66.322	 63.99418	 34.61079	 17.15892	 46.90696	  6.13013	 -1.58794	 67.13943	708.16998	 33.80	
 10.208	 75.751	 63.98654	 30.94445	 20.38342	 48.26517	  5.12871	 -1.58695	 67.15556	708.09998	 33.80	
 10.210	 85.199	 63.97569	 27.20485	 23.80936	 48.93472	  4.61886	 -1.65300	 67.14907	708.17999	 33.80	
 10.210	 94.801	 63.96216	 23.54179	 27.39635	 48.95563	  4.54501	 -1.71073	 67.15057	708.04999	 33.80	
 10.208	104.249	 63.95350	 20.06014	 31.07226	 48.38051	  4.95209	 -1.70041	 67.17600	708.00000	 33.80	
 10.192	113.678	 63.93995	 16.85789	 34.61060	 47.04472	  5.93735	 -1.70732	 67.14956	708.09998	 33.90	
 10.203	123.092	 63.93245	 13.92441	 37.92746	 45.16053	  7.31204	 -1.71924	 67.13600	708.03998	 33.90	
 10.215	132.646	 63.95518	 11.30262	 40.98716	 42.79161	  9.16845	 -1.77449	 67.12302	708.03998	 33.90	
 10.190	142.105	 63.96732	  9.05963	 43.63962	 39.97575	 11.63994	 -1.89436	 67.13885	708.04999	 33.90	
 10.194	151.526	 63.94089	  7.25641	 45.82610	 36.86241	 14.15465	 -1.96725	 67.12057	708.15997	 33.90	
 10.210	161.034	 64.00163	  5.88152	 47.55079	 33.39368	 17.23893	 -1.99160	 67.14381	708.13000	 33.90	
 10.191	170.497	 64.05923	  4.93308	 48.59011	 29.67063	 20.50455	 -2.02674	 67.13185	708.09003	 34.00	
 11.899	171.783	 62.72773	  1.37479	 51.28120	 28.57545	 19.41284	 -2.60228	 67.12357	708.08002	 34.00	
 11.890	163.610	 62.66541	  2.07157	 50.33405	 32.35078	 16.05568	 -2.56408	 67.10552	708.17999	 34.00	
 11.889	155.445	 62.61127	  3.16284	 48.87384	 35.93661	 12.92993	 -2.63298	 67.13602	708.21002	 34.00	
 11.909	147.299	 62.56758	  4.58512	 46.94263	 39.20906	 10.13023	 -2.64658	 67.11871	708.15002	 34.00	
 11.902	139.148	 62.58082	  6.41743	 44.52254	 42.26675	  7.58236	 -2.56847	 67.13751	708.21002	 34.00	
 11.894	130.867	 62.55669	  8.61194	 41.72670	 45.00481	  5.36197	 -2.48016	 67.14386	708.06000	 34.00	
 11.897	122.732	 62.53518	 11.18500	 38.60453	 47.40490	  3.67800	 -2.42654	 67.12298	708.09998	 34.00	
 11.903	114.597	 62.56675	 14.09007	 35.29559	 49.31254	  2.32819	 -2.39902	 67.16088	708.21002	 34.10	
 11.893	106.346	 62.56270	 17.33717	 31.73371	 50.62877	  1.48244	 -2.50521	 67.13578	708.15997	 34.10	
 11.892	 98.155	 62.57846	 20.76493	 28.01770	 51.44988	  0.86256	 -2.55542	 67.14245	708.16998	 34.10	
 11.900	 90.000	 62.59767	 24.28064	 24.44625	 51.73709	  0.65504	 -2.47853	 67.14738	708.19000	 34.10	
 11.892	 81.845	 62.63269	 27.89208	 20.95809	 51.40762	  0.93219	 -2.27503	 67.16047	708.02002	 34.10	
 11.893	 73.654	 62.62189	 31.67645	 17.52616	 50.51437	  1.66484	 -2.21939	 67.11694	708.02002	 34.10	
 11.903	 65.403	 62.61769	 35.36798	 14.34089	 49.13066	  2.61767	 -2.32624	 67.13719	708.21997	 34.10	
 11.897	 57.268	 62.65791	 38.69909	 11.52275	 47.20637	  4.05503	 -2.43113	 67.12420	708.12000	 34.10	
 11.894	 49.133	 62.72346	 41.78553	  9.11229	 44.75248	  5.99259	 -2.31703	 67.13893	708.16998	 34.10	
 11.902	 40.852	 62.80183	 44.37532	  6.93706	 41.98345	  8.29124	 -2.08041	 67.14802	708.21002	 34.10	
 11.909	 32.701	 62.83871	 46.83801	  5.12710	 38.88810	 11.42969	 -1.87763	 67.14287	708.13000	 34.10	
 11.889	 24.555	 62.88428	 48.72966	  3.81732	 35.60440	 13.93166	 -1.84774	 67.12209	708.20001	 34.10	
 11.890	 16.390	 62.96825	 50.10478	  2.92889	 32.04745	 17.22113	 -1.89870	 67.14227	708.14001	 34.20	
 11.899	  8.217	 63.03651	 50.92686	  2.37511	 28.27528	 20.69113	 -1.84200	 67.15837	708.16998	 34.20	
 11.900	  0.000	 63.08232	 51.17226	  2.17831	 24.74972	 24.20730	 -1.87104	 67.14606	708.21997	 34.20	
 11.899	 -8.217	 63.09127	 50.80494	  2.51656	 21.17657	 27.87881	 -1.97941	 67.12014	708.03003	 34.20	
 11.890	-16.390	 63.18103	 49.90086	  3.26141	 17.75322	 31.70435	 -2.06565	 67.17726	708.22998	 34.20	
 11.889	-24.555	 63.19878	 48.43283	  4.22064	 14.58143	 35.38767	 -2.18116	 67.14214	708.15002	 34.20	
 11.909	-32.701	 63.21966	 46.43556	  5.64879	 11.62521	 38.79742	 -2.36915	 67.15812	708.17999	 34.20	
 11.902	-40.852	 63.22547	 43.86391	  7.56117	  9.11132	 41.81684	 -2.34366	 67.12579	708.21997	 34.30	
 11.894	-49.133	 63.23481	 41.20094	  9.88034	  6.96380	 44.53104	 -2.37996	 67.12061	708.32001	 34.30	
 11.897	-57.268	 63.25978	 38.08723	 12.43953	  5.20299	 46.57620	 -2.41957	 67.13963	708.15997	 34.30	
 11.903	-65.403	 63.25567	 34.75480	 15.28452	  3.62899	 48.50200	 -2.55191	 67.15245	708.19000	 34.30	
 11.893	-73.654	 63.23520	 31.04657	 18.51384	  2.59774	 49.79691	 -2.57968	 67.13630	708.13000	 34.30	
 11.892	-81.845	 63.22764	 27.21639	 21.98616	  1.99804	 50.52382	 -2.59324	 67.15688	708.15002	 34.30	
 11.900	-90.000	 63.19114	 23.57143	 25.50656	  1.82253	 50.69902	 -2.53112	 67.11656	708.04999	 34.30	
 11.892	-98.155	 63.18311	 20.10331	 29.07475	  2.07906	 50.30014	 -2.53811	 67.15972	708.10999	 34.30	
 11.893	-106.346	 63.17285	 16.74752	 32.73955	  2.70824	 49.31189	 -2.58600	 67.15707	708.20001	 34.30	
 11.903	-114.597	 63.15804	 13.57384	 36.27592	  3.75502	 47.75087	 -2.61445	 67.11539	708.22998	 34.30	
 11.897	-122.732	 63.14317	 10.70737	 39.56030	  5.24336	 45.63765	 -2.58213	 67.12262	708.15997	 34.30	
 11.894	-130.867	 63.07651	  8.07161	 42.61598	  7.05476	 43.41414	 -2.56530	 67.10760	708.14001	 34.40	
 11.902	-139.148	 63.07564	  5.73343	 45.36059	  9.25414	 40.62878	 -2.57301	 67.14155	708.19000	 34.40	
 11.909	-147.299	 63.04493	  3.85880	 47.67112	 11.84862	 37.41974	 -2.57891	 67.12830	708.16998	 34.40	
 11.889	-155.445	 63.02124	  2.45961	 49.47989	 14.86120	 33.84302	 -2.61191	 67.13496	708.12000	 34.40	
 11.890	-163.610	 62.95055	  1.39380	 50.76309	 18.02850	 29.92309	 -2.68449	 67.15264	708.10999	 34.40	
 11.899	-171.783	 62.84656	  0.84223	 51.48623	 21.49428	 26.26037	 -2.72239	 67.13297	708.10999	 34.40	
 11.900	180.000	 62.76650	  0.97027	 51.68341	 25.11160	 22.72404	 -2.66666	 67.09888	708.02002	 34.40	
 13.600	180.000	 61.18808	 -2.91512	 54.18389	 23.82907	 21.42068	 -3.21723	 67.11639	708.03998	 34.40	
 13.608	-172.853	 61.22648	 -3.06424	 54.03051	 20.31466	 24.81824	 -3.24521	 67.10297	708.03998	 34.40	
 13.611	-165.583	 61.33212	 -2.70053	 53.41755	 16.77173	 28.49873	 -3.19986	 67.13516	708.03998	 34.40	
 13.601	-158.353	 61.43492	 -1.75584	 52.28179	 13.58773	 32.23379	 -3.10624	 67.11274	707.98999	 34.40	
 13.609	-151.210	 61.49026	 -0.48278	 50.65886	 10.60292	 36.09501	 -3.05654	 67.12163	708.09998	 34.40	
 13.611	-143.999	 61.53528	  1.07801	 48.57396	  7.87061	 39.58637	 -3.02422	 67.11880	708.06000	 34.40	
 13.601	-136.825	 61.58290	  3.10469	 46.06667	  5.43158	 42.60597	 -2.91893	 67.08742	708.17999	 34.40	
 13.596	-129.640	 61.61700	  5.35134	 43.29754	  3.31246	 45.36464	 -2.86636	 67.10271	708.13000	 34.40	
 13.611	-122.431	 61.64084	  7.99001	 40.21008	  1.43336	 47.75682	 -2.81974	 67.13999	708.10999	 34.50	
 13.604	-115.211	 61.61450	 10.74238	 36.81644	  0.05917	 49.87059	 -2.79840	 67.11009	708.14001	 34.50	
 13.595	-108.042	 61.58444	 13.79895	 33.28878	 -1.02825	 51.43121	 -2.78932	 67.10365	708.21002	 34.50	
 13.607	-100.793	 61.58620	 17.06474	 29.62557	 -1.83305	 52.57640	 -2.75068	 67.11166	708.13000	 34.50	
 13.601	-93.617	 61.57022	 20.52387	 25.98299	 -2.19199	 53.15841	 -2.80403	 67.09764	708.21002	 34.50	
 13.601	-86.383	 61.62215	 24.04513	 22.46819	 -2.11640	 53.26996	 -2.81883	 67.10863	708.07001	 34.50	
 13.607	-79.207	 61.62982	 27.69969	 18.96400	 -1.77246	 52.88717	 -2.83097	 67.11346	708.12000	 34.50	
 13.595	-71.958	 61.65538	 31.51319	 15.58399	 -1.08114	 52.01136	 -2.89128	 67.10182	708.08002	 34.50	
 13.604	-64.789	 61.66276	 35.18468	 12.51305	 -0.09926	 50.65512	 -2.87913	 67.10307	708.19000	 34.50	
 13.611	-57.569	 61.68293	 38.61824	  9.70210	  1.26090	 48.76663	 -2.92453	 67.09692	708.03003	 34.50	
 13.596	-50.360	 61.71697	 41.83939	  7.09578	  2.99541	 46.34674	 -2.98649	 67.11076	708.07001	 34.60	
 13.601	-43.175	 61.69719	 44.55381	  4.68814	  5.16530	 43.89346	 -2.94258	 67.11153	708.09998	 34.60	
 13.611	-36.001	 61.69077	 47.27294	  2.72920	  7.51779	 41.09831	 -2.96425	 67.12585	708.25000	 34.60	
 13.609	-28.790	 61.66246	 49.52879	  1.12167	 10.23303	 37.79006	 -2.84017	 67.09911	708.21002	 34.60	
 13.601	-21.647	 61.63133	 51.28558	 -0.03509	 13.27687	 34.17471	 -2.71370	 67.09567	708.07001	 34.60	
 13.611	-14.417	 61.58999	 52.60047	 -0.86662	 16.45243	 30.32127	 -2.63479	 67.12778	708.17999	 34.60	
 13.608	 -7.147	 61.53787	 53.39331	 -1.53334	 19.89494	 26.64732	 -2.58601	 67.10810	708.14001	 34.60	
 13.600	  0.000	 61.50520	 53.69711	 -1.84844	 23.41284	 22.99489	 -2.59553	 67.12211	708.06000	 34.60	
 13.608	  7.147	 61.42259	 53.47749	 -1.67305	 26.89240	 19.53256	 -2.63761	 67.08540	707.92999	 34.60	
 13.611	 14.417	 61.36416	 52.80044	 -1.25044	 30.62098	 15.97759	 -2.59925	 67.11783	708.04999	 34.60	
 13.601	 21.647	 61.27049	 51.55697	 -0.45954	 34.31004	 12.66101	 -2.53114	 67.07774	708.08002	 34.70	
 13.609	 28.790	 61.21616	 49.90217	  0.64438	 37.71069	  9.74296	 -2.53523	 67.07439	708.02002	 34.70	
 13.611	 36.001	 61.22225	 47.75265	  2.14242	 41.08792	  6.76031	 -2.67478	 67.16592	708.08002	 34.60	
 13.601	 43.175	 61.11533	 45.08305	  3.93283	 44.00025	  4.30662	 -2.92862	 67.11664	707.98999	 34.70	
 13.596	 50.360	 61.03902	 42.45419	  6.09295	 46.75360	  2.17227	 -3.16534	 67.09060	707.95001	 34.70	
 13.611	 57.569	 61.00602	 39.31824	  8.62639	 49.16640	  0.40362	 -3.24348	 67.10664	708.06000	 34.70	
 13.604	 64.789	 60.97925	 35.90562	 11.43766	 51.15269	 -0.96230	 -3.14941	 67.13274	708.07001	 34.70	
 13.595	 71.958	 60.94267	 32.20258	 14.49643	 52.60030	 -2.04362	 -2.99410	 67.11344	708.08002	 34.70	
 13.607	 79.207	 60.92997	 28.43798	 17.79160	 53.63494	 -2.85645	 -3.02649	 67.12076	708.13000	 34.70	
 13.601	 86.383	 60.92639	 24.78919	 21.29320	 54.16562	 -3.30343	 -3.14050	 67.12914	708.12000	 34.70	
 13.601	 93.617	 60.90986	 21.28847	 24.81836	 54.19813	 -3.27315	 -3.34313	 67.13706	708.12000	 34.70	
 13.607	100.793	 60.86495	 17.82661	 28.39627	 53.74301	 -2.95863	 -3.22512	 67.11053	708.09998	 34.70	
 13.595	108.042	 60.85069	 14.37038	 32.08467	 52.76408	 -2.31096	 -3.15481	 67.10233	708.19000	 34.70	
 13.604	115.211	 60.83582	 11.22072	 35.62769	 51.33821	 -1.36235	 -3.12057	 67.09850	708.13000	 34.70	
 13.611	122.431	 60.85745	  8.47029	 39.06276	 49.44293	 -0.06696	 -3.06286	 67.11348	708.14001	 34.70	
 13.596	129.640	 60.85266	  5.84185	 42.20868	 47.05254	  1.57333	 -3.11405	 67.07493	707.98999	 34.70	
 13.601	136.825	 60.88235	  3.59369	 45.09452	 44.32193	  3.52384	 -3.22974	 67.07162	708.06000	 34.70	
 13.611	143.999	 60.90009	  1.73161	 47.70263	 41.42202	  5.88062	 -3.30683	 67.09742	708.15002	 34.70	
 13.609	151.210	 60.92021	  0.13399	 49.94041	 38.10526	  8.60652	 -3.24770	 67.08349	708.15997	 34.70	
 13.601	158.353	 60.94731	 -1.23542	 51.68954	 34.71908	 11.98906	 -3.12181	 67.10041	708.09003	 34.80	
 13.611	165.583	 61.02461	 -2.06960	 52.99991	 30.98741	 14.62324	 -3.05197	 67.09225	708.10999	 34.80	
 13.608	172.853	 61.10861	 -2.65241	 53.85104	 27.30573	 18.02301	 -3.11101	 67.12357	708.15997	 34.70	
 15.298	173.587	 59.28520	 -6.67974	 56.15034	 25.85947	 16.52936	 -3.40086	 67.10236	708.03998	 34.80	
 15.291	167.167	 59.20799	 -6.15932	 55.36829	 29.44650	 13.13749	 -3.45000	 67.08491	708.15997	 34.80	
 15.307	160.676	 59.12936	 -5.41988	 54.22001	 33.20863	 10.44415	 -3.53705	 67.12508	708.08002	 34.80	
 15.300	154.261	 59.07294	 -4.28259	 52.61645	 36.77287	  7.07352	 -3.73462	 67.08181	708.04999	 34.80	
 15.288	147.854	 59.05529	 -2.79830	 50.60335	 40.20358	  4.32714	 -3.89648	 67.09696	708.13000	 34.70	
 15.293	141.428	 59.04788	 -1.04480	 48.18384	 43.38158	  1.88361	 -3.92931	 67.09431	708.15997	 34.70	
 15.299	134.985	 59.06294	  0.89999	 45.44473	 46.22138	 -0.29096	 -3.81825	 67.08396	708.09003	 34.70	
 15.305	128.583	 58.99602	  3.08201	 42.51036	 48.93176	 -2.16860	 -3.74691	 67.09455	708.06000	 34.70	
 15.309	122.142	 58.97177	  5.57197	 39.26517	 51.27657	 -3.74346	 -3.70815	 67.09363	708.00000	 34.80	
 15.304	115.711	 58.92805	  8.52373	 35.79329	 53.16195	 -5.04170	 -3.80013	 67.07305	708.08002	 34.80	
 15.297	109.291	 58.95865	 11.56946	 32.24096	 54.64376	 -5.96086	 -4.00923	 67.10391	708.03003	 34.80	
 15.293	102.897	 58.96670	 14.66101	 28.63249	 55.69982	 -6.62070	 -4.19085	 67.08822	708.08002	 34.80	
 15.293	 96.458	 58.98419	 18.21126	 24.94982	 56.30882	 -7.00070	 -4.19036	 67.06745	708.09998	 34.80	
 15.300	 90.000	 59.00597	 21.62597	 21.45384	 56.51937	 -7.13911	 -4.00643	 67.08142	708.07001	 34.80	
 15.293	 83.542	 59.01757	 25.13514	 18.02168	 56.27647	 -7.09111	 -3.85770	 67.08440	708.09998	 34.80	
 15.293	 77.103	 59.00599	 28.80954	 14.63237	 55.52211	 -6.52829	 -3.81104	 67.06396	707.98999	 34.80	
 15.297	 70.709	 59.04777	 32.47256	 11.49582	 54.42052	 -5.74895	 -3.85948	 67.09163	708.08002	 34.90	
 15.304	 64.289	 59.08817	 36.20515	  8.53213	 52.89061	 -4.63305	 -3.97177	 67.09259	708.15997	 34.90	
 15.309	 57.858	 59.12903	 39.68513	  5.69842	 50.92767	 -3.20624	 -4.06118	 67.08858	708.10999	 34.90	
 15.305	 51.417	 59.18904	 42.88702	  3.20665	 48.51777	 -1.49562	 -3.98917	 67.07722	708.03003	 34.90	
 15.299	 45.015	 59.27448	 45.60014	  1.09349	 45.78468	  0.52568	 -3.80916	 67.08784	707.96997	 34.90	
 15.293	 38.572	 59.37241	 48.36726	 -0.74350	 42.87879	  2.83721	 -3.51580	 67.10841	708.04999	 34.90	
 15.288	 32.146	 59.42066	 50.72241	 -2.28889	 39.67994	  5.47527	 -3.31794	 67.08998	708.02002	 34.90	
 15.300	 25.739	 59.45161	 52.64772	 -3.60280	 36.26959	  8.31456	 -3.25600	 67.08300	708.15997	 34.90	
 15.307	 19.324	 59.48878	 54.10799	 -4.62757	 32.74999	 11.83712	 -3.24659	 67.06786	708.10999	 34.90	
 15.291	 12.833	 59.56094	 55.10413	 -5.14575	 29.02308	 14.69419	 -3.25377	 67.04858	708.06000	 34.90	
 15.298	  6.413	 59.65842	 55.77404	 -5.54041	 25.41677	 18.20544	 -3.19838	 67.09512	708.02002	 34.90	
 15.300	  0.000	 59.73285	 55.99648	 -5.61784	 21.91802	 21.71011	 -3.15765	 67.09840	708.10999	 34.90	
 15.298	 -6.413	 59.75304	 55.70835	 -5.41501	 18.38660	 25.35658	 -3.09176	 67.09673	708.13000	 34.90	
 15.291	-12.833	 59.81100	 54.97924	 -4.93842	 14.99984	 29.01864	 -3.11650	 67.13348	708.13000	 34.90	
 15.307	-19.324	 59.82023	 53.85777	 -4.24883	 11.81549	 32.53424	 -3.16543	 67.10551	708.15002	 34.90	
 15.300	-25.739	 59.86209	 52.30052	 -3.22872	  8.77374	 36.47793	 -3.19256	 67.10020	708.10999	 35.00	
 15.288	-32.146	 59.89904	 50.28165	 -1.82504	  6.04805	 39.94550	 -3.23768	 67.10726	708.07001	 35.00	
 15.293	-38.572	 59.91873	 47.82117	 -0.08414	  3.38930	 43.02086	 -3.27733	 67.05224	708.21002	 34.90	
 15.299	-45.015	 59.95928	 45.00406	  1.92726	  1.17586	 45.91454	 -3.32086	 67.11245	708.08002	 34.90	
 15.305	-51.417	 59.88589	 42.17134	  4.19660	 -0.78466	 48.35352	 -3.29332	 67.05943	708.12000	 35.00	
 15.309	-57.858	 59.88788	 38.94021	  6.79893	 -2.47055	 50.71625	 -3.13085	 67.08654	708.09003	 35.00	
 15.304	-64.289	 59.86038	 35.44100	  9.66745	 -3.86465	 52.56637	 -3.01012	 67.08187	708.16998	 35.00	
 15.297	-70.709	 59.85632	 31.72516	 12.69081	 -4.85495	 53.91545	 -2.95781	 67.05907	708.16998	 35.00	
 15.293	-77.103	 59.86666	 28.05581	 15.90001	 -5.52315	 54.87972	 -2.91245	 67.08994	708.09003	 35.00	
 15.293	-83.542	 59.82322	 24.38909	 19.31831	 -5.86608	 55.37281	 -2.86398	 67.04761	708.10999	 35.00	
 15.300	-90.000	 59.81644	 20.85522	 22.82516	 -6.04911	 55.49176	 -2.84861	 67.06678	708.12000	 35.00	
 15.293	-96.458	 59.78000	 17.38215	 26.39334	 -6.01430	 55.13671	 -2.85496	 67.07571	708.13000	 35.00	
 15.293	-102.897	 59.77437	 13.96462	 30.03397	 -5.49898	 54.38726	 -2.84502	 67.06493	708.08002	 35.00	
 15.297	-109.291	 59.80134	 10.81413	 33.65665	 -4.68365	 53.25747	 -2.83200	 67.05685	708.09998	 35.00	
 15.304	-115.711	 59.82851	  8.01602	 37.19330	 -3.65828	 51.68124	 -2.84573	 67.09066	708.16998	 35.00	
 15.309	-122.142	 59.84311	  5.00085	 40.60648	 -2.19085	 49.56741	 -2.87467	 67.11234	708.17999	 35.00	
 15.305	-128.583	 59.80729	  2.54349	 43.70372	 -0.46142	 46.98100	 -2.88208	 67.05205	708.15002	 35.00	
 15.299	-134.985	 59.80194	  0.37384	 46.57207	  1.49240	 44.35113	 -2.92163	 67.03843	708.12000	 35.00	
 15.293	-141.428	 59.76892	 -1.66462	 49.21239	  3.70541	 41.43161	 -2.99235	 67.07169	708.15002	 35.00	
 15.288	-147.854	 59.68450	 -3.52339	 51.47471	  6.21144	 38.10691	 -3.06980	 67.07192	708.20001	 35.00	
 15.300	-154.261	 59.59546	 -5.03538	 53.32220	  9.16866	 34.42186	 -3.13086	 67.07265	708.15002	 35.00	
 15.307	-160.676	 59.56216	 -6.14130	 54.80309	 12.18297	 30.52170	 -3.24833	 67.10426	708.21002	 35.00	
 15.291	-167.167	 59.49189	 -6.71594	 55.74155	 15.47478	 26.93039	 -3.36714	 67.07932	708.16998	 35.00	
 15.298	-173.587	 59.38865	 -6.99058	 56.30384	 18.98481	 23.27961	 -3.49806	 67.06557	708.15997	 35.00	
 15.300	180.000	 59.32516	 -6.79597	 56.42572	 22.48688	 19.82270	 -3.47899	 67.07561	708.20001	 35.00	
 17.000	180.000	 57.25219	-10.73887	 58.53527	 20.98937	 17.99415	 -3.73448	 67.06187	708.19000	 35.00	
 16.990	-174.179	 57.34039	-10.87569	 58.42870	 17.50775	 21.53308	 -3.62540	 67.06253	708.15997	 35.00	
 17.009	-168.383	 57.45496	-10.63231	 57.95862	 14.06513	 25.19630	 -3.48678	 67.09747	708.16998	 35.00	
 17.000	-162.596	 57.49932	-10.17855	 57.02739	 10.88266	 28.77114	 -3.27553	 67.04866	708.21002	 35.00	
 16.990	-156.759	 57.57916	 -9.23133	 55.70734	  7.69355	 32.43792	 -3.14345	 67.04066	708.19000	 35.00	
 16.995	-150.919	 57.66345	 -7.96764	 54.06436	  4.61912	 36.37330	 -3.05231	 67.07671	708.17999	 35.10	
 16.988	-145.161	 57.77053	 -6.32988	 52.06575	  2.09131	 39.84981	 -2.99420	 67.08392	708.23999	 35.10	
 17.014	-139.343	 57.75859	 -4.57677	 49.66666	 -0.32119	 43.09042	 -2.87236	 67.05923	708.15997	 35.10	
 17.007	-133.546	 57.79990	 -2.45566	 46.90931	 -2.33992	 45.90734	 -2.79612	 67.04328	708.08002	 35.10	
 17.001	-127.699	 57.81877	 -0.24251	 43.93809	 -4.20339	 48.68933	 -2.73282	 67.05556	708.20001	 35.10	
 17.006	-121.937	 57.84751	  2.14808	 40.82720	 -5.83952	 51.13688	 -2.74396	 67.08119	708.19000	 35.10	
 17.002	-116.134	 57.82973	  4.92796	 37.45841	 -7.23420	 53.20496	 -2.70567	 67.07753	708.19000	 35.10	
 17.001	-110.310	 57.78323	  7.92067	 33.86622	 -8.41767	 54.84699	 -2.73849	 67.07180	708.10999	 35.10	
 16.988	-104.517	 57.76733	 10.93585	 30.21917	 -9.25906	 56.16614	 -2.74863	 67.04818	708.12000	 35.10	
 17.008	-98.662	 57.70429	 14.13268	 26.50519	 -9.96463	 57.15274	 -2.75610	 67.06279	708.23999	 35.10	
 16.996	-92.909	 57.74034	 17.58965	 22.90092	-10.20311	 57.70494	 -2.77957	 67.06456	708.19000	 35.10	
 16.996	-87.091	 57.77638	 20.94838	 19.54284	 -9.94811	 57.80040	 -2.74906	 67.04665	708.17999	 35.10	
 17.012	-81.253	 57.79151	 24.47845	 16.10684	 -9.89304	 57.55855	 -2.76146	 67.07927	708.25000	 35.10	
 16.988	-75.483	 57.79166	 28.08330	 12.82715	 -9.49659	 56.77407	 -2.80557	 67.05128	708.13000	 35.10	
 17.001	-69.690	 57.84782	 31.69968	  9.73217	 -8.69673	 55.68334	 -2.87686	 67.08965	708.23999	 35.10	
 17.002	-63.866	 57.84386	 35.51517	  6.69577	 -7.56700	 54.19555	 -2.93417	 67.04185	708.13000	 35.10	
 17.006	-58.063	 57.84878	 39.04333	  3.85516	 -6.10792	 52.36936	 -3.07599	 67.03352	708.04999	 35.10	
 17.001	-52.301	 57.88623	 42.29073	  1.34114	 -4.49433	 50.16080	 -3.27215	 67.05207	708.12000	 35.10	
 17.007	-46.454	 57.89262	 45.16045	 -0.91590	 -2.67894	 47.48785	 -3.32999	 67.04279	708.15997	 35.10	
 17.014	-40.657	 57.89488	 48.17314	 -2.96067	 -0.63242	 44.78423	 -3.33265	 67.05296	708.20001	 35.10	
 16.988	-34.839	 57.88665	 50.72194	 -4.68670	  1.67637	 41.75269	 -3.32914	 67.02859	708.15997	 35.20	
 16.995	-29.081	 57.82756	 52.88910	 -6.27202	  4.23501	 38.50577	 -3.36833	 67.03165	708.14001	 35.20	
 16.990	-23.241	 57.83512	 54.67336	 -7.44642	  7.27813	 34.84577	 -3.42639	 67.06796	708.15997	 35.20	
 17.000	-17.404	 57.80336	 56.13549	 -8.33380	 10.29550	 31.07074	 -3.46646	 67.06390	708.09003	 35.10	
 17.009	-11.617	 57.73158	 57.24338	 -9.07409	 13.41108	 27.43546	 -3.46857	 67.06140	708.02002	 35.20	
 16.990	 -5.821	 57.72565	 57.88710	 -9.39070	 16.79442	 23.80075	 -3.51971	 67.04711	708.06000	 35.20	
 17.000	  0.000	 57.67034	 58.12946	 -9.46621	 20.22162	 20.24401	 -3.62849	 67.01987	708.13000	 35.20	
 16.990	  5.821	 57.61784	 57.92942	 -9.41386	 23.72888	 16.74303	 -3.73377	 67.02470	708.06000	 35.20	
 17.009	 11.617	 57.56131	 57.44198	 -9.28832	 27.31111	 13.89439	 -3.84835	 67.08467	708.03998	 35.20	
 17.000	 17.404	 57.50815	 56.42641	 -8.67564	 30.94446	 10.54810	 -3.86297	 67.07382	708.13000	 35.20	
 16.990	 23.241	 57.43262	 55.01859	 -7.79949	 34.58117	  7.14495	 -3.86084	 67.06828	708.01001	 35.20	
 16.995	 29.081	 57.36356	 53.34653	 -6.72391	 38.13611	  3.97166	 -3.93880	 67.07632	707.98999	 35.20	
 16.988	 34.839	 57.28984	 51.24338	 -5.32845	 41.40477	  1.35392	 -4.11241	 67.06683	708.00000	 35.20	
 17.014	 40.657	 57.22694	 48.77544	 -3.73268	 44.45288	 -1.05707	 -4.37952	 67.05334	707.97998	 35.20	
 17.007	 46.454	 57.15736	 45.90309	 -1.83251	 47.42092	 -3.25640	 -4.65205	 67.07034	708.08002	 35.20	
 17.001	 52.301	 57.08528	 43.07519	  0.33696	 50.11509	 -5.12789	 -4.83116	 67.05318	708.12000	 35.20	
 17.006	 58.063	 57.00753	 39.85269	  2.72921	 52.43200	 -6.76822	 -4.86967	 67.04113	708.09003	 35.20	
 17.002	 63.866	 56.95918	 36.34832	  5.49009	 54.35956	 -8.17085	 -4.78772	 67.04179	707.92999	 35.20	
 17.001	 69.690	 56.91822	 32.56562	  8.45389	 55.95139	 -9.28464	 -4.65840	 67.02837	707.96002	 35.20	
 16.988	 75.483	 56.89683	 28.99005	 11.52945	 57.17500	-10.11852	 -4.56357	 67.01409	708.10999	 35.20	
 17.012	 81.253	 56.86145	 25.34918	 14.69747	 58.11560	-10.77101	 -4.57291	 67.05255	708.09998	 35.20	
 16.996	 87.091	 56.88935	 21.73203	 18.13552	 58.56095	-10.98409	 -4.65906	 67.05637	708.07001	 35.20	
 16.996	 92.909	 56.89089	 18.44927	 21.40502	 58.59048	-10.84167	 -4.84318	 67.05626	708.04999	 35.20	
 17.008	 98.662	 56.79430	 14.91300	 24.91321	 58.21945	-10.78819	 -4.88733	 67.02735	708.06000	 35.30	
 16.988	104.517	 56.80289	 11.83719	 28.57826	 57.40943	-10.25366	 -4.79910	 67.01101	708.06000	 35.30	
 17.001	110.310	 56.79504	  8.58578	 32.17287	 56.25152	 -9.49752	 -4.62522	 67.00321	708.09003	 35.30	
 17.002	116.134	 56.78332	  5.47412	 35.75209	 54.70910	 -8.62443	 -4.43611	 67.01162	708.09998	 35.30	
 17.006	121.937	 56.74962	  2.75602	 39.17137	 52.82360	 -7.42103	 -4.34398	 66.99509	708.20001	 35.30	
 17.001	127.699	 56.80015	  0.32099	 42.41594	 50.57412	 -5.90897	 -4.32697	 67.00661	708.21002	 35.30	
 17.007	133.546	 56.81068	 -1.96633	 45.46925	 47.84892	 -4.15401	 -4.35636	 66.96649	708.03003	 35.30	
 17.014	139.343	 56.82661	 -4.00724	 48.34742	 44.95812	 -2.11591	 -4.40720	 66.98918	708.08002	 35.30	
 16.988	145.161	 56.83054	 -5.79736	 50.87243	 41.96133	  0.13261	 -4.38404	 66.98307	708.15997	 35.30	
 16.995	150.919	 56.86707	 -7.29099	 53.05190	 38.62961	  2.76299	 -4.24252	 66.98112	708.03003	 35.30	
 16.990	156.759	 56.91993	 -8.50253	 54.87938	 35.03391	  5.76329	 -4.02859	 66.98051	708.07001	 35.30	
 17.000	162.596	 56.98991	 -9.52174	 56.39743	 31.34727	  8.80713	 -3.90280	 66.98970	708.00000	 35.30	
 17.009	168.383	 57.01953	-10.28679	 57.52169	 27.74948	 12.04811	 -3.75004	 66.97644	707.98999	 35.30	
 16.990	174.179	 57.08039	-10.67008	 58.18022	 24.12954	 15.42644	 -3.65966	 66.95600	708.01001	 35.30	
 18.709	174.675	 54.81509	-14.63481	 60.11213	 22.23329	 13.68092	 -3.70071	 66.96391	708.08002	 35.30	
 18.703	169.441	 54.77155	-14.22822	 59.48479	 25.87848	 10.33420	 -3.83497	 66.98254	708.08002	 35.30	
 18.691	164.085	 54.70901	-13.53585	 58.41505	 29.55672	  7.09322	 -4.00724	 66.95390	708.06000	 35.30	
 18.706	158.818	 54.66201	-12.61055	 57.03701	 33.11008	  4.11958	 -4.11837	 66.94324	707.97998	 35.30	
 18.695	153.537	 54.58297	-11.44174	 55.29144	 36.75966	  1.28856	 -4.34466	 66.93650	708.03003	 35.30	
 18.704	148.255	 54.55182	-10.11264	 53.32146	 40.21905	 -1.38110	 -4.56754	 66.97008	707.98999	 35.30	
 18.698	142.952	 54.56427	 -8.44646	 50.99227	 43.42574	 -3.76535	 -4.61095	 66.95512	708.03003	 35.30	
 18.699	137.625	 54.57128	 -6.61672	 48.33012	 46.42026	 -5.97852	 -4.64544	 66.94115	708.06000	 35.30	
 18.705	132.343	 54.52187	 -4.57807	 45.40992	 49.33134	 -7.93222	 -4.71873	 66.93338	708.02002	 35.30	
 18.713	127.067	 54.47888	 -2.29292	 42.30635	 51.93437	 -9.57472	 -4.75892	 66.94863	707.96997	 35.40	
 18.700	121.794	 54.49622	  0.11097	 39.04649	 54.10378	-10.96103	 -4.80132	 66.93677	708.00000	 35.40	
 18.698	116.504	 54.49959	  2.68320	 35.62903	 56.00441	-12.14101	 -4.92058	 66.95769	708.03998	 35.40	
 18.707	111.165	 54.50064	  5.51459	 32.02036	 57.66752	-13.08510	 -5.14328	 66.95724	707.92999	 35.40	
 18.690	105.863	 54.49216	  8.57136	 28.38677	 58.91383	-13.87574	 -5.33152	 66.92501	707.96997	 35.40	
 18.696	100.583	 54.48555	 11.87652	 24.75990	 59.79049	-14.48171	 -5.46147	 66.91660	708.02002	 35.40	
 18.700	 95.309	 54.52439	 15.04044	 21.19478	 60.31345	-14.69711	 -5.52757	 66.94115	708.06000	 35.40	
 18.700	 90.000	 54.52448	 18.01608	 18.10749	 60.44205	-14.94262	 -5.32448	 66.92311	708.00000	 35.40	
 18.700	 84.691	 54.53244	 21.65537	 14.72822	 60.23280	-14.82853	 -5.21116	 66.94483	708.03003	 35.40	
 18.696	 79.417	 54.55883	 25.35356	 11.42098	 59.62001	-14.36168	 -5.15190	 66.94511	707.97998	 35.40	
 18.690	 74.137	 54.60051	 28.98420	  8.24345	 58.64290	-13.68992	 -5.18625	 66.93671	707.98999	 35.40	
 18.707	 68.835	 54.63090	 32.48110	  5.21475	 57.33793	-12.82350	 -5.30706	 66.94051	707.96002	 35.40	
 18.698	 63.496	 54.69498	 36.36215	  2.36648	 55.63329	-11.62921	 -5.42872	 66.96374	707.97998	 35.40	
 18.700	 58.206	 54.76889	 39.85830	 -0.16393	 53.64708	-10.20772	 -5.51280	 66.95243	708.01001	 35.40	
 18.713	 52.933	 54.81145	 43.06557	 -2.51761	 51.42015	 -8.69727	 -5.54173	 66.97729	708.03003	 35.40	
 18.705	 47.657	 54.87544	 45.92925	 -4.62772	 48.75313	 -6.85622	 -5.31720	 66.93322	707.92999	 35.40	
 18.699	 42.375	 54.96291	 48.84752	 -6.54254	 45.82389	 -4.79741	 -5.04962	 66.92901	708.00000	 35.40	
 18.698	 37.048	 54.97686	 51.47381	 -8.31402	 42.77254	 -2.53216	 -4.77671	 66.92165	708.03998	 35.40	
 18.704	 31.745	 55.03788	 53.69708	 -9.79837	 39.60299	 -0.09976	 -4.53374	 66.93317	708.08002	 35.50	
 18.695	 26.463	 55.10706	 55.56210	-11.04802	 36.20683	  2.71238	 -4.40947	 66.94501	707.96997	 35.50	
 18.706	 21.182	 55.14207	 57.19506	-12.05687	 32.56771	  5.80757	 -4.32186	 66.93551	707.96997	 35.50	
 18.691	 15.915	 55.19777	 58.45642	-12.80140	 29.00901	  9.02448	 -4.23688	 66.91867	708.03998	 35.50	
 18.703	 10.559	 55.25695	 59.38723	-13.36166	 25.32248	 12.41653	 -4.20373	 66.93949	708.00000	 35.50	
 18.709	  5.325	 55.32568	 59.89192	-13.51568	 21.75974	 15.74878	 -4.07795	 66.93311	708.00000	 35.50	
 18.700	  0.000	 55.41043	 60.00018	-13.35442	 18.44942	 18.47256	 -3.88913	 66.93316	707.94000	 35.50	
 18.709	 -5.325	 55.42263	 59.82367	-13.47077	 15.09889	 21.93169	 -3.72570	 66.95688	707.97998	 35.50	
 18.703	-10.559	 55.44867	 59.20523	-13.18029	 11.74860	 25.56717	 -3.59236	 66.92204	707.91998	 35.50	
 18.691	-15.915	 55.52584	 58.22093	-12.53698	  8.65037	 29.25513	 -3.51757	 66.93581	707.89001	 35.50	
 18.706	-21.182	 55.57425	 56.87576	-11.65279	  5.54169	 32.85814	 -3.41245	 66.95222	707.91998	 35.50	
 18.695	-26.463	 55.61246	 55.10412	-10.53021	  2.56800	 36.62527	 -3.31744	 66.91245	707.90997	 35.50	
 18.704	-31.745	 55.65642	 53.18690	 -9.22071	  0.00930	 40.10917	 -3.21127	 66.93743	708.02002	 35.50	
 18.698	-37.048	 55.63999	 50.84464	 -7.64662	 -2.40845	 43.33432	 -3.15870	 66.91026	707.96002	 35.50	
 18.699	-42.375	 55.65502	 48.14960	 -5.82614	 -4.54965	 46.19728	 -3.07407	 66.93231	707.90002	 35.50	
 18.705	-47.657	 55.64401	 45.16642	 -3.78044	 -6.45968	 48.97198	 -2.98728	 66.91947	707.76001	 35.50	
 18.713	-52.933	 55.64987	 42.20584	 -1.49133	 -8.15967	 51.50913	 -2.95600	 66.90938	707.96002	 35.50	
 18.700	-58.206	 55.61057	 38.92546	  0.92820	 -9.75426	 53.68396	 -2.83749	 66.89713	707.91998	 35.50	
 18.698	-63.496	 55.61277	 35.36088	  3.62651	-11.22575	 55.55251	 -2.72358	 66.92567	707.84003	 35.50	
 18.707	-68.835	 55.53814	 31.44953	  6.60117	-12.42160	 57.17021	 -2.65802	 66.90606	707.87000	 35.50	
 18.690	-74.137	 55.55711	 27.93028	  9.68835	-13.27248	 58.38017	 -2.57790	 66.94967	707.88000	 35.50	
 18.696	-79.417	 55.52481	 24.30688	 12.93706	-13.77463	 59.20795	 -2.54802	 66.97238	707.92999	 35.50	
 18.700	-84.691	 55.52438	 20.68627	 16.30277	-13.93778	 59.61763	 -2.47539	 66.95245	707.91998	 35.50	
 18.700	-90.000	 55.46261	 17.51114	 19.36814	-14.11200	 59.65160	 -2.51487	 66.93115	707.97998	 35.50	
 18.700	-95.309	 55.41475	 14.14603	 22.82756	-14.13749	 59.37272	 -2.50504	 66.93301	707.97998	 35.50	
 18.696	-100.583	 55.40784	 10.99129	 26.48986	-13.76969	 58.71640	 -2.53366	 66.93946	707.96997	 35.50	
 18.690	-105.863	 55.46307	  7.84705	 30.12605	-13.02762	 57.64729	 -2.54183	 66.92159	707.91998	 35.50	
 18.707	-111.165	 55.47481	  4.77742	 33.77512	-12.11120	 56.14411	 -2.46321	 66.91659	707.90997	 35.60	
 18.698	-116.504	 55.49072	  1.88002	 37.39293	-11.00018	 54.43552	 -2.47314	 66.91138	707.88000	 35.60	
 18.700	-121.794	 55.55756	 -0.71672	 40.76271	 -9.63888	 52.40177	 -2.50539	 66.94771	707.89001	 35.50	
 18.713	-127.067	 55.52133	 -3.08297	 43.94002	 -7.98355	 49.98160	 -2.49341	 66.91933	707.98999	 35.50	
 18.705	-132.343	 55.53759	 -5.25063	 46.96237	 -6.14043	 47.14836	 -2.55887	 66.94219	708.00000	 35.50	
 18.699	-137.625	 55.50118	 -7.29543	 49.74405	 -4.11966	 44.44217	 -2.62578	 66.91346	707.88000	 35.50	
 18.698	-142.952	 55.49142	 -9.12254	 52.24900	 -1.95369	 41.29705	 -2.76988	 66.92308	707.84998	 35.50	
 18.704	-148.255	 55.41966	-10.78497	 54.37373	  0.48765	 37.83427	 -2.81634	 66.90240	707.87000	 35.60	
 18.695	-153.537	 55.33311	-12.17834	 56.18779	  3.14878	 34.05051	 -2.90959	 66.87856	707.84003	 35.60	
 18.706	-158.818	 55.22977	-13.30052	 57.78446	  6.10348	 30.47837	 -3.04119	 66.90485	707.89001	 35.60	
 18.691	-164.085	 55.14494	-14.06016	 58.99715	  9.31667	 26.79247	 -3.19046	 66.91306	708.03003	 35.60	
 18.703	-169.441	 55.03825	-14.52576	 59.80274	 12.55306	 23.13486	 -3.38387	 66.88070	707.96002	 35.60	
 18.709	-174.675	 54.97080	-14.78528	 60.26966	 15.83275	 19.49883	 -3.51706	 66.93356	708.02002	 35.50	
 18.700	180.000	 54.90397	-14.64392	 60.33403	 19.25643	 16.13053	 -3.70312	 66.92647	708.01001	 35.60	
 20.400	180.000	 52.55484	-18.53341	 61.96985	 17.55124	 14.29741	 -3.54910	 66.90083	707.90997	 35.60	
 20.401	-175.153	 52.63719	-18.56534	 61.95211	 14.22557	 17.57550	 -3.36410	 66.93787	707.82001	 35.60	
 20.407	-170.264	 52.70652	-18.30407	 61.53880	 10.85674	 21.05173	 -3.20483	 66.91288	707.97998	 35.60	
 20.410	-165.423	 52.82202	-17.83977	 60.81437	  7.67530	 24.65097	 -3.09437	 66.90330	707.91998	 35.60	
 20.392	-160.496	 52.95219	-17.17784	 59.69539	  4.50577	 28.40662	 -2.88692	 66.90038	707.89001	 35.60	
 20.401	-155.705	 53.01778	-16.33815	 58.32616	  1.58363	 31.98690	 -2.70923	 66.89958	707.88000	 35.60	
 20.405	-150.835	 53.11356	-15.11022	 56.60716	 -1.02431	 35.49614	 -2.67699	 66.90845	707.90997	 35.60	
 20.397	-145.903	 53.19062	-13.51821	 54.53759	 -3.56444	 39.27301	 -2.56446	 66.92315	707.96997	 35.60	
 20.392	-141.062	 53.27620	-11.76653	 52.24448	 -5.80769	 42.60883	 -2.50810	 66.94555	708.08002	 35.60	
 20.396	-136.227	 53.27105	 -9.96100	 49.65017	 -7.96228	 45.61719	 -2.42220	 66.90989	707.88000	 35.60	
 20.408	-131.372	 53.30628	 -8.04510	 46.81276	 -9.95705	 48.32883	 -2.37638	 66.92950	707.90997	 35.60	
 20.410	-126.511	 53.28550	 -5.96047	 43.80036	-11.80709	 51.16164	 -2.33037	 66.91003	707.88000	 35.60	
 20.400	-121.604	 53.23119	 -3.67005	 40.53612	-13.47335	 53.56305	 -2.34235	 66.91124	707.89001	 35.60	
 20.403	-116.741	 53.16916	 -1.13035	 37.15227	-14.76415	 55.62403	 -2.27470	 66.92764	707.87000	 35.60	
 20.413	-111.900	 53.18030	  1.61871	 33.62973	-15.81874	 57.45296	 -2.26894	 66.94029	707.90997	 35.60	
 20.398	-107.004	 53.20428	  4.57137	 30.00698	-16.69116	 58.93198	 -2.32760	 66.92380	707.96997	 35.60	
 20.394	-102.132	 53.21091	  7.67242	 26.36406	-17.38418	 60.06165	 -2.32104	 66.90804	707.89001	 35.60	
 20.403	-97.332	 53.21881	 10.86567	 22.73689	-17.86779	 60.84950	 -2.30611	 66.90700	708.10999	 35.60	
 20.392	-92.440	 53.20914	 14.11692	 19.09417	-18.03891	 61.27005	 -2.30954	 66.88377	707.90997	 35.60	
 20.392	-87.560	 53.30595	 16.94628	 16.29409	-17.76308	 61.44120	 -2.33871	 66.94402	707.89001	 35.60	
 20.403	-82.668	 53.27339	 20.42287	 12.95263	-17.82991	 61.24848	 -2.34702	 66.92272	707.84998	 35.60	
 20.394	-77.868	 53.33110	 24.03555	  9.67020	-17.54130	 60.69150	 -2.34345	 66.94513	707.95001	 35.60	
 20.398	-72.996	 53.30319	 27.65686	  6.44370	-16.93985	 59.76954	 -2.37719	 66.90131	707.85999	 35.70	
 20.413	-68.100	 53.31630	 31.25689	  3.37891	-16.11113	 58.55659	 -2.42560	 66.91292	707.82001	 35.70	
 20.403	-63.259	 53.33401	 34.95385	  0.57727	-14.94002	 56.88148	 -2.51689	 66.90965	708.03003	 35.70	
 20.400	-58.396	 53.38233	 38.54608	 -1.98561	-13.55714	 55.00526	 -2.62770	 66.90514	707.92999	 35.70	
 20.410	-53.489	 53.43693	 41.94270	 -4.30270	-11.94141	 52.88574	 -2.76399	 66.93103	707.96997	 35.70	
 20.408	-48.628	 53.39394	 45.02863	 -6.52452	-10.29083	 50.34371	 -2.78421	 66.89530	707.90997	 35.70	
 20.396	-43.773	 53.40475	 47.88726	 -8.56973	 -8.48137	 47.53219	 -2.86166	 66.90142	707.87000	 35.70	
 20.392	-38.938	 53.38095	 50.68559	-10.49590	 -6.45314	 44.82362	 -2.97736	 66.88631	708.06000	 35.70	
 20.397	-34.097	 53.39925	 53.15450	-12.14972	 -4.19095	 41.71827	 -3.02250	 66.88786	707.91998	 35.70	
 20.405	-29.165	 53.38457	 55.37058	-13.59745	 -1.72320	 38.24147	 -3.11016	 66.89857	707.97998	 35.80	
 20.401	-24.295	 53.36078	 57.30857	-14.81707	  0.86247	 34.53483	 -3.22543	 66.96140	707.91998	 35.70	
 20.392	-19.504	 53.30925	 58.83889	-15.78353	  3.73380	 31.02538	 -3.37301	 66.91039	707.97998	 35.70	
 20.410	-14.577	 53.26599	 60.12887	-16.63780	  6.81562	 27.32333	 -3.45598	 66.92444	708.08002	 35.70	
 20.407	 -9.736	 53.22955	 60.97713	-17.13365	  9.98846	 23.71160	 -3.65074	 66.91825	707.96997	 35.80	
 20.401	 -4.847	 53.20142	 61.58393	-17.42734	 13.29465	 19.97398	 -3.87479	 66.90313	707.96997	 35.80	
 20.400	  0.000	 53.19575	 61.78363	-17.27877	 16.52283	 17.25137	 -4.01896	 66.94254	708.02002	 35.80	
 20.401	  4.847	 53.08465	 61.61306	-17.45270	 19.64304	 14.22178	 -4.21599	 66.93047	708.07001	 35.80	
 20.407	  9.736	 53.00638	 61.19825	-17.40838	 23.24812	 10.76811	 -4.38778	 66.95518	707.95001	 35.80	
 20.410	 14.577	 52.91754	 60.37126	-16.95679	 26.86432	  7.45230	 -4.48602	 66.94327	707.96002	 35.80	
 20.392	 19.504	 52.91274	 59.19677	-16.23986	 30.50248	  4.25118	 -4.63616	 66.95963	707.96002	 35.80	
 20.401	 24.295	 52.81736	 57.69432	-15.34872	 34.03830	  1.23513	 -4.72305	 66.92467	708.02002	 35.80	
 20.405	 29.165	 52.72200	 55.89341	-14.21764	 37.59375	 -1.64209	 -4.91048	 66.90136	708.00000	 35.70	
 20.397	 34.097	 52.70502	 53.75452	-12.77980	 40.95042	 -4.18275	 -5.06915	 66.88895	707.98999	 35.70	
 20.392	 38.938	 52.64437	 51.39635	-11.18818	 44.08039	 -6.50683	 -5.33293	 66.86621	708.01001	 35.70	
 20.396	 43.773	 52.64725	 48.67480	 -9.42381	 47.08220	 -8.56572	 -5.58173	 66.91882	707.90997	 35.70	
 20.408	 48.628	 52.54985	 45.82340	 -7.54647	 49.87259	-10.49276	 -5.83323	 66.88506	708.00000	 35.70	
 20.410	 53.489	 52.54354	 42.87014	 -5.37181	 52.46431	-12.15447	 -6.00346	 66.89976	707.88000	 35.70	
 20.400	 58.396	 52.46865	 39.58242	 -3.13509	 54.76971	-13.73589	 -5.98966	 66.90332	707.94000	 35.70	
 20.403	 63.259	 52.37239	 36.00527	 -0.66318	 56.78475	-15.15539	 -5.91519	 66.87282	707.88000	 35.70	
 20.413	 68.100	 52.26151	 32.31595	  1.98626	 58.51374	-16.39086	 -5.85686	 66.87354	707.96997	 35.70	
 20.398	 72.996	 52.24339	 28.77722	  4.96737	 59.91160	-17.28030	 -5.78992	 66.88839	707.92999	 35.70	
 20.394	 77.868	 52.19545	 25.16504	  8.04494	 60.92542	-18.05971	 -5.80535	 66.88892	707.94000	 35.80	
 20.403	 82.668	 52.15093	 21.50058	 11.22404	 61.64100	-18.57718	 -5.84939	 66.87702	707.94000	 35.80	
 20.392	 87.560	 52.13413	 17.74957	 14.57709	 61.99169	-18.76591	 -5.94041	 66.87571	707.88000	 35.80	
 20.392	 92.440	 52.15163	 14.49452	 17.98031	 62.05088	-18.69704	 -6.00329	 66.90039	708.03003	 35.80	
 20.403	 97.332	 52.12211	 11.78114	 20.83809	 61.76384	-18.57172	 -6.04566	 66.85460	707.85999	 35.80	
 20.394	102.132	 52.15867	  8.66948	 24.38024	 61.16449	-18.23096	 -5.95643	 66.89530	707.88000	 35.80	
 20.398	107.004	 52.15467	  5.54028	 27.99479	 60.22562	-17.71818	 -5.79483	 66.90291	707.89001	 35.80	
 20.413	111.900	 52.12169	  2.62446	 31.61714	 58.84678	-16.91956	 -5.62953	 66.87651	707.90002	 35.80	
 20.403	116.741	 52.15641	 -0.10305	 35.17853	 57.24954	-15.93710	 -5.41484	 66.89313	707.84003	 35.80	
 20.400	121.604	 52.20422	 -2.61589	 38.67137	 55.31828	-14.71060	 -5.22939	 66.91228	707.83002	 35.80	
 20.410	126.511	 52.18576	 -5.00801	 42.00650	 53.05339	-13.23013	 -5.09865	 66.88884	707.85999	 35.80	
 20.408	131.372	 52.18388	 -7.29901	 45.13315	 50.54182	-11.64857	 -5.00271	 66.91451	707.84998	 35.80	
 20.396	136.227	 52.22738	 -9.30789	 48.02762	 47.73704	 -9.87884	 -4.85642	 66.89653	707.85999	 35.80	
 20.392	141.062	 52.27013	-11.17761	 50.74814	 44.80281	 -7.93784	 -4.72942	 66.88810	707.83002	 35.80	
 20.397	145.903	 52.30251	-12.86185	 53.26012	 41.64910	 -5.67056	 -4.62069	 66.90648	707.84998	 35.80	
 20.405	150.835	 52.27210	-14.38470	 55.47499	 38.26697	 -3.21304	 -4.43744	 66.90018	707.90002	 35.80	
 20.401	155.705	 52.34571	-15.63920	 57.35155	 34.68389	 -0.54108	 -4.26885	 66.88738	707.81000	 35.80	
 20.392	160.496	 52.41470	-16.65677	 58.89759	 31.12740	  2.29542	 -4.06756	 66.89040	707.95001	 35.80	
 20.410	165.423	 52.37805	-17.51616	 60.22294	 27.52357	  5.31376	 -3.91826	 66.90200	707.89001	 35.80	
 20.407	170.264	 52.41353	-18.07624	 61.14759	 23.88165	  8.44875	 -3.79904	 66.90653	707.88000	 35.80	
 20.401	175.153	 52.46523	-18.35835	 61.71035	 20.40362	 11.56238	 -3.64498	 66.88773	707.90997	 35.80	
  0.141	 45.000	 67.00375	 28.48027	 28.97207	 29.22176	 27.40532	  0.50783	 66.90002	707.90997	 35.80	
  4.001	128.691	 66.70704	 22.25080	 34.05420	 35.37260	 20.40046	  0.05186	 66.91679	707.81000	 35.80	
  4.002	 76.995	 66.74245	 29.92032	 26.56373	 37.09641	 18.98578	  0.27471	 66.92596	707.85999	 35.80	
  4.002	 25.892	 66.80255	 35.94958	 21.02511	 32.23661	 23.62063	  0.45177	 66.91405	707.78998	 35.80	
  4.002	-25.892	 66.87073	 35.79769	 21.15158	 24.54744	 31.52386	  0.36657	 66.94186	707.84003	 35.80	
  4.002	-76.995	 66.86493	 29.64475	 26.89460	 20.17559	 36.23592	  0.06990	 66.92733	707.92999	 35.80	
  4.001	-128.691	 66.81277	 22.06815	 34.31460	 21.84190	 34.26701	 -0.13187	 66.89941	707.94000	 35.80	
  4.000	180.000	 66.73009	 19.03486	 37.47980	 28.56311	 26.85723	 -0.15113	 66.91089	707.95001	 35.90	
  8.000	180.000	 65.27558	  9.80449	 45.05720	 27.10557	 25.06750	 -1.33299	 66.92121	707.95001	 35.90	
  7.991	-152.370	 65.41548	 11.47022	 43.12664	 19.31755	 33.76297	 -1.28635	 66.92134	707.98999	 35.90	
  7.997	-124.550	 65.51084	 16.49490	 37.49186	 13.66409	 40.40717	 -1.18395	 66.90701	707.90997	 35.90	
  8.006	-96.837	 65.53223	 23.78774	 29.57621	 10.93285	 43.84384	 -1.21219	 66.90325	707.89001	 35.90	
  7.988	-69.228	 65.57993	 32.36525	 21.55681	 11.74977	 43.05611	 -1.06836	 66.92197	707.90002	 35.90	
  7.997	-41.563	 65.57640	 39.55089	 15.17007	 15.99950	 38.17084	 -0.80600	 66.91547	707.89001	 35.90	
  8.008	-13.821	 65.47754	 43.65496	 11.59300	 22.84488	 30.53450	 -0.47494	 66.89825	707.84998	 35.90	
  8.008	 13.821	 65.39703	 43.75564	 11.43760	 31.16226	 22.08663	 -0.42890	 66.91737	707.98999	 35.90	
  7.997	 41.563	 65.29396	 39.91960	 14.72089	 38.73513	 15.14868	 -0.51569	 66.91224	707.98999	 35.90	
  7.988	 69.228	 65.20464	 32.86076	 20.90621	 43.65393	 10.79302	 -0.70877	 66.91310	707.96002	 35.90	
  8.006	 96.837	 65.15994	 24.30857	 28.81553	 44.84107	  9.72383	 -0.91681	 66.91736	707.91998	 35.90	
  7.997	124.550	 65.18706	 16.86588	 36.83549	 41.83690	 12.10590	 -0.93878	 66.94939	707.96002	 35.90	
  7.991	152.370	 65.15005	 11.71375	 42.71180	 35.32477	 17.58973	 -1.20379	 66.88845	707.96997	 35.90	
 12.009	161.059	 62.33218	  2.07834	 49.91690	 33.38606	 14.78937	 -2.56788	 66.91691	707.87000	 35.90	
 12.013	142.081	 62.30972	  5.51119	 45.39020	 41.15049	  8.24896	 -2.67308	 66.95709	707.96002	 35.90	
 12.006	123.113	 62.24101	 10.82900	 38.65378	 47.27103	  3.53418	 -2.43215	 66.92124	707.90997	 35.90	
 12.007	104.200	 62.24669	 18.03651	 30.59020	 50.86245	  1.04884	 -2.58923	 66.89520	707.96002	 35.90	
 11.989	 85.301	 62.29056	 26.19533	 22.22327	 51.55147	  0.50215	 -2.35208	 66.90077	707.95001	 35.90	
 12.013	 66.294	 62.30485	 34.90376	 14.36848	 49.26883	  2.15695	 -2.37833	 66.91021	707.92999	 35.90	
 12.012	 47.388	 62.40177	 42.34346	  8.30275	 44.11582	  6.14765	 -2.32721	 66.89659	707.78998	 35.90	
 11.990	 28.440	 62.53769	 47.82197	  4.25090	 37.08974	 12.31052	 -1.85699	 66.87637	707.79999	 35.90	
 11.991	  9.464	 62.68520	 50.79303	  2.18470	 28.74039	 19.91184	 -1.92071	 66.89029	707.82001	 35.90	
 11.991	 -9.464	 62.80560	 50.69072	  2.36332	 20.48871	 28.29288	 -1.97833	 66.88729	707.73999	 35.90	
 11.990	-28.440	 62.89076	 47.49813	  4.60949	 12.91694	 36.95587	 -2.29238	 66.90440	707.91998	 35.90	
 12.012	-47.388	 62.94190	 41.79821	  9.04308	  7.07403	 43.98347	 -2.40105	 66.91380	707.94000	 35.90	
 12.013	-66.294	 62.94517	 34.26856	 15.37764	  3.23232	 48.65727	 -2.57718	 66.93489	708.07001	 35.90	
 11.989	-85.301	 62.91497	 25.50025	 23.29186	  1.60495	 50.63942	 -2.56129	 66.92445	707.96997	 35.90	
 12.007	-104.200	 62.83961	 17.37245	 31.65324	  2.21316	 49.63059	 -2.57847	 66.90008	707.90997	 35.90	
 12.006	-123.113	 62.85978	 10.36857	 39.65536	  5.12658	 45.51099	 -2.57568	 66.90804	707.84998	 35.90	
 12.013	-142.081	 62.77250	  4.82948	 46.18493	  9.92618	 39.47499	 -2.58990	 66.91933	707.92999	 35.90	
 12.009	-161.059	 62.65075	  1.48082	 50.39767	 16.81255	 30.99077	 -2.72805	 66.91526	707.94000	 35.90	
 16.000	180.000	 58.34612	 -8.35678	 57.14809	 21.83177	 19.04622	 -3.53755	 66.88327	707.96002	 35.90	
 15.990	-165.604	 58.53161	 -8.14641	 56.19762	 13.73413	 27.34883	 -3.37012	 66.86513	707.87000	 35.90	
 16.002	-151.165	 58.68478	 -5.86253	 53.04451	  6.47126	 36.13638	 -3.05947	 66.87594	707.91998	 35.90	
 16.002	-136.836	 58.84091	 -1.63403	 47.73209	  0.74014	 43.80350	 -2.87193	 66.88104	707.79999	 36.00	
 15.995	-122.439	 58.88440	  3.66163	 40.80067	 -3.57083	 49.95183	 -2.77536	 66.90099	707.96002	 36.00	
 15.993	-107.966	 58.84819	 10.45989	 32.61053	 -6.39149	 54.12733	 -2.77127	 66.86931	707.76001	 36.00	
 16.005	-93.629	 58.80233	 18.15589	 24.12113	 -7.79229	 56.17736	 -2.78674	 66.89683	707.84003	 36.00	
 15.992	-79.234	 58.85030	 26.32408	 16.09761	 -7.34740	 55.83544	 -2.79988	 66.86496	707.78998	 36.00	
 16.009	-64.774	 58.92986	 35.01229	  8.74715	 -5.53647	 53.34002	 -2.97156	 66.92957	707.90997	 36.00	
 15.997	-50.364	 58.96937	 42.83156	  2.45511	 -1.92016	 48.42663	 -3.31313	 66.90459	707.91998	 36.00	
 15.997	-36.045	 58.98076	 49.30998	 -2.22057	  3.00701	 42.02570	 -3.27973	 66.90887	707.84998	 36.00	
 16.000	-21.597	 58.88821	 53.94946	 -5.45681	  9.60103	 33.86236	 -3.27682	 66.90170	707.78003	 35.90	
 16.003	 -7.169	 58.79630	 56.41162	 -6.98946	 17.10461	 25.28874	 -3.24969	 66.91022	707.90002	 35.90	
 16.003	  7.169	 58.68459	 56.49520	 -7.11807	 25.27718	 16.96849	 -3.42175	 66.89233	707.83002	 35.90	
 16.000	 21.597	 58.51610	 54.29487	 -5.91977	 33.74289	  9.62089	 -3.46264	 66.90723	707.83002	 35.90	
 15.997	 36.045	 58.38462	 49.83261	 -2.91281	 41.75068	  2.58513	 -3.69682	 66.89301	707.92999	 35.90	
 15.997	 50.364	 58.18507	 43.54834	  1.46562	 48.44515	 -2.59986	 -4.24270	 66.87323	707.90997	 36.00	
 16.009	 64.774	 58.01425	 35.77448	  7.51547	 53.55755	 -6.29896	 -4.27590	 66.85086	707.84998	 36.00	
 15.992	 79.234	 58.01700	 27.15572	 14.79851	 56.53091	 -8.31582	 -4.09224	 66.89314	707.90002	 36.00	
 16.005	 93.629	 58.00955	 19.01039	 22.69251	 57.20355	 -8.62243	 -4.33966	 66.89309	707.84998	 36.00	
 15.993	107.966	 57.93742	 11.34108	 31.07439	 55.60046	 -7.70982	 -4.23714	 66.92073	707.84003	 35.90	
 15.995	122.439	 57.95587	  4.24560	 39.35636	 51.67356	 -5.15766	 -3.92024	 66.89777	707.92999	 35.90	
 16.002	136.836	 58.04902	 -1.11581	 46.52717	 45.65834	 -1.12098	 -4.07410	 66.90559	707.92999	 36.00	
 16.002	151.165	 58.02885	 -5.15518	 52.19146	 38.40993	  4.48412	 -3.98753	 66.88277	707.98999	 36.00	
 15.990	165.604	 58.20934	 -7.61977	 55.80732	 29.93112	 11.92325	 -3.58953	 66.90167	707.96997	 36.00	
 20.003	168.362	 52.97476	-16.95560	 60.44434	 25.63775	  7.81791	 -3.81059	 66.89119	707.88000	 36.00	
 20.008	156.764	 52.93166	-15.01572	 57.42634	 34.01823	  0.81552	 -4.18143	 66.89073	707.97998	 36.00	
 20.000	145.147	 52.86753	-11.75816	 52.67392	 42.11839	 -5.15129	 -4.65767	 66.86993	707.97998	 36.00	
 19.995	133.545	 52.79016	 -7.44067	 46.35976	 49.16263	-10.03203	 -4.87957	 66.87852	707.91998	 36.00	
 20.009	121.926	 52.77120	 -2.07477	 38.96276	 54.90014	-13.64754	 -5.14474	 66.89212	708.01001	 36.00	
 20.005	110.327	 52.77426	  4.14899	 30.70440	 58.99299	-16.12050	 -5.59077	 66.89101	708.00000	 36.00	
 19.989	 98.733	 52.79067	 11.43656	 22.29252	 61.28310	-17.48073	 -5.94470	 66.92029	707.96002	 36.00	
 19.999	 87.075	 52.76966	 18.57573	 14.77243	 61.65946	-17.80248	 -5.72237	 66.93093	708.04999	 36.00	
 19.992	 75.457	 52.83466	 27.24098	  7.12501	 60.10490	-16.69238	 -5.63392	 66.90675	707.89001	 36.00	
 20.009	 63.844	 52.94067	 35.70877	  0.31482	 56.70187	-14.39734	 -5.82120	 66.88539	707.97998	 36.00	
 19.989	 52.269	 53.13440	 43.58907	 -5.10179	 51.63436	-10.88309	 -5.88333	 66.85697	707.97998	 36.00	
 19.999	 40.602	 53.20825	 50.36132	 -9.76474	 45.03098	 -6.44400	 -5.33276	 66.87502	708.03003	 36.00	
 20.004	 29.051	 53.28740	 55.58465	-13.30711	 37.58761	 -0.83462	 -4.80774	 66.85841	707.94000	 36.00	
 20.005	 17.433	 53.37344	 59.28920	-15.64784	 29.16713	  6.18252	 -4.49707	 66.84743	708.06000	 36.00	
 20.006	  5.780	 53.57071	 61.13789	-16.55313	 20.71943	 14.02489	 -4.22827	 66.88555	707.95001	 36.00	
 20.006	 -5.780	 53.73999	 61.11123	-16.46127	 13.20226	 21.03173	 -3.85191	 66.89053	707.84998	 36.00	
 20.005	-17.433	 53.82314	 59.04642	-15.26391	  5.67364	 29.65459	 -3.44744	 66.87393	707.94000	 36.00	
 20.004	-29.051	 53.76554	 55.10602	-12.72262	 -0.95404	 38.18029	 -3.14810	 66.86597	707.91998	 36.00	
 19.999	-40.602	 53.91539	 49.60364	 -9.10570	 -6.41785	 45.69715	 -2.96777	 66.86808	707.91998	 36.00	
 19.989	-52.269	 53.96041	 42.71840	 -4.11497	-10.59986	 52.00257	 -2.80048	 66.89661	707.92999	 36.00	
 20.009	-63.844	 53.84326	 34.66657	  1.54992	-14.18517	 56.71607	 -2.58340	 66.84480	708.01001	 36.00	
 19.992	-75.457	 53.63882	 26.11102	  8.62781	-16.33330	 59.86070	 -2.41479	 66.89114	708.14001	 36.00	
 19.999	-87.075	 53.64748	 17.78539	 16.33458	-16.85634	 61.01840	 -2.39409	 66.89048	707.90002	 36.00	
 19.989	-98.733	 53.76649	 10.47982	 24.13538	-16.80360	 60.21969	 -2.36642	 66.87060	708.03998	 36.00	
 20.005	-110.327	 53.70648	  3.20109	 32.62383	-15.21377	 57.61925	 -2.33818	 66.91026	707.96002	 36.00	
 20.009	-121.926	 53.74670	 -3.10534	 40.74649	-12.54947	 53.18340	 -2.36019	 66.87437	708.07001	 36.00	
 19.995	-133.545	 53.67618	 -8.09688	 47.94881	 -8.28389	 46.90055	 -2.45102	 66.85910	708.03998	 36.00	
 20.000	-145.147	 53.58005	-12.45410	 53.89575	 -3.27686	 39.84129	 -2.68038	 66.85178	708.03998	 36.00	
 20.008	-156.764	 53.53544	-15.68799	 58.33372	  2.84348	 31.40009	 -2.85485	 66.89530	707.96997	 36.00	
 20.003	-168.362	 53.30329	-17.25980	 60.91067	 10.14515	 22.84260	 -3.21246	 66.89252	708.02002	 36.00	
 20.000	180.000	 53.09172	-17.65238	 61.57743	 17.94567	 14.81876	 -3.57289	 66.88750	707.90002	 36.00	
