FileType=PCF
NHL=14
Date=03/14/19	13:03:11
Facility=APL
Serial=16071-9
Customer=NASA
NP=6
Mach=0.300000
Calibration=1:1
CalPts=490
TstPts=95
PortNumbering=AP Standard
Units=Torr C m/s kg/m^3 deg mm 
Theta[deg]	Phi[deg]	P1[Torr]	P2[Torr]	P3[Torr]	P4[Torr]	P5[Torr]	P6[Torr]	Pt[Torr]	Ps[Abs,Torr]	Ts[C]	
  0.000	  0.000	 42.75615	 17.69020	 18.45014	 18.15324	 17.68309	  0.48811	 42.73593	708.59998	 22.60	
  1.691	128.401	 42.77362	 16.38416	 19.84538	 20.02386	 15.96154	  0.42013	 42.75727	708.58002	 22.70	
  1.692	 77.194	 42.76712	 18.21309	 17.84690	 20.47062	 15.56254	  0.50745	 42.74646	708.56000	 22.70	
  1.699	 26.182	 42.78068	 19.90960	 16.29453	 19.14664	 16.77181	  0.54616	 42.75456	708.54999	 22.70	
  1.699	-26.182	 42.77299	 19.87798	 16.32563	 17.09105	 18.76221	  0.51209	 42.73961	708.48999	 22.80	
  1.692	-77.194	 42.80230	 18.17176	 17.91050	 15.94800	 19.82819	  0.43392	 42.78012	708.71002	 22.80	
  1.691	-128.401	 42.76473	 16.32698	 19.88166	 16.35363	 19.28356	  0.34948	 42.75753	708.65997	 22.90	
  1.700	180.000	 42.79932	 15.49767	 20.79762	 18.16408	 17.58099	  0.35986	 42.78027	708.53998	 22.90	
  3.400	180.000	 42.71791	 12.98892	 23.08268	 18.04374	 17.37114	  0.15499	 42.78772	708.57001	 23.00	
  3.388	-152.325	 42.70047	 13.47916	 22.52964	 15.89153	 19.36392	  0.15847	 42.75687	708.54999	 23.00	
  3.397	-124.529	 42.74223	 14.93689	 21.02612	 14.24692	 21.27881	  0.17365	 42.77446	708.59998	 23.00	
  3.399	-96.763	 42.74086	 16.91196	 18.87266	 13.43627	 22.22632	  0.22922	 42.77277	708.50000	 23.10	
  3.394	-69.283	 42.75139	 19.15415	 16.65352	 13.67898	 21.97578	  0.30321	 42.77302	708.65997	 23.10	
  3.400	-41.398	 42.76941	 21.21106	 14.82743	 14.95507	 20.59786	  0.40653	 42.79266	708.58002	 23.20	
  3.401	-14.021	 42.77676	 22.39671	 13.79637	 16.84496	 18.79700	  0.46742	 42.79206	708.59998	 23.20	
  3.401	 14.021	 42.76443	 22.42812	 13.74734	 19.02024	 16.60685	  0.48855	 42.79718	708.64001	 23.30	
  3.400	 41.398	 42.77092	 21.32952	 14.72336	 21.16775	 14.71923	  0.47937	 42.82729	708.83002	 23.30	
  3.394	 69.283	 42.76339	 19.30066	 16.52720	 22.55956	 13.45289	  0.43508	 42.82283	708.78003	 23.40	
  3.399	 96.763	 42.77029	 17.14456	 18.70424	 22.89500	 13.13285	  0.35441	 42.84939	708.67999	 23.40	
  3.397	124.529	 42.73751	 15.09059	 20.88108	 22.05341	 13.82346	  0.28720	 42.81138	708.59003	 23.50	
  3.388	152.325	 42.73930	 13.58327	 22.48177	 20.26275	 15.41712	  0.21173	 42.81419	708.64001	 23.50	
  5.099	161.165	 42.49184	 10.87865	 24.82331	 20.09283	 14.94338	 -0.07392	 42.81985	708.81000	 23.50	
  5.109	142.013	 42.48160	 11.95136	 23.61372	 22.29144	 13.02846	  0.06483	 42.81829	708.67999	 23.60	
  5.095	123.033	 42.50457	 13.66115	 21.78338	 23.98382	 11.58569	  0.08937	 42.84598	708.65002	 23.60	
  5.105	104.191	 42.51330	 15.77910	 19.55973	 24.97991	 10.76183	  0.13585	 42.84230	708.59003	 23.70	
  5.093	 85.207	 42.53056	 17.91521	 17.22583	 25.12833	 10.69492	  0.19788	 42.85888	708.57001	 23.70	
  5.104	 66.290	 42.54311	 20.28694	 15.05480	 24.49116	 11.26590	  0.26585	 42.84858	708.67999	 23.70	
  5.094	 47.331	 42.56997	 22.41730	 13.21941	 23.08580	 12.52039	  0.31742	 42.84909	708.72998	 23.80	
  5.089	 28.397	 42.59492	 23.90560	 11.94524	 21.11154	 14.27963	  0.37757	 42.84820	708.65002	 23.80	
  5.096	  9.576	 42.61669	 24.68497	 11.25602	 18.76258	 16.38881	  0.36835	 42.86367	708.71997	 23.90	
  5.096	 -9.576	 42.61750	 24.67789	 11.30819	 16.52965	 18.58224	  0.33456	 42.85590	708.65997	 23.90	
  5.089	-28.397	 42.63277	 23.82172	 12.04135	 14.42100	 20.69754	  0.27744	 42.85400	708.66998	 23.90	
  5.094	-47.331	 42.66570	 22.24118	 13.41882	 12.68056	 22.66412	  0.19264	 42.88095	708.72998	 24.00	
  5.104	-66.290	 42.64865	 20.10233	 15.29690	 11.46705	 23.97441	  0.09495	 42.86140	708.72998	 24.00	
  5.093	-85.207	 42.66941	 17.71515	 17.52106	 11.04917	 24.50817	  0.01908	 42.88036	708.62000	 24.00	
  5.105	-104.191	 42.65241	 15.55987	 19.85068	 11.23427	 24.24512	 -0.04178	 42.87323	708.56000	 24.10	
  5.095	-123.033	 42.65016	 13.47719	 22.05619	 12.09406	 23.19495	 -0.09575	 42.87898	708.59998	 24.10	
  5.109	-142.013	 42.63282	 11.84127	 23.82213	 13.55640	 21.43776	 -0.10250	 42.89430	708.64001	 24.20	
  5.099	-161.165	 42.61787	 10.82110	 24.95235	 15.60116	 19.34944	 -0.10045	 42.90503	708.59003	 24.20	
  5.100	180.000	 42.56887	 10.52121	 25.27665	 17.81721	 17.10311	 -0.09859	 42.88825	708.67999	 24.20	
  6.800	180.000	 42.16196	  7.99583	 27.34220	 17.43867	 16.63425	 -0.42042	 42.87533	708.50000	 24.30	
  6.796	-166.229	 42.20539	  8.20078	 27.09091	 15.27465	 18.72931	 -0.41735	 42.88300	708.56000	 24.30	
  6.808	-152.311	 42.25768	  8.91000	 26.31607	 13.19680	 20.90173	 -0.42524	 42.90172	708.63000	 24.30	
  6.795	-138.383	 42.28761	 10.10146	 24.99770	 11.45669	 22.97406	 -0.40580	 42.89648	708.53998	 24.40	
  6.792	-124.591	 42.31442	 11.67973	 23.24684	 10.10452	 24.66565	 -0.39326	 42.90129	708.58002	 24.40	
  6.787	-110.754	 42.32093	 13.58454	 21.14798	  9.17126	 25.85761	 -0.38926	 42.88720	708.50000	 24.40	
  6.800	-96.985	 42.33215	 15.72947	 18.91261	  8.62553	 26.53079	 -0.35636	 42.90233	708.46997	 24.50	
  6.800	-83.015	 42.35816	 17.82776	 16.66629	  8.59945	 26.58058	 -0.33315	 42.91503	708.48999	 24.50	
  6.787	-69.246	 42.35679	 20.14360	 14.52838	  9.03543	 26.06125	 -0.24047	 42.90764	708.51001	 24.60	
  6.792	-55.409	 42.38326	 22.36986	 12.58808	  9.95651	 25.03412	 -0.16035	 42.93227	708.50000	 24.60	
  6.795	-41.617	 42.35761	 24.20957	 10.99517	 11.31960	 23.46413	 -0.09567	 42.91993	708.53003	 24.60	
  6.808	-27.689	 42.35803	 25.69394	  9.76038	 13.06306	 21.48385	 -0.00805	 42.92892	708.58002	 24.60	
  6.796	-13.771	 42.33187	 26.61100	  8.99768	 15.15603	 19.38737	  0.08259	 42.92443	708.54999	 24.70	
  6.800	  0.000	 42.30796	 26.93175	  8.70236	 17.26879	 17.19576	  0.09508	 42.92093	708.51001	 24.70	
  6.796	 13.771	 42.30309	 26.66756	  8.90943	 19.47584	 15.04740	  0.12411	 42.92663	708.56000	 24.80	
  6.808	 27.689	 42.27258	 25.86314	  9.58036	 21.82615	 12.97517	  0.13977	 42.91617	708.58002	 24.80	
  6.795	 41.617	 42.25317	 24.49963	 10.72589	 23.84262	 11.19754	  0.08017	 42.93204	708.63000	 24.80	
  6.792	 55.409	 42.24574	 22.67533	 12.26822	 25.48557	  9.74851	  0.00307	 42.94545	708.59003	 24.90	
  6.787	 69.246	 42.20721	 20.41607	 14.17004	 26.58521	  8.78661	 -0.02491	 42.92311	708.46997	 24.90	
  6.800	 83.015	 42.20116	 18.15568	 16.25803	 27.20883	  8.23933	 -0.08296	 42.94027	708.53998	 24.90	
  6.800	 96.985	 42.19160	 16.03590	 18.51749	 27.23526	  8.13974	 -0.13931	 42.93499	708.54999	 24.90	
  6.787	110.754	 42.19189	 13.86333	 20.78968	 26.67521	  8.57980	 -0.16895	 42.94664	708.60999	 25.00	
  6.792	124.591	 42.17309	 11.90000	 22.90152	 25.59334	  9.46025	 -0.20005	 42.93487	708.56000	 25.00	
  6.795	138.383	 42.19759	 10.29583	 24.71731	 24.01394	 10.81630	 -0.15323	 42.95596	708.58002	 25.00	
  6.808	152.311	 42.18401	  9.03825	 26.16729	 21.98047	 12.52783	 -0.33304	 42.94159	708.56000	 25.00	
  6.796	166.229	 42.20111	  8.26855	 27.04459	 19.72412	 14.51031	 -0.39150	 42.93741	708.50000	 25.10	
  8.491	168.704	 41.62877	  5.61902	 29.06063	 19.24352	 13.86702	 -0.70627	 42.93530	708.62000	 25.10	
  8.502	157.493	 41.59726	  6.16990	 28.31737	 21.57477	 11.77266	 -0.73417	 42.95285	708.46997	 25.10	
  8.494	146.194	 41.58821	  7.21604	 27.06402	 23.79848	  9.89354	 -0.65653	 42.94442	708.50000	 25.20	
  8.495	135.039	 41.59120	  8.60537	 25.46842	 25.67056	  8.32205	 -0.55725	 42.92570	708.54999	 25.20	
  8.487	123.723	 41.60441	 10.34092	 23.54238	 27.20485	  7.06860	 -0.53609	 42.95481	708.54999	 25.20	
  8.492	112.575	 41.58974	 12.26724	 21.41035	 28.34570	  6.13848	 -0.51953	 42.93733	708.53998	 25.20	
  8.510	101.220	 41.61078	 14.46131	 19.10487	 29.09117	  5.58058	 -0.52806	 42.96531	708.48999	 25.30	
  8.500	 90.000	 41.62817	 16.71185	 16.81377	 29.29830	  5.46434	 -0.47581	 42.95006	708.57001	 25.30	
  8.510	 78.780	 41.64618	 18.77717	 14.61663	 29.03804	  5.75481	 -0.44072	 42.95486	708.52002	 25.30	
  8.492	 67.425	 41.64212	 21.18816	 12.48714	 28.25403	  6.35866	 -0.39908	 42.93430	708.53003	 25.40	
  8.487	 56.277	 41.67544	 23.44288	 10.61246	 27.07107	  7.40060	 -0.35597	 42.93760	708.53003	 25.40	
  8.495	 44.961	 41.72585	 25.37715	  9.01911	 25.49821	  8.81228	 -0.29097	 42.96397	708.51001	 25.40	
  8.494	 33.806	 41.74422	 26.88689	  7.78533	 23.62590	 10.48370	 -0.20808	 42.96082	708.51001	 25.40	
  8.502	 22.507	 41.76327	 28.02662	  6.86104	 21.43225	 12.44139	 -0.19122	 42.94450	708.53998	 25.40	
  8.491	 11.296	 41.79016	 28.69717	  6.31648	 19.03806	 14.58982	 -0.20006	 42.96103	708.46997	 25.50	
  8.500	  0.000	 41.83765	 28.92801	  6.13706	 16.78117	 16.80673	 -0.23714	 42.97805	708.51001	 25.50	
  8.491	-11.296	 41.84153	 28.63636	  6.36800	 14.55420	 18.94778	 -0.29714	 42.96889	708.53003	 25.50	
  8.502	-22.507	 41.85496	 27.86580	  6.97783	 12.39683	 21.13524	 -0.32359	 42.96637	708.54999	 25.50	
  8.494	-33.806	 41.87592	 26.63355	  8.03718	 10.51063	 23.35123	 -0.44772	 42.96034	708.50000	 25.50	
  8.495	-44.961	 41.88857	 25.05148	  9.37274	  8.95484	 25.21057	 -0.50758	 42.95708	708.51001	 25.60	
  8.487	-56.277	 41.88650	 23.07639	 11.00033	  7.58229	 26.74397	 -0.56674	 42.94552	708.50000	 25.60	
  8.492	-67.425	 41.90519	 20.85134	 12.94513	  6.67020	 27.84421	 -0.66670	 42.98794	708.34998	 25.60	
  8.510	-78.780	 41.89031	 18.46468	 15.09116	  6.14418	 28.45675	 -0.71913	 42.96601	708.46002	 25.60	
  8.500	-90.000	 41.88766	 16.35491	 17.32663	  6.00699	 28.65926	 -0.74343	 42.97083	708.54999	 25.70	
  8.510	-101.220	 41.85747	 14.10641	 19.60912	  6.20017	 28.34538	 -0.78530	 42.96578	708.47998	 25.70	
  8.492	-112.575	 41.84631	 11.97521	 21.89706	  6.82351	 27.53088	 -0.79874	 42.95558	708.38000	 25.70	
  8.487	-123.723	 41.85542	 10.12151	 24.00933	  7.77888	 26.33228	 -0.77403	 42.96618	708.46997	 25.70	
  8.495	-135.039	 41.83670	  8.45922	 25.88261	  9.08271	 24.69156	 -0.79544	 42.96373	708.42999	 25.70	
  8.494	-146.194	 41.79580	  7.14504	 27.37351	 10.71966	 22.68555	 -0.77428	 42.95279	708.37000	 25.80	
  8.502	-157.493	 41.76577	  6.18379	 28.48202	 12.62509	 20.41768	 -0.77247	 42.95506	708.35999	 25.80	
  8.491	-168.704	 41.76063	  5.61938	 29.20184	 14.80575	 18.32869	 -0.79990	 42.98683	708.45001	 25.80	
  8.500	180.000	 41.71235	  5.42800	 29.39178	 17.02689	 16.05892	 -0.78888	 42.98639	708.38000	 25.80	
 10.200	180.000	 40.97576	  2.80918	 31.23106	 16.44489	 15.39322	 -1.16466	 42.96804	708.45001	 25.90	
 10.191	-170.497	 41.04100	  2.90719	 31.09786	 14.17114	 17.68834	 -1.20191	 42.98959	708.51001	 25.90	
 10.210	-161.034	 41.06953	  3.38983	 30.52131	 11.98110	 19.83152	 -1.19522	 42.98077	708.44000	 25.90	
 10.194	-151.526	 41.13001	  4.21176	 29.54519	 10.00455	 22.05764	 -1.15979	 42.98336	708.48999	 25.90	
 10.190	-142.105	 41.13932	  5.32657	 28.22544	  8.20171	 24.28300	 -1.18217	 42.96345	708.53003	 25.90	
 10.215	-132.646	 41.14275	  6.74771	 26.58081	  6.62894	 26.25003	 -1.19408	 42.96461	708.40002	 26.00	
 10.203	-123.092	 41.16415	  8.41693	 24.63004	  5.38786	 27.82398	 -1.21668	 42.95879	708.47998	 26.00	
 10.192	-113.678	 41.19452	 10.30356	 22.51838	  4.52974	 28.98519	 -1.18328	 42.96949	708.41998	 26.00	
 10.208	-104.249	 41.20461	 12.33784	 20.25788	  3.86955	 29.87379	 -1.16683	 42.98512	708.40997	 26.00	
 10.210	-94.801	 41.21074	 14.55407	 17.94604	  3.49948	 30.33537	 -1.17787	 42.97445	708.41998	 26.00	
 10.210	-85.199	 41.22120	 16.85797	 15.62348	  3.43346	 30.41853	 -1.19175	 42.97158	708.44000	 26.00	
 10.208	-75.751	 41.23948	 19.03053	 13.36756	  3.72675	 30.10838	 -1.16003	 42.98431	708.53003	 26.10	
 10.192	-66.322	 41.23413	 21.43526	 11.28161	  4.32062	 29.36744	 -1.12510	 42.96901	708.52002	 26.10	
 10.203	-56.908	 41.22823	 23.67365	  9.38852	  5.17823	 28.31091	 -1.02498	 42.97594	708.45001	 26.10	
 10.215	-47.354	 41.22904	 25.69703	  7.72145	  6.41395	 26.87387	 -0.96561	 42.97102	708.53998	 26.10	
 10.190	-37.895	 41.21467	 27.42854	  6.29739	  7.99460	 25.04872	 -0.95944	 42.96650	708.46997	 26.20	
 10.194	-28.474	 41.21320	 28.79247	  5.15269	  9.76128	 22.95606	 -0.86482	 42.97832	708.40997	 26.20	
 10.210	-18.966	 41.18270	 29.87052	  4.36320	 11.75121	 20.60262	 -0.76337	 42.97496	708.40002	 26.20	
 10.191	 -9.503	 41.17323	 30.53292	  3.86514	 13.94846	 18.54567	 -0.70440	 42.98379	708.39001	 26.20	
 10.200	  0.000	 41.13941	 30.79509	  3.58992	 16.18712	 16.26402	 -0.67879	 42.96449	708.46997	 26.20	
 10.191	  9.503	 41.11910	 30.59682	  3.76008	 18.46217	 14.02703	 -0.64660	 42.96060	708.46997	 26.20	
 10.210	 18.966	 41.07604	 30.00180	  4.16721	 20.86062	 11.80196	 -0.61208	 42.96992	708.42999	 26.30	
 10.194	 28.474	 41.05378	 29.02180	  4.91677	 23.17461	  9.74795	 -0.59904	 42.96649	708.40002	 26.30	
 10.190	 37.895	 41.02035	 27.72897	  5.92059	 25.22972	  7.91430	 -0.68917	 42.97166	708.35999	 26.30	
 10.215	 47.354	 40.99381	 26.07157	  7.24856	 27.08481	  6.22461	 -0.83128	 42.98862	708.47998	 26.30	
 10.203	 56.908	 40.94699	 24.04412	  8.87874	 28.63977	  4.81262	 -0.79538	 42.97742	708.42999	 26.30	
 10.192	 66.322	 40.93431	 21.80518	 10.74502	 29.82753	  3.85930	 -0.84655	 42.97588	708.44000	 26.40	
 10.208	 75.751	 40.91996	 19.38398	 12.79249	 30.68064	  3.21703	 -0.86761	 42.97071	708.44000	 26.40	
 10.210	 85.199	 40.90226	 17.29210	 14.97647	 31.15668	  2.79993	 -0.90869	 42.98285	708.46002	 26.40	
 10.210	 94.801	 40.89142	 14.98441	 17.30058	 31.18412	  2.72314	 -0.99190	 42.97829	708.44000	 26.40	
 10.208	104.249	 40.86159	 12.74019	 19.59808	 30.77822	  2.97944	 -1.02952	 42.96795	708.34003	 26.40	
 10.192	113.678	 40.86226	 10.61862	 21.89254	 29.96198	  3.61732	 -0.98995	 42.97455	708.41998	 26.40	
 10.203	123.092	 40.88145	  8.68338	 24.05936	 28.80663	  4.53369	 -0.97423	 42.99877	708.44000	 26.40	
 10.215	132.646	 40.87260	  6.89877	 26.06677	 27.27051	  5.74930	 -1.01648	 42.97494	708.29999	 26.40	
 10.190	142.105	 40.89133	  5.48302	 27.80796	 25.38360	  7.34030	 -1.09121	 42.98362	708.44000	 26.40	
 10.194	151.526	 40.87009	  4.33613	 29.19647	 23.34968	  9.02987	 -1.12852	 42.96585	708.37000	 26.50	
 10.210	161.034	 40.90643	  3.47571	 30.31415	 21.02499	 11.04008	 -1.12366	 42.98875	708.34003	 26.50	
 10.191	170.497	 40.94917	  3.03882	 30.96525	 18.66265	 13.20271	 -1.14622	 42.96632	708.41998	 26.50	
 11.899	171.783	 40.07720	  0.41219	 32.72974	 18.03233	 12.41475	 -1.50520	 42.96579	708.39001	 26.50	
 11.890	163.610	 40.05495	  0.86012	 32.12852	 20.31225	 10.24564	 -1.49690	 42.97586	708.40997	 26.50	
 11.889	155.445	 40.00807	  1.54575	 31.17476	 22.69304	  8.14834	 -1.54522	 42.98197	708.48999	 26.50	
 11.909	147.299	 39.98022	  2.47644	 29.91018	 24.86067	  6.29269	 -1.56616	 42.97200	708.50000	 26.60	
 11.902	139.148	 39.98618	  3.69699	 28.34902	 26.88607	  4.60467	 -1.51436	 42.97666	708.35999	 26.60	
 11.894	130.867	 39.99041	  5.20417	 26.52535	 28.67543	  3.10155	 -1.43547	 42.98236	708.46002	 26.60	
 11.897	122.732	 39.97090	  6.93452	 24.48827	 30.18893	  1.98973	 -1.42194	 42.96532	708.42999	 26.60	
 11.903	114.597	 39.97720	  8.87834	 22.30910	 31.38365	  1.18881	 -1.46153	 42.97607	708.34998	 26.60	
 11.893	106.346	 39.98009	 11.01108	 19.98973	 32.24641	  0.64322	 -1.51034	 42.96167	708.47998	 26.60	
 11.892	 98.155	 39.99615	 13.22843	 17.66575	 32.79841	  0.28952	 -1.52022	 42.96798	708.38000	 26.60	
 11.900	 90.000	 40.02850	 15.47974	 15.39549	 32.99681	  0.16468	 -1.43252	 42.98855	708.45001	 26.70	
 11.892	 81.845	 40.02453	 17.75560	 13.13432	 32.74766	  0.34662	 -1.35854	 42.95982	708.35999	 26.70	
 11.893	 73.654	 40.04456	 19.88608	 10.96262	 32.14894	  0.83128	 -1.35369	 42.96589	708.44000	 26.70	
 11.903	 65.403	 40.05257	 22.31750	  8.92880	 31.22758	  1.46781	 -1.38954	 42.97651	708.42999	 26.70	
 11.897	 57.268	 40.05919	 24.55054	  7.11516	 29.97178	  2.33034	 -1.35732	 42.96479	708.45001	 26.70	
 11.894	 49.133	 40.11061	 26.58651	  5.48752	 28.47793	  3.54639	 -1.38632	 42.98453	708.47998	 26.70	
 11.902	 40.852	 40.13432	 28.36655	  4.07276	 26.68487	  5.21789	 -1.20700	 42.96473	708.29999	 26.70	
 11.909	 32.701	 40.17691	 29.81492	  2.98109	 24.66510	  7.02407	 -1.05867	 42.96943	708.47998	 26.80	
 11.889	 24.555	 40.19999	 30.99937	  2.14033	 22.46572	  8.96026	 -1.03442	 42.96078	708.40997	 26.80	
 11.890	 16.390	 40.24473	 31.88879	  1.55754	 20.09683	 11.12815	 -1.03811	 42.96429	708.41998	 26.80	
 11.899	  8.217	 40.26834	 32.44011	  1.19682	 17.74349	 13.36313	 -1.07818	 42.96266	708.44000	 26.80	
 11.900	  0.000	 40.29710	 32.60900	  1.05368	 15.52551	 15.60857	 -1.09478	 42.96446	708.40002	 26.80	
 11.899	 -8.217	 40.31232	 32.37840	  1.26237	 13.22441	 17.94595	 -1.11412	 42.96942	708.38000	 26.80	
 11.890	-16.390	 40.35654	 31.76606	  1.73942	 11.02804	 20.06631	 -1.18694	 42.98121	708.47998	 26.90	
 11.889	-24.555	 40.38247	 30.78618	  2.39519	  8.98509	 22.31688	 -1.27846	 42.98618	708.39001	 26.90	
 11.909	-32.701	 40.36842	 29.52745	  3.27413	  7.06923	 24.58168	 -1.39074	 42.96866	708.34998	 26.90	
 11.902	-40.852	 40.38157	 28.01708	  4.48555	  5.33426	 26.58650	 -1.45515	 42.97438	708.44000	 26.90	
 11.894	-49.133	 40.39160	 26.16427	  5.97138	  3.88742	 28.30886	 -1.43277	 42.96262	708.39001	 26.90	
 11.897	-57.268	 40.40549	 24.13021	  7.64262	  2.75728	 29.67101	 -1.45133	 42.96552	708.38000	 26.90	
 11.903	-65.403	 40.38951	 21.84905	  9.46986	  1.84746	 30.81582	 -1.50628	 42.96321	708.33002	 26.90	
 11.893	-73.654	 40.38800	 19.42058	 11.56972	  1.21100	 31.64008	 -1.51588	 42.96769	708.47998	 27.00	
 11.892	-81.845	 40.39506	 17.21776	 13.79921	  0.81067	 32.18583	 -1.51411	 42.97398	708.34998	 27.00	
 11.900	-90.000	 40.35720	 14.94399	 16.06974	  0.68638	 32.30076	 -1.49814	 42.95722	708.32001	 27.00	
 11.892	-98.155	 40.33197	 12.70615	 18.34145	  0.89607	 31.98153	 -1.48040	 42.94927	708.39001	 27.00	
 11.893	-106.346	 40.31345	 10.50833	 20.67323	  1.34310	 31.31889	 -1.48850	 42.93034	708.29999	 27.00	
 11.903	-114.597	 40.32556	  8.48053	 22.98824	  2.04748	 30.36645	 -1.50144	 42.93768	708.34998	 27.00	
 11.897	-122.732	 40.34000	  6.62923	 25.13109	  2.99278	 29.12822	 -1.52875	 42.95723	708.33002	 27.10	
 11.894	-130.867	 40.30543	  4.95949	 27.08759	  4.15658	 27.61553	 -1.51414	 42.95271	708.37000	 27.10	
 11.902	-139.148	 40.27318	  3.51640	 28.83345	  5.61814	 25.73953	 -1.51363	 42.94188	708.39001	 27.10	
 11.909	-147.299	 40.25512	  2.28434	 30.30199	  7.31228	 23.59967	 -1.54001	 42.93863	708.26001	 27.10	
 11.889	-155.445	 40.25115	  1.35041	 31.49443	  9.22075	 21.24603	 -1.55181	 42.95935	708.41998	 27.10	
 11.890	-163.610	 40.19618	  0.65969	 32.32243	 11.25197	 19.14919	 -1.58479	 42.93516	708.44000	 27.10	
 11.899	-171.783	 40.13086	  0.24023	 32.84157	 13.45336	 16.93551	 -1.59321	 42.93500	708.35999	 27.10	
 11.900	180.000	 40.08167	  0.18112	 32.95980	 15.76148	 14.62649	 -1.56563	 42.93204	708.44000	 27.10	
 13.600	180.000	 39.04190	 -2.27701	 34.60670	 14.96415	 13.71181	 -1.87932	 42.93122	708.62000	 27.20	
 13.608	-172.853	 39.09066	 -2.23684	 34.49937	 12.70938	 15.96900	 -1.90429	 42.93564	708.34998	 27.20	
 13.611	-165.583	 39.17039	 -1.95213	 34.09270	 10.46428	 18.32212	 -1.88544	 42.95979	708.27002	 27.20	
 13.601	-158.353	 39.20546	 -1.44600	 33.33932	  8.36621	 20.35892	 -1.81379	 42.94655	708.34003	 27.20	
 13.609	-151.210	 39.21824	 -0.70685	 32.23888	  6.39321	 22.70707	 -1.75853	 42.90674	708.33002	 27.20	
 13.611	-143.999	 39.28349	  0.34711	 30.90669	  4.61314	 25.01392	 -1.72569	 42.95186	708.39001	 27.20	
 13.601	-136.825	 39.30786	  1.63284	 29.30292	  3.10791	 27.03673	 -1.70527	 42.93985	708.39001	 27.20	
 13.596	-129.640	 39.32862	  3.07988	 27.53411	  1.79162	 28.79371	 -1.68033	 42.94160	708.41998	 27.30	
 13.611	-122.431	 39.33220	  4.71875	 25.51927	  0.54688	 30.34935	 -1.69081	 42.94470	708.28998	 27.30	
 13.604	-115.211	 39.29491	  6.58384	 23.30637	 -0.42616	 31.65082	 -1.67673	 42.91157	708.16998	 27.30	
 13.595	-108.042	 39.29287	  8.59850	 21.01723	 -1.11022	 32.76212	 -1.67010	 42.92554	708.39001	 27.30	
 13.607	-100.793	 39.29306	 10.71305	 18.67025	 -1.60812	 33.52431	 -1.67213	 42.92753	708.45001	 27.30	
 13.601	-93.617	 39.28822	 12.91767	 16.39733	 -1.82940	 33.91988	 -1.67597	 42.91024	708.35999	 27.30	
 13.601	-86.383	 39.30906	 15.19620	 14.10759	 -1.88300	 34.01138	 -1.68443	 42.92348	708.31000	 27.30	
 13.607	-79.207	 39.32233	 17.49909	 11.84033	 -1.66195	 33.74367	 -1.69168	 42.91800	708.28003	 27.30	
 13.595	-71.958	 39.34191	 19.74281	  9.67476	 -1.19964	 33.13697	 -1.72300	 42.91491	708.32001	 27.30	
 13.604	-64.789	 39.34283	 22.10095	  7.66822	 -0.59146	 32.20409	 -1.72601	 42.90853	708.34998	 27.30	
 13.611	-57.569	 39.34477	 24.39974	  5.81079	  0.21101	 30.97367	 -1.77298	 42.91192	708.25000	 27.40	
 13.596	-50.360	 39.35880	 26.51614	  4.14348	  1.33378	 29.55110	 -1.82297	 42.91374	708.38000	 27.40	
 13.601	-43.175	 39.36876	 28.37773	  2.66860	  2.71714	 27.95152	 -1.82926	 42.93365	708.29999	 27.40	
 13.611	-36.001	 39.32782	 30.00843	  1.37020	  4.29498	 26.05409	 -1.76855	 42.91788	708.34998	 27.40	
 13.609	-28.790	 39.32541	 31.48013	  0.35449	  6.08636	 23.85279	 -1.69021	 42.91803	708.40997	 27.40	
 13.601	-21.647	 39.31156	 32.64406	 -0.38631	  8.07785	 21.50340	 -1.62120	 42.91940	708.39001	 27.40	
 13.611	-14.417	 39.26737	 33.51416	 -0.90318	 10.14097	 19.43234	 -1.55350	 42.90039	708.34998	 27.40	
 13.608	 -7.147	 39.24816	 34.05780	 -1.30902	 12.36447	 17.15865	 -1.50299	 42.90393	708.34003	 27.40	
 13.600	  0.000	 39.26177	 34.26802	 -1.47559	 14.63036	 14.86147	 -1.50883	 42.91988	708.38000	 27.40	
 13.608	  7.147	 39.20109	 34.13818	 -1.40219	 16.84507	 12.58911	 -1.51162	 42.90927	708.41998	 27.40	
 13.611	 14.417	 39.18391	 33.67333	 -1.09797	 19.14874	 10.29148	 -1.49933	 42.91964	708.40002	 27.40	
 13.601	 21.647	 39.15178	 32.85385	 -0.56570	 21.54029	  8.09459	 -1.46932	 42.91240	708.34998	 27.50	
 13.609	 28.790	 39.12183	 31.74169	  0.10505	 23.80366	  6.06597	 -1.49095	 42.90463	708.28998	 27.50	
 13.611	 36.001	 39.09986	 30.35937	  1.09865	 25.99759	  4.08901	 -1.58948	 42.93126	708.42999	 27.50	
 13.601	 43.175	 39.03989	 28.78845	  2.23296	 27.94413	  2.48825	 -1.78762	 42.91824	708.28003	 27.50	
 13.596	 50.360	 39.01123	 26.98064	  3.60891	 29.64316	  1.14623	 -1.94837	 42.92231	708.34003	 27.50	
 13.611	 57.569	 38.98272	 24.92141	  5.23468	 31.16010	  0.05997	 -2.03975	 42.91900	708.27002	 27.50	
 13.604	 64.789	 38.93576	 22.61391	  7.04039	 32.44302	 -0.80979	 -2.02177	 42.90599	708.28003	 27.50	
 13.595	 71.958	 38.93521	 20.22954	  9.00222	 33.46478	 -1.49096	 -1.87193	 42.92239	708.35999	 27.60	
 13.607	 79.207	 38.90516	 18.07732	 11.12195	 34.19477	 -2.04980	 -1.83884	 42.90966	708.34998	 27.50	
 13.601	 86.383	 38.88308	 15.80165	 13.31449	 34.52744	 -2.36917	 -1.88688	 42.89750	708.33002	 27.50	
 13.601	 93.617	 38.89125	 13.51955	 15.61260	 34.55830	 -2.33716	 -1.98614	 42.91950	708.28003	 27.60	
 13.607	100.793	 38.84684	 11.26056	 17.88129	 34.23024	 -2.14501	 -2.03165	 42.90068	708.33002	 27.60	
 13.595	108.042	 38.85591	  9.08634	 20.20056	 33.60743	 -1.74277	 -1.99921	 42.91505	708.40002	 27.60	
 13.604	115.211	 38.85172	  6.98765	 22.49748	 32.67582	 -1.17872	 -1.89240	 42.91444	708.27002	 27.60	
 13.611	122.431	 38.86080	  5.05760	 24.74302	 31.42493	 -0.34721	 -1.85197	 42.92242	708.34998	 27.60	
 13.596	129.640	 38.87499	  3.37788	 26.80333	 29.89213	  0.68449	 -1.87852	 42.92878	708.41998	 27.60	
 13.601	136.825	 38.88867	  1.89011	 28.64920	 28.19540	  1.93986	 -1.94845	 42.91880	708.27002	 27.60	
 13.611	143.999	 38.86857	  0.65515	 30.29767	 26.25209	  3.41806	 -2.01799	 42.89578	708.32001	 27.60	
 13.609	151.210	 38.89122	 -0.34616	 31.78468	 24.09464	  5.20916	 -1.97907	 42.91535	708.21002	 27.60	
 13.601	158.353	 38.90183	 -1.13105	 32.93142	 21.81651	  7.13615	 -1.89305	 42.90128	708.28998	 27.60	
 13.611	165.583	 38.94415	 -1.69271	 33.81982	 19.45993	  9.27614	 -1.84214	 42.91927	708.22998	 27.60	
 13.608	172.853	 38.98930	 -2.05079	 34.36458	 17.17291	 11.54241	 -1.83888	 42.92516	708.27002	 27.60	
 15.298	173.587	 37.83189	 -4.46372	 35.86818	 16.30281	 10.49857	 -2.09842	 42.93498	708.21002	 27.60	
 15.291	167.167	 37.78214	 -4.14263	 35.35096	 18.54613	  8.24817	 -2.10682	 42.90542	708.23999	 27.60	
 15.307	160.676	 37.71165	 -3.73021	 34.58363	 20.86528	  6.03840	 -2.19652	 42.91126	708.16998	 27.70	
 15.300	154.261	 37.70676	 -3.05465	 33.53289	 23.15432	  4.11215	 -2.30114	 42.92086	708.21997	 27.70	
 15.288	147.854	 37.69889	 -2.15327	 32.19925	 25.41902	  2.43918	 -2.38270	 42.93213	708.17999	 27.70	
 15.293	141.428	 37.68413	 -1.08013	 30.59958	 27.50982	  0.86591	 -2.38929	 42.90645	708.19000	 27.70	
 15.299	134.985	 37.69217	  0.17646	 28.85277	 29.34463	 -0.49707	 -2.34133	 42.90741	708.23999	 27.70	
 15.305	128.583	 37.66247	  1.55388	 26.93535	 31.03919	 -1.66242	 -2.30545	 42.89358	708.15997	 27.70	
 15.309	122.142	 37.65071	  3.12588	 24.86712	 32.56577	 -2.65089	 -2.29863	 42.91712	708.16998	 27.70	
 15.304	115.711	 37.64120	  5.00834	 22.61474	 33.85323	 -3.45670	 -2.35053	 42.91838	708.28998	 27.70	
 15.297	109.291	 37.63799	  7.04644	 20.30955	 34.84525	 -4.02987	 -2.43967	 42.89773	708.20001	 27.80	
 15.293	102.897	 37.66954	  9.22131	 18.05124	 35.56861	 -4.45755	 -2.51530	 42.93106	708.17999	 27.70	
 15.293	 96.458	 37.67048	 11.47205	 15.72802	 35.94858	 -4.70674	 -2.51633	 42.90793	708.34003	 27.80	
 15.300	 90.000	 37.67181	 13.72601	 13.42553	 36.08221	 -4.84850	 -2.42330	 42.90742	708.28998	 27.80	
 15.293	 83.542	 37.68776	 16.00546	 11.22637	 35.91220	 -4.74825	 -2.35132	 42.90104	708.25000	 27.80	
 15.293	 77.103	 37.70964	 18.33594	  9.04600	 35.45322	 -4.42165	 -2.34537	 42.93086	708.17999	 27.80	
 15.297	 70.709	 37.72556	 20.45639	  7.00028	 34.68121	 -3.88965	 -2.43782	 42.92141	708.32001	 27.80	
 15.304	 64.289	 37.73106	 22.81793	  5.09356	 33.63328	 -3.19089	 -2.53803	 42.90832	708.25000	 27.80	
 15.309	 57.858	 37.75749	 25.14660	  3.30336	 32.30441	 -2.30292	 -2.57048	 42.89186	708.28003	 27.80	
 15.305	 51.417	 37.82952	 27.25364	  1.76712	 30.77534	 -1.17123	 -2.42314	 42.92335	708.28998	 27.80	
 15.299	 45.015	 37.85989	 29.07407	  0.37015	 29.05532	  0.10390	 -2.29517	 42.90049	708.29999	 27.80	
 15.293	 38.572	 37.90678	 30.73110	 -0.77767	 27.18556	  1.53351	 -2.11741	 42.91162	708.34998	 27.80	
 15.288	 32.146	 37.95099	 32.24016	 -1.75454	 25.09085	  3.16706	 -1.98772	 42.90462	708.34998	 27.80	
 15.300	 25.739	 37.97123	 33.54479	 -2.52994	 22.83059	  5.00860	 -1.94054	 42.90648	708.28998	 27.90	
 15.307	 19.324	 37.99463	 34.55238	 -3.12569	 20.54584	  7.10806	 -1.90334	 42.91428	708.31000	 27.90	
 15.291	 12.833	 38.04976	 35.25558	 -3.54569	 18.19123	  9.38741	 -1.90996	 42.91187	708.26001	 27.90	
 15.298	  6.413	 38.06986	 35.67042	 -3.87550	 15.89357	 11.70902	 -1.91258	 42.91651	708.27002	 27.90	
 15.300	  0.000	 38.09753	 35.82876	 -3.95410	 13.64120	 13.99794	 -1.89090	 42.90331	708.31000	 27.90	
 15.298	 -6.413	 38.10733	 35.63030	 -3.80317	 11.39063	 16.31455	 -1.85694	 42.90316	708.33002	 27.90	
 15.291	-12.833	 38.14120	 35.10986	 -3.44654	  9.22236	 18.61649	 -1.86991	 42.91160	708.28998	 27.90	
 15.307	-19.324	 38.14763	 34.35975	 -2.99374	  7.14653	 20.66893	 -1.88502	 42.91342	708.27002	 27.90	
 15.300	-25.739	 38.16694	 33.27996	 -2.38724	  5.10169	 22.97637	 -1.91770	 42.89783	708.28998	 27.90	
 15.288	-32.146	 38.18429	 31.89050	 -1.52565	  3.31634	 25.25128	 -1.93823	 42.89253	708.21002	 28.00	
 15.293	-38.572	 38.23018	 30.35915	 -0.42112	  1.73008	 27.31018	 -1.95625	 42.90455	708.27002	 28.00	
 15.299	-45.015	 38.20585	 28.62182	  0.84429	  0.23915	 29.12110	 -1.92303	 42.88345	708.19000	 28.00	
 15.305	-51.417	 38.21265	 26.72388	  2.30046	 -1.08075	 30.79084	 -1.96055	 42.91630	708.31000	 28.00	
 15.309	-57.858	 38.17289	 24.56814	  3.92508	 -2.19555	 32.22489	 -1.86215	 42.88920	708.31000	 28.00	
 15.304	-64.289	 38.17157	 22.24781	  5.78702	 -2.92072	 33.50721	 -1.82815	 42.87753	708.26001	 28.00	
 15.297	-70.709	 38.19830	 19.93688	  7.74969	 -3.43313	 34.43126	 -1.79317	 42.89904	708.21997	 28.00	
 15.293	-77.103	 38.17376	 17.71365	  9.82838	 -3.92261	 35.06868	 -1.77527	 42.89063	708.23999	 28.00	
 15.293	-83.542	 38.16951	 15.39523	 12.07007	 -4.19913	 35.44380	 -1.73474	 42.91067	708.31000	 28.00	
 15.300	-90.000	 38.14871	 13.08299	 14.31799	 -4.30930	 35.49926	 -1.71256	 42.89819	708.35999	 28.00	
 15.293	-96.458	 38.12738	 10.84140	 16.62723	 -4.17035	 35.27362	 -1.69957	 42.89243	708.34003	 28.00	
 15.293	-102.897	 38.13828	  8.66064	 18.94772	 -3.87865	 34.77415	 -1.71638	 42.90696	708.21002	 28.00	
 15.297	-109.291	 38.12118	  6.60113	 21.22398	 -3.38463	 33.94983	 -1.70483	 42.87749	708.10999	 28.00	
 15.304	-115.711	 38.12513	  4.62664	 23.50481	 -2.73447	 32.87273	 -1.69872	 42.88672	708.21002	 28.10	
 15.309	-122.142	 38.14300	  2.77788	 25.72161	 -1.82192	 31.45453	 -1.69734	 42.90269	708.26001	 28.10	
 15.305	-128.583	 38.15601	  1.16443	 27.74119	 -0.66829	 29.89454	 -1.74266	 42.91278	708.28003	 28.10	
 15.299	-134.985	 38.13774	 -0.21381	 29.57158	  0.56492	 28.17410	 -1.75176	 42.88642	709.02002	 28.10	
 15.293	-141.428	 38.12740	 -1.59463	 31.24432	  1.96704	 26.23120	 -1.82382	 42.89200	709.03003	 28.10	
 15.288	-147.854	 38.07262	 -2.50514	 32.73980	  3.60566	 24.04967	 -1.85034	 42.89301	708.32001	 28.10	
 15.300	-154.261	 38.04506	 -3.42057	 34.00287	  5.41622	 21.60643	 -1.92656	 42.91289	708.53998	 28.10	
 15.307	-160.676	 37.98643	 -4.05489	 34.93191	  7.44549	 19.53196	 -2.00435	 42.89284	708.29999	 28.10	
 15.291	-167.167	 37.95859	 -4.43776	 35.58601	  9.58366	 17.28728	 -2.09966	 42.89940	708.33002	 28.10	
 15.298	-173.587	 37.89702	 -4.69088	 35.95330	 11.80366	 14.96602	 -2.13341	 42.90104	708.20001	 28.10	
 15.300	180.000	 37.83183	 -4.66509	 36.02768	 14.03837	 12.69429	 -2.11687	 42.87518	708.27002	 28.10	
 17.000	180.000	 36.51897	 -7.00095	 37.41258	 13.03291	 11.57110	 -2.24145	 42.88620	708.28003	 28.10	
 16.990	-174.179	 36.57467	 -7.04956	 37.32621	 10.81383	 13.83844	 -2.20703	 42.88342	708.25000	 28.10	
 17.009	-168.383	 36.62037	 -6.91522	 37.00663	  8.61774	 16.11838	 -2.12917	 42.88354	708.32001	 28.10	
 17.000	-162.596	 36.70852	 -6.51896	 36.43793	  6.53500	 18.42467	 -2.02718	 42.91185	708.32001	 28.20	
 16.990	-156.759	 36.75984	 -5.88845	 35.54106	  4.53366	 20.65727	 -1.96376	 42.88636	708.22998	 28.20	
 16.995	-150.919	 36.77555	 -5.19606	 34.41599	  2.60990	 22.87288	 -1.87898	 42.87051	708.40002	 28.20	
 16.988	-145.161	 36.82990	 -4.33184	 33.10558	  0.97436	 25.18192	 -1.80074	 42.89369	708.37000	 28.20	
 17.014	-139.343	 36.80692	 -3.25066	 31.50618	 -0.58422	 27.28496	 -1.75253	 42.85941	708.32001	 28.20	
 17.007	-133.546	 36.85745	 -1.93920	 29.74472	 -1.87353	 29.21720	 -1.68881	 42.88328	708.34003	 28.20	
 17.001	-127.699	 36.84728	 -0.56064	 27.81600	 -3.05030	 30.91679	 -1.64989	 42.86837	708.40002	 28.20	
 17.006	-121.937	 36.86314	  0.88669	 25.85059	 -4.06455	 32.45798	 -1.62900	 42.88295	708.83002	 28.20	
 17.002	-116.134	 36.86170	  2.59266	 23.64495	 -4.92482	 33.89365	 -1.63048	 42.88728	708.33002	 28.20	
 17.001	-110.310	 36.85744	  4.51483	 21.34886	 -5.62794	 35.04128	 -1.64364	 42.90098	709.08002	 28.20	
 16.988	-104.517	 36.84064	  6.54062	 19.08258	 -6.12027	 35.89585	 -1.64852	 42.89833	708.40002	 28.20	
 17.008	-98.662	 36.78260	  8.67231	 16.73041	 -6.51813	 36.50272	 -1.63977	 42.86666	708.34003	 28.20	
 16.996	-92.909	 36.82077	 10.86468	 14.46555	 -6.66412	 36.86407	 -1.67855	 42.88911	708.29999	 28.20	
 16.996	-87.091	 36.82645	 13.12187	 12.18680	 -6.71782	 36.95099	 -1.64213	 42.88047	708.95001	 28.30	
 17.012	-81.253	 36.83079	 15.45683	  9.94507	 -6.56247	 36.77388	 -1.67512	 42.88160	708.44000	 28.30	
 16.988	-75.483	 36.88338	 17.78690	  7.83315	 -6.20345	 36.28949	 -1.70770	 42.89429	708.26001	 28.30	
 17.001	-69.690	 36.89922	 19.99734	  5.79789	 -5.71304	 35.61098	 -1.74217	 42.90547	708.22998	 28.30	
 17.002	-63.866	 36.88062	 22.32719	  3.86768	 -5.12549	 34.61110	 -1.80626	 42.86859	708.28003	 28.30	
 17.006	-58.063	 36.88159	 24.62555	  2.08569	 -4.41850	 33.36225	 -1.82722	 42.87615	708.41998	 28.30	
 17.001	-52.301	 36.87731	 26.75221	  0.49496	 -3.43400	 31.87796	 -1.88216	 42.87706	708.31000	 28.30	
 17.007	-46.454	 36.89408	 28.73314	 -0.96890	 -2.23985	 30.26091	 -1.92235	 42.87993	708.28003	 28.30	
 17.014	-40.657	 36.90343	 30.58369	 -2.25506	 -0.89805	 28.46915	 -1.98828	 42.88268	708.27002	 28.30	
 16.988	-34.839	 36.91111	 32.20374	 -3.38655	  0.61804	 26.45787	 -2.04401	 42.88115	708.25000	 28.30	
 16.995	-29.081	 36.88899	 33.66210	 -4.32307	  2.23436	 24.30932	 -2.05354	 42.89066	708.27002	 28.30	
 16.990	-23.241	 36.88213	 34.87536	 -4.90205	  4.10125	 21.91637	 -2.08118	 42.87972	708.39001	 28.30	
 17.000	-17.404	 36.84915	 35.84526	 -5.49752	  6.06928	 19.89753	 -2.10246	 42.88991	708.34998	 28.30	
 17.009	-11.617	 36.79519	 36.52211	 -5.97851	  8.11574	 17.67170	 -2.08730	 42.86651	708.34998	 28.30	
 16.990	 -5.821	 36.80762	 36.99247	 -6.27478	 10.30770	 15.35286	 -2.13320	 42.89565	708.33002	 28.30	
 17.000	  0.000	 36.78270	 37.19840	 -6.40856	 12.53391	 13.01121	 -2.19495	 42.88102	708.25000	 28.30	
 16.990	  5.821	 36.77313	 37.05064	 -6.29063	 14.83717	 10.69001	 -2.26445	 42.87905	708.25000	 28.30	
 17.009	 11.617	 36.71822	 36.68707	 -6.03150	 17.13729	  8.32631	 -2.30402	 42.88761	708.37000	 28.40	
 17.000	 17.404	 36.67867	 36.03651	 -5.60206	 19.42247	  5.99933	 -2.33843	 42.86686	708.38000	 28.40	
 16.990	 23.241	 36.67557	 35.15320	 -5.09678	 21.74510	  4.08264	 -2.35099	 42.88645	708.35999	 28.40	
 16.995	 29.081	 36.62698	 33.97674	 -4.50005	 24.05079	  2.24046	 -2.38374	 42.88940	708.37000	 28.40	
 16.988	 34.839	 36.59035	 32.58673	 -3.61561	 26.19003	  0.54524	 -2.50262	 42.88927	708.34998	 28.40	
 17.014	 40.657	 36.52774	 30.99578	 -2.75962	 28.18532	 -0.93450	 -2.64625	 42.86389	708.33002	 28.40	
 17.007	 46.454	 36.47926	 29.23268	 -1.54814	 30.08390	 -2.32211	 -2.84653	 42.85777	708.34998	 28.40	
 17.001	 52.301	 36.43509	 27.32404	 -0.17213	 31.85161	 -3.61093	 -2.97636	 42.87364	708.26001	 28.40	
 17.006	 58.063	 36.37331	 25.21567	  1.34465	 33.31321	 -4.67872	 -3.04729	 42.85942	708.39001	 28.40	
 17.002	 63.866	 36.35397	 22.90579	  3.04981	 34.65882	 -5.54162	 -3.01671	 42.88443	708.31000	 28.40	
 17.001	 69.690	 36.35003	 20.55589	  4.94590	 35.73146	 -6.21406	 -2.90883	 42.89011	708.26001	 28.40	
 16.988	 75.483	 36.33984	 18.40040	  6.95892	 36.53262	 -6.72777	 -2.84043	 42.88514	708.22998	 28.40	
 17.012	 81.253	 36.28930	 16.07133	  9.03453	 37.10815	 -7.15207	 -2.85858	 42.86920	708.27002	 28.40	
 16.996	 87.091	 36.31964	 13.79478	 11.24661	 37.40331	 -7.24115	 -2.89733	 42.90592	708.32001	 28.40	
 16.996	 92.909	 36.30597	 11.57465	 13.44376	 37.39625	 -7.18135	 -2.97522	 42.88242	708.20001	 28.40	
 17.008	 98.662	 36.26684	  9.32281	 15.71019	 37.18931	 -7.10595	 -3.00747	 42.87164	708.27002	 28.40	
 16.988	104.517	 36.28403	  7.07899	 18.04478	 36.68547	 -6.84031	 -2.96064	 42.89718	708.37000	 28.40	
 17.001	110.310	 36.25932	  4.91883	 20.30685	 35.93148	 -6.40986	 -2.85851	 42.88223	708.34003	 28.40	
 17.002	116.134	 36.24853	  2.99056	 22.62058	 34.90008	 -5.80124	 -2.75440	 42.88757	708.31000	 28.40	
 17.006	121.937	 36.23899	  1.30864	 24.85608	 33.59827	 -5.00195	 -2.68564	 42.86916	708.40997	 28.40	
 17.001	127.699	 36.27502	 -0.19285	 26.95304	 32.10731	 -4.03050	 -2.67710	 42.88425	708.28003	 28.50	
 17.007	133.546	 36.30204	 -1.57892	 28.92794	 30.38294	 -2.93874	 -2.69812	 42.87288	708.28998	 28.50	
 17.014	139.343	 36.28935	 -2.83752	 30.73443	 28.52835	 -1.67949	 -2.74033	 42.87050	708.28998	 28.50	
 16.988	145.161	 36.28773	 -3.91978	 32.36885	 26.55836	 -0.22295	 -2.71730	 42.87490	708.22998	 28.50	
 16.995	150.919	 36.29712	 -4.83549	 33.80757	 24.41600	  1.38161	 -2.64983	 42.86810	708.16998	 28.50	
 16.990	156.759	 36.35761	 -5.54940	 35.05082	 22.07049	  3.14955	 -2.51582	 42.88621	708.20001	 28.50	
 17.000	162.596	 36.39431	 -6.11779	 36.03275	 19.74471	  4.95289	 -2.41509	 42.87726	708.28003	 28.50	
 17.009	168.383	 36.42759	 -6.63219	 36.77559	 17.54888	  7.04764	 -2.33339	 42.89415	708.59003	 28.50	
 16.990	174.179	 36.45898	 -6.83583	 37.17795	 15.25695	  9.33440	 -2.27432	 42.86468	708.14001	 28.50	
 18.709	174.675	 34.99239	 -9.25825	 38.47235	 14.13895	  8.05116	 -2.33399	 42.90024	708.21997	 28.50	
 18.703	169.441	 34.92347	 -9.17346	 38.03949	 16.32380	  5.90518	 -2.39454	 42.85963	708.21997	 28.50	
 18.691	164.085	 34.92237	 -8.78223	 37.39286	 18.61074	  3.92780	 -2.50026	 42.88667	708.27002	 28.50	
 18.706	158.818	 34.86686	 -8.17589	 36.49081	 20.83534	  2.08979	 -2.59501	 42.88293	708.34998	 28.50	
 18.695	153.537	 34.82446	 -7.46718	 35.32297	 23.17383	  0.36012	 -2.73293	 42.85979	708.34998	 28.50	
 18.704	148.255	 34.80152	 -6.66289	 33.99974	 25.45176	 -1.26485	 -2.85003	 42.87319	708.28998	 28.50	
 18.698	142.952	 34.81222	 -5.63322	 32.53690	 27.54658	 -2.72250	 -2.89855	 42.85998	708.42999	 28.50	
 18.699	137.625	 34.80981	 -4.52509	 30.79274	 29.52379	 -4.07361	 -2.92730	 42.83959	708.79999	 28.50	
 18.705	132.343	 34.78478	 -3.31903	 28.90079	 31.39968	 -5.26734	 -2.94071	 42.85335	708.53998	 28.50	
 18.713	127.067	 34.76667	 -1.97155	 26.91164	 33.03120	 -6.32451	 -2.93347	 42.85461	708.59003	 28.50	
 18.700	121.794	 34.76620	 -0.46465	 24.81521	 34.48420	 -7.20905	 -2.98589	 42.85381	708.37000	 28.50	
 18.698	116.504	 34.74952	  1.17431	 22.58632	 35.76834	 -8.01620	 -3.06440	 42.84081	708.35999	 28.60	
 18.707	111.165	 34.75792	  2.97314	 20.24758	 36.88047	 -8.67593	 -3.20034	 42.87046	708.48999	 28.60	
 18.690	105.863	 34.74093	  4.86471	 17.89790	 37.68550	 -9.18503	 -3.29777	 42.83573	708.32001	 28.60	
 18.696	100.583	 34.74289	  7.07365	 15.61096	 38.25603	 -9.53331	 -3.38212	 42.84624	708.45001	 28.60	
 18.700	 95.309	 34.77230	  9.31055	 13.33444	 38.58802	 -9.62761	 -3.39644	 42.85430	708.71002	 28.60	
 18.700	 90.000	 34.77363	 11.41877	 11.19757	 38.65513	 -9.71100	 -3.30803	 42.85141	708.28003	 28.60	
 18.700	 84.691	 34.78982	 13.68215	  9.03893	 38.54624	 -9.75645	 -3.24379	 42.85358	708.39001	 28.60	
 18.696	 79.417	 34.80345	 16.05111	  6.88947	 38.16041	 -9.49179	 -3.21660	 42.86335	708.28003	 28.60	
 18.690	 74.137	 34.82796	 18.36458	  4.85618	 37.51251	 -9.03494	 -3.25264	 42.83842	708.28003	 28.60	
 18.707	 68.835	 34.82774	 20.53342	  2.88167	 36.64565	 -8.52356	 -3.31801	 42.84653	708.33002	 28.60	
 18.698	 63.496	 34.88583	 22.92192	  1.05649	 35.56642	 -7.81657	 -3.37572	 42.86209	708.29999	 28.60	
 18.700	 58.206	 34.90465	 25.19892	 -0.57635	 34.25730	 -6.97814	 -3.43770	 42.85175	708.37000	 28.60	
 18.713	 52.933	 34.91438	 27.31380	 -2.10724	 32.74383	 -6.02553	 -3.42118	 42.83237	708.42999	 28.70	
 18.705	 47.657	 34.99480	 29.26543	 -3.41287	 31.04836	 -4.80981	 -3.28635	 42.84943	708.45001	 28.70	
 18.699	 42.375	 35.06710	 31.15028	 -4.61596	 29.16731	 -3.45223	 -3.09307	 42.87669	708.38000	 28.70	
 18.698	 37.048	 35.10653	 32.83381	 -5.64945	 27.13297	 -2.00382	 -2.91185	 42.85728	708.35999	 28.70	
 18.704	 31.745	 35.13750	 34.28777	 -6.32560	 25.06705	 -0.46148	 -2.77796	 42.85093	708.34998	 28.70	
 18.695	 26.463	 35.18535	 35.51272	 -7.06850	 22.87269	  1.26026	 -2.71102	 42.85629	708.28998	 28.70	
 18.706	 21.182	 35.22642	 36.58112	 -7.57160	 20.51820	  3.07470	 -2.68261	 42.85695	708.26001	 28.70	
 18.691	 15.915	 35.23835	 37.38637	 -8.00400	 18.29604	  4.98070	 -2.61986	 42.84826	708.38000	 28.70	
 18.703	 10.559	 35.24507	 37.99406	 -8.41762	 15.95231	  7.12023	 -2.56764	 42.82489	708.31000	 28.70	
 18.709	  5.325	 35.30259	 38.34156	 -8.67332	 13.65992	  9.51205	 -2.47429	 42.86586	708.38000	 28.70	
 18.700	  0.000	 35.32298	 38.42484	 -8.77609	 11.38654	 11.84979	 -2.36285	 42.86053	708.22998	 28.70	
 18.709	 -5.325	 35.32812	 38.25717	 -8.70609	  9.14827	 14.20134	 -2.29620	 42.85499	708.21997	 28.70	
 18.703	-10.559	 35.36138	 37.86586	 -8.46457	  7.02459	 16.52025	 -2.20229	 42.85405	708.32001	 28.70	
 18.691	-15.915	 35.38378	 37.19645	 -8.06046	  4.98944	 18.78864	 -2.12781	 42.83204	708.52002	 28.70	
 18.706	-21.182	 35.42919	 36.35142	 -7.55120	  3.03192	 20.96426	 -2.11860	 42.85510	708.34998	 28.70	
 18.695	-26.463	 35.42803	 35.19334	 -6.93933	  1.18690	 23.11107	 -2.06058	 42.82777	708.28998	 28.70	
 18.704	-31.745	 35.46285	 33.89953	 -6.21791	 -0.47106	 25.37999	 -1.93063	 42.85168	708.37000	 28.70	
 18.698	-37.048	 35.45936	 32.32793	 -5.22559	 -2.00721	 27.51520	 -1.90570	 42.83804	708.35999	 28.70	
 18.699	-42.375	 35.45173	 30.58789	 -4.10853	 -3.35834	 29.42531	 -1.84299	 42.83778	708.39001	 28.70	
 18.705	-47.657	 35.45736	 28.71115	 -2.84927	 -4.58210	 31.20173	 -1.80390	 42.84117	708.35999	 28.70	
 18.713	-52.933	 35.46015	 26.73263	 -1.42630	 -5.66429	 32.80581	 -1.75113	 42.84824	708.32001	 28.70	
 18.700	-58.206	 35.45651	 24.59568	  0.10385	 -6.64435	 34.30623	 -1.71660	 42.86212	708.28003	 28.70	
 18.698	-63.496	 35.43058	 22.31739	  1.82019	 -7.41934	 35.54869	 -1.67851	 42.85830	708.27002	 28.70	
 18.707	-68.835	 35.39165	 19.91079	  3.71585	 -8.05229	 36.52948	 -1.62676	 42.83272	708.40002	 28.70	
 18.690	-74.137	 35.41452	 17.70861	  5.76580	 -8.54019	 37.30902	 -1.59875	 42.85117	708.28003	 28.70	
 18.696	-79.417	 35.38390	 15.41221	  7.84659	 -8.86878	 37.84738	 -1.53153	 42.85154	708.34998	 28.70	
 18.700	-84.691	 35.36757	 13.08990	 10.03078	 -9.02927	 38.11929	 -1.51879	 42.84700	708.28003	 28.70	
 18.700	-90.000	 35.36533	 10.81632	 12.25554	 -9.03891	 38.14740	 -1.52663	 42.85737	708.40997	 28.80	
 18.700	-95.309	 35.32610	  8.60207	 14.47745	 -8.98503	 37.95568	 -1.51367	 42.84482	708.29999	 28.70	
 18.696	-100.583	 35.33985	  6.40828	 16.77147	 -8.83350	 37.52919	 -1.51556	 42.85390	708.27002	 28.80	
 18.690	-105.863	 35.36782	  4.38687	 18.94856	 -8.42352	 36.82489	 -1.49191	 42.83075	708.25000	 28.80	
 18.707	-111.165	 35.37750	  2.43079	 21.24299	 -7.93101	 35.90742	 -1.49462	 42.83820	708.31000	 28.70	
 18.698	-116.504	 35.38481	  0.63888	 23.59697	 -7.22047	 34.72328	 -1.47587	 42.84299	708.28003	 28.70	
 18.700	-121.794	 35.42014	 -0.86271	 25.76944	 -6.32012	 33.36162	 -1.48545	 42.83843	708.34998	 28.80	
 18.713	-127.067	 35.42289	 -2.35701	 27.86366	 -5.45229	 31.79319	 -1.51770	 42.84127	708.33002	 28.80	
 18.705	-132.343	 35.39650	 -3.71781	 29.79529	 -4.39952	 30.04696	 -1.55310	 42.83191	708.32001	 28.80	
 18.699	-137.625	 35.37881	 -5.00852	 31.61037	 -3.20589	 28.23568	 -1.62442	 42.84212	708.22998	 28.80	
 18.698	-142.952	 35.35465	 -6.16856	 33.23409	 -1.73246	 26.16036	 -1.68301	 42.81596	708.33002	 28.80	
 18.704	-148.255	 35.33738	 -7.16144	 34.70126	 -0.15267	 23.84173	 -1.76101	 42.83735	708.31000	 28.80	
 18.695	-153.537	 35.28940	 -7.95089	 35.93667	  1.57283	 21.52607	 -1.81280	 42.85280	708.20001	 28.80	
 18.706	-158.818	 35.22667	 -8.65717	 36.96812	  3.42208	 19.43461	 -1.89021	 42.83809	708.27002	 28.80	
 18.691	-164.085	 35.17531	 -9.15297	 37.73179	  5.44318	 17.12210	 -1.98267	 42.82763	708.28003	 28.80	
 18.703	-169.441	 35.10819	 -9.54995	 38.27740	  7.53927	 14.76081	 -2.07396	 42.84170	708.17999	 28.80	
 18.709	-174.675	 35.03901	 -9.60559	 38.53995	  9.72897	 12.44525	 -2.17835	 42.81970	708.21997	 28.80	
 18.700	180.000	 35.02152	 -9.34152	 38.59143	 11.91295	 10.27977	 -2.21812	 42.82449	708.26001	 28.80	
 20.400	180.000	 33.40229	-11.83512	 39.66943	 10.68730	  8.82360	 -2.14677	 42.82271	708.37000	 28.80	
 20.401	-175.153	 33.43387	-12.08925	 39.64886	  8.60462	 10.92302	 -2.05662	 42.84352	708.10999	 28.80	
 20.407	-170.264	 33.48940	-12.02489	 39.39764	  6.41199	 13.32651	 -1.95369	 42.83459	708.12000	 28.80	
 20.410	-165.423	 33.56715	-11.72955	 38.93251	  4.39090	 15.66261	 -1.85947	 42.83070	708.20001	 28.80	
 20.392	-160.496	 33.64931	-11.24042	 38.21947	  2.43195	 18.06623	 -1.78301	 42.82765	708.23999	 28.80	
 20.401	-155.705	 33.67495	-10.67478	 37.29389	  0.57748	 20.32570	 -1.69651	 42.82667	708.26001	 28.80	
 20.405	-150.835	 33.72181	 -9.95565	 36.16459	 -1.17861	 22.32263	 -1.61201	 42.82281	708.27002	 28.80	
 20.397	-145.903	 33.79009	 -9.01075	 34.83314	 -2.72606	 24.74786	 -1.57484	 42.82959	708.27002	 28.80	
 20.392	-141.062	 33.83624	 -7.96761	 33.31752	 -4.12793	 26.98060	 -1.54417	 42.83176	708.23999	 28.80	
 20.396	-136.227	 33.88233	 -6.72822	 31.64178	 -5.35655	 28.97356	 -1.47654	 42.83453	708.23999	 28.80	
 20.408	-131.372	 33.88739	 -5.42781	 29.79146	 -6.46166	 30.76697	 -1.46565	 42.82448	708.33002	 28.80	
 20.410	-126.511	 33.87605	 -4.10225	 27.75095	 -7.56581	 32.56955	 -1.40854	 42.82352	708.20001	 28.90	
 20.400	-121.604	 33.85846	 -2.68801	 25.63514	 -8.52475	 34.16249	 -1.37408	 42.81509	708.33002	 28.90	
 20.403	-116.741	 33.81969	 -1.22066	 23.45017	 -9.39425	 35.53624	 -1.35777	 42.83499	708.23999	 28.90	
 20.413	-111.900	 33.79443	  0.43598	 21.20556	-10.05635	 36.67892	 -1.37684	 42.82192	708.34998	 28.90	
 20.398	-107.004	 33.80456	  2.31496	 18.89857	-10.54883	 37.65496	 -1.38229	 42.83255	708.21997	 28.90	
 20.394	-102.132	 33.79311	  4.30321	 16.62181	-10.92939	 38.38567	 -1.41057	 42.82663	708.25000	 28.90	
 20.403	-97.332	 33.76414	  6.31553	 14.37869	-11.31351	 38.89437	 -1.41387	 42.81440	708.25000	 28.90	
 20.392	-92.440	 33.78246	  8.47556	 12.18909	-11.32539	 39.17279	 -1.40258	 42.81221	708.25000	 28.90	
 20.392	-87.560	 33.80584	 10.64786	 10.06280	-11.34083	 39.25170	 -1.41287	 42.82161	708.32001	 28.90	
 20.403	-82.668	 33.80094	 12.91183	  7.87114	-11.39094	 39.13939	 -1.41980	 42.82947	708.28003	 28.90	
 20.394	-77.868	 33.80042	 15.18843	  5.79191	-11.22396	 38.78359	 -1.42682	 42.81564	708.28003	 28.90	
 20.398	-72.996	 33.81673	 17.49249	  3.77741	-10.84393	 38.19957	 -1.47237	 42.81829	708.38000	 28.90	
 20.413	-68.100	 33.81140	 19.73079	  1.78345	-10.35757	 37.41284	 -1.49859	 42.83530	708.39001	 28.90	
 20.403	-63.259	 33.84462	 21.96901	 -0.04182	 -9.66835	 36.38940	 -1.54989	 42.84389	708.26001	 28.90	
 20.400	-58.396	 33.86547	 24.31879	 -1.71031	 -8.94560	 35.15730	 -1.60031	 42.84227	708.28003	 28.90	
 20.410	-53.489	 33.87347	 26.51259	 -3.26560	 -7.93394	 33.69207	 -1.64461	 42.81384	708.21997	 28.90	
 20.408	-48.628	 33.91653	 28.60753	 -4.63169	 -6.82817	 32.05242	 -1.68973	 42.85201	708.33002	 28.90	
 20.396	-43.773	 33.92620	 30.50137	 -5.80829	 -5.55398	 30.27942	 -1.76627	 42.83751	708.29999	 28.90	
 20.392	-38.938	 33.91540	 32.27277	 -6.90983	 -4.33828	 28.46001	 -1.82625	 42.81631	708.21002	 28.90	
 20.397	-34.097	 33.90069	 33.91217	 -7.99048	 -3.09809	 26.43172	 -1.84292	 42.83892	708.37000	 28.90	
 20.405	-29.165	 33.87351	 35.38151	 -8.88343	 -1.56897	 24.14699	 -1.94375	 42.84325	708.38000	 28.90	
 20.401	-24.295	 33.83816	 36.59859	 -9.57307	  0.10440	 21.83261	 -2.00210	 42.82713	708.32001	 28.90	
 20.392	-19.504	 33.81553	 37.61484	-10.17068	  1.90615	 19.86063	 -2.11790	 42.83567	708.34998	 28.90	
 20.410	-14.577	 33.77211	 38.45571	-10.65940	  3.88257	 17.53045	 -2.18185	 42.83261	708.33002	 28.90	
 20.407	 -9.736	 33.76183	 39.01711	-10.96560	  5.86966	 15.25119	 -2.27817	 42.82544	708.34998	 28.90	
 20.401	 -4.847	 33.75832	 39.38125	-11.09386	  8.01480	 12.89770	 -2.36266	 42.82807	708.37000	 28.90	
 20.400	  0.000	 33.75420	 39.52002	-11.03213	 10.17340	 10.61123	 -2.46932	 42.83705	708.42999	 28.90	
 20.401	  4.847	 33.71810	 39.43599	-10.96589	 12.36032	  8.32548	 -2.57380	 42.81876	708.34003	 28.90	
 20.407	  9.736	 33.69729	 39.15261	-10.77057	 14.67243	  6.14602	 -2.71590	 42.84900	708.29999	 28.90	
 20.410	 14.577	 33.65700	 38.63671	-10.49670	 16.95145	  4.06786	 -2.83166	 42.85394	708.28003	 28.90	
 20.392	 19.504	 33.61884	 37.83699	-10.14016	 19.25302	  2.07861	 -2.88842	 42.82085	708.33002	 28.90	
 20.401	 24.295	 33.58212	 36.91133	 -9.64135	 21.48218	  0.22279	 -2.99098	 42.82695	708.32001	 28.90	
 20.405	 29.165	 33.54858	 35.77559	 -9.04673	 23.79278	 -1.44726	 -3.06638	 42.83876	708.29999	 29.00	
 20.397	 34.097	 33.49547	 34.36070	 -8.41549	 25.93861	 -3.10948	 -3.17492	 42.82485	708.27002	 29.00	
 20.392	 38.938	 33.46494	 32.78865	 -7.44539	 28.01254	 -4.55482	 -3.34628	 42.82332	708.29999	 29.00	
 20.396	 43.773	 33.41273	 30.98923	 -6.35385	 29.96724	 -5.91521	 -3.49726	 42.80550	708.29999	 29.00	
 20.408	 48.628	 33.34376	 29.13289	 -5.28713	 31.80792	 -7.18706	 -3.66497	 42.81934	708.40002	 29.00	
 20.410	 53.489	 33.30862	 27.13720	 -3.99195	 33.49321	 -8.26059	 -3.76174	 42.82977	708.33002	 29.00	
 20.400	 58.396	 33.27692	 24.94312	 -2.52415	 35.02797	 -9.23004	 -3.75203	 42.83168	708.31000	 29.00	
 20.403	 63.259	 33.21172	 22.60453	 -0.95903	 36.33675	-10.07625	 -3.71345	 42.82780	708.31000	 29.00	
 20.413	 68.100	 33.17250	 20.35340	  0.80597	 37.45138	-10.77197	 -3.72048	 42.81763	708.26001	 29.00	
 20.398	 72.996	 33.16549	 18.20821	  2.69737	 38.32687	-11.29783	 -3.67352	 42.82846	708.28003	 29.00	
 20.394	 77.868	 33.13659	 15.88541	  4.69006	 39.01030	-11.74595	 -3.64814	 42.82960	708.28998	 29.00	
 20.403	 82.668	 33.10040	 13.51943	  6.73839	 39.45938	-12.06652	 -3.65687	 42.81515	708.26001	 29.00	
 20.392	 87.560	 33.10306	 11.17296	  8.90200	 39.67822	-12.18301	 -3.71592	 42.80681	708.27002	 29.00	
 20.392	 92.440	 33.10321	  8.97966	 11.01387	 39.70562	-12.09511	 -3.75834	 42.81314	708.28998	 29.00	
 20.403	 97.332	 33.06048	  6.88103	 13.06202	 39.54270	-12.09887	 -3.75037	 42.82175	708.39001	 29.00	
 20.394	102.132	 33.04343	  4.82502	 15.31518	 39.14538	-11.92689	 -3.67295	 42.81866	708.35999	 29.00	
 20.398	107.004	 33.03628	  2.88921	 17.64046	 38.51342	-11.56585	 -3.53816	 42.80957	708.38000	 29.00	
 20.413	111.900	 33.03309	  1.01899	 19.97478	 37.65181	-11.09339	 -3.43248	 42.82170	708.26001	 29.00	
 20.403	116.741	 33.07160	 -0.66005	 22.27917	 36.59831	-10.36081	 -3.31123	 42.82402	708.34998	 29.00	
 20.400	121.604	 33.10719	 -2.19809	 24.52532	 35.34466	 -9.55247	 -3.24335	 42.82958	708.16998	 29.00	
 20.410	126.511	 33.12800	 -3.67295	 26.68291	 33.86322	 -8.65431	 -3.19220	 42.82311	708.27002	 29.00	
 20.408	131.372	 33.12586	 -5.08411	 28.71491	 32.23964	 -7.70325	 -3.12746	 42.83387	708.15997	 29.00	
 20.396	136.227	 33.14100	 -6.29672	 30.61344	 30.42384	 -6.62910	 -3.09739	 42.80265	708.37000	 29.00	
 20.392	141.062	 33.14825	 -7.42147	 32.41249	 28.48043	 -5.39537	 -3.04402	 42.82949	708.19000	 29.00	
 20.397	145.903	 33.13353	 -8.45304	 34.01842	 26.41471	 -4.02009	 -2.92602	 42.81908	708.32001	 29.00	
 20.405	150.835	 33.10417	 -9.45586	 35.46199	 24.13090	 -2.53445	 -2.81876	 42.81155	708.25000	 29.00	
 20.401	155.705	 33.14984	-10.20886	 36.69008	 21.83585	 -0.85403	 -2.67811	 42.81493	708.21002	 29.00	
 20.392	160.496	 33.19894	-10.85292	 37.67775	 19.59349	  0.93650	 -2.53034	 42.81699	708.26001	 29.00	
 20.410	165.423	 33.22485	-11.38606	 38.54000	 17.31961	  2.81051	 -2.42378	 42.82317	708.23999	 29.00	
 20.407	170.264	 33.26694	-11.67334	 39.12914	 14.99835	  4.80225	 -2.33223	 42.80866	708.25000	 29.00	
 20.401	175.153	 33.31990	-11.71972	 39.47597	 12.75874	  6.77548	 -2.28284	 42.79421	708.16998	 29.00	
  0.141	 45.000	 42.86827	 17.88255	 18.32220	 18.38761	 17.51316	  0.43940	 42.81537	708.28003	 29.10	
  4.001	128.691	 42.67791	 14.21788	 21.59461	 22.49838	 13.23912	  0.16339	 42.82512	708.31000	 29.00	
  4.002	 76.995	 42.68892	 18.76451	 16.78904	 23.62408	 12.33267	  0.30432	 42.83103	708.22998	 29.10	
  4.002	 25.892	 42.74348	 22.77598	 13.26315	 20.35952	 15.27280	  0.42133	 42.82575	708.16998	 29.10	
  4.002	-25.892	 42.75640	 22.71760	 13.31742	 15.56686	 19.77384	  0.35039	 42.82284	708.27002	 29.10	
  4.002	-76.995	 42.74824	 18.63107	 16.97435	 12.68635	 22.93040	  0.16411	 42.81035	708.15002	 29.10	
  4.001	-128.691	 42.72022	 14.04954	 21.74792	 13.74157	 21.65258	  0.03909	 42.80795	708.21002	 29.10	
  4.000	180.000	 42.69320	 12.13849	 23.82211	 18.00481	 17.22451	  0.02445	 42.81750	708.23999	 29.10	
  8.000	180.000	 41.73095	  6.17196	 28.69554	 17.07258	 16.18240	 -0.71872	 42.81024	708.23999	 29.10	
  7.991	-152.370	 41.84073	  7.26858	 27.43827	 12.14991	 21.23612	 -0.70017	 42.83370	708.15997	 29.10	
  7.997	-124.550	 41.87274	 10.44684	 23.81066	  8.49460	 25.68091	 -0.67326	 42.80268	708.23999	 29.10	
  8.006	-96.837	 41.90143	 15.18273	 18.69458	  6.83252	 27.85380	 -0.66907	 42.81714	708.31000	 29.10	
  7.988	-69.228	 41.90693	 20.34368	 13.58039	  7.29639	 27.29290	 -0.57723	 42.80812	708.28003	 29.10	
  7.997	-41.563	 41.91059	 25.09790	  9.54630	 10.00593	 24.22586	 -0.40714	 42.81888	708.28003	 29.10	
  8.008	-13.821	 41.87527	 27.84691	  7.23852	 14.38198	 19.43116	 -0.21442	 42.82278	708.28998	 29.10	
  8.008	 13.821	 41.82769	 27.94502	  7.11074	 19.52825	 14.31083	 -0.14102	 42.82493	708.21997	 29.10	
  7.997	 41.563	 41.75301	 25.38993	  9.19670	 24.57006	  9.82639	 -0.19101	 42.80719	708.16998	 29.10	
  7.988	 69.228	 41.71497	 20.64894	 13.15871	 27.81220	  6.97772	 -0.23703	 42.81519	708.28998	 29.10	
  8.006	 96.837	 41.65587	 15.49327	 18.19229	 28.58168	  6.21629	 -0.38441	 42.80787	708.20001	 29.10	
  7.997	124.550	 41.66603	 10.70798	 23.37052	 26.62778	  7.79454	 -0.46551	 42.82767	708.28003	 29.10	
  7.991	152.370	 41.65050	  7.38902	 27.19352	 22.35688	 11.33915	 -0.58491	 42.79601	708.34998	 29.10	
 12.009	161.059	 39.80721	  0.97477	 31.81204	 20.97451	  9.43461	 -1.54477	 42.80054	708.19000	 29.10	
 12.013	142.081	 39.77501	  3.15037	 28.87273	 26.11772	  5.02624	 -1.59047	 42.81284	708.28003	 29.20	
 12.006	123.113	 39.75980	  6.71714	 24.49926	 30.09581	  1.86742	 -1.46030	 42.82312	708.38000	 29.20	
 12.007	104.200	 39.80398	 11.45794	 19.26495	 32.43358	  0.34417	 -1.55989	 42.83538	708.25000	 29.20	
 11.989	 85.301	 39.82658	 16.69279	 13.95952	 32.87983	  0.09280	 -1.40748	 42.83181	708.26001	 29.20	
 12.013	 66.294	 39.83986	 21.98005	  8.97850	 31.29696	  1.22753	 -1.40568	 42.82502	708.26001	 29.20	
 12.012	 47.388	 39.88949	 26.94119	  4.96230	 28.04692	  3.75400	 -1.38191	 42.81225	708.22998	 29.20	
 11.990	 28.440	 39.96791	 30.41494	  2.36189	 23.44261	  7.86899	 -1.07527	 42.78200	708.34998	 29.20	
 11.991	  9.464	 40.06588	 32.34629	  1.08672	 17.99623	 12.88694	 -1.14013	 42.79911	708.27002	 29.20	
 11.991	 -9.464	 40.11070	 32.26089	  1.19866	 12.77360	 18.18189	 -1.17344	 42.78521	708.27002	 29.20	
 11.990	-28.440	 40.17247	 30.17978	  2.61018	  7.93332	 23.35275	 -1.35424	 42.81417	708.32001	 29.20	
 12.012	-47.388	 40.16591	 26.52284	  5.43951	  3.99851	 27.92357	 -1.47391	 42.79529	708.27002	 29.20	
 12.013	-66.294	 40.17806	 21.49773	  9.54357	  1.60941	 30.88904	 -1.52961	 42.79738	708.26001	 29.20	
 11.989	-85.301	 40.16509	 16.15025	 14.63504	  0.57215	 32.26022	 -1.53458	 42.79882	708.13000	 29.20	
 12.007	-104.200	 40.11516	 10.93513	 19.96546	  1.02983	 31.52086	 -1.52580	 42.78644	708.26001	 29.20	
 12.006	-123.113	 40.12172	  6.40621	 25.14943	  2.89359	 28.99741	 -1.55405	 42.77897	708.19000	 29.20	
 12.013	-142.081	 40.05725	  2.89896	 29.32464	  6.06038	 24.92653	 -1.56679	 42.76031	708.19000	 29.20	
 12.009	-161.059	 40.02091	  0.66587	 32.10212	 10.45786	 19.66636	 -1.61890	 42.82006	708.26001	 29.20	
 16.000	180.000	 37.23254	 -5.59355	 36.53003	 13.61346	 12.21300	 -2.16363	 42.79165	708.22998	 29.20	
 15.990	-165.604	 37.35853	 -5.32962	 35.89904	  8.46244	 17.54022	 -2.07266	 42.78105	708.28998	 29.20	
 16.002	-151.165	 37.44566	 -3.91539	 33.77593	  3.76817	 22.73035	 -1.88302	 42.76429	708.31000	 29.30	
 16.002	-136.836	 37.53113	 -1.42080	 30.29732	  0.10179	 27.77953	 -1.74884	 42.77852	708.32001	 29.30	
 15.995	-122.439	 37.56229	  1.88263	 25.84389	 -2.67950	 31.70419	 -1.67497	 42.79574	708.25000	 29.30	
 15.993	-107.966	 37.53016	  6.34317	 20.56253	 -4.43546	 34.56514	 -1.68765	 42.76517	708.28003	 29.30	
 16.005	-93.629	 37.51495	 11.29972	 15.20770	 -5.24451	 35.93897	 -1.68626	 42.78095	708.35999	 29.30	
 15.992	-79.234	 37.55849	 16.65816	  9.95448	 -5.01706	 35.70327	 -1.73216	 42.77907	708.28003	 29.30	
 16.009	-64.774	 37.56754	 22.00200	  5.17148	 -3.90381	 34.00323	 -1.79712	 42.77188	708.21002	 29.30	
 15.997	-50.364	 37.58463	 27.14199	  1.17831	 -1.79581	 30.80242	 -1.91344	 42.78149	708.32001	 29.30	
 15.997	-36.045	 37.59382	 31.28439	 -1.83690	  1.48587	 26.60461	 -1.99851	 42.77205	708.25000	 29.30	
 16.000	-21.597	 37.54226	 34.40340	 -3.72409	  5.67077	 21.27316	 -1.98226	 42.77150	708.28003	 29.30	
 16.003	 -7.169	 37.46597	 36.02138	 -4.79798	 10.54778	 16.25246	 -1.96475	 42.75875	708.26001	 29.30	
 16.003	  7.169	 37.43203	 36.12692	 -4.87137	 15.80665	 10.85772	 -2.06860	 42.78549	708.34003	 29.30	
 16.000	 21.597	 37.36521	 34.65821	 -3.86907	 21.19114	  5.57463	 -2.09227	 42.78015	708.25000	 29.30	
 15.997	 36.045	 37.27292	 31.63010	 -2.10995	 26.41052	  1.33630	 -2.23787	 42.76684	708.32001	 29.30	
 15.997	 50.364	 37.17303	 27.65104	  0.63323	 30.77620	 -1.90669	 -2.62533	 42.77592	708.35999	 29.30	
 16.009	 64.774	 37.05099	 22.53964	  4.44456	 34.12019	 -4.27778	 -2.68679	 42.76301	708.25000	 29.30	
 15.992	 79.234	 37.01995	 17.24943	  9.12232	 36.05900	 -5.54718	 -2.55141	 42.75617	708.26001	 29.30	
 16.005	 93.629	 36.99226	 11.94258	 14.24026	 36.49865	 -5.78549	 -2.69277	 42.74510	708.20001	 29.30	
 15.993	107.966	 36.94660	  6.76585	 19.58636	 35.42857	 -5.14376	 -2.64818	 42.73668	708.14001	 29.30	
 15.995	122.439	 36.98587	  2.25084	 24.89459	 32.83439	 -3.58309	 -2.45172	 42.76694	708.15997	 29.30	
 16.002	136.836	 37.00600	 -1.06944	 29.50445	 28.97022	 -1.02073	 -2.50887	 42.74574	708.31000	 29.30	
 16.002	151.165	 37.00631	 -3.56356	 33.20479	 24.22087	  2.50232	 -2.46295	 42.74864	708.28998	 29.30	
 15.990	165.604	 37.10352	 -5.01283	 35.58020	 18.84906	  6.96367	 -2.23483	 42.74080	708.28998	 29.30	
 20.003	168.362	 33.59602	-10.97087	 38.62012	 16.11732	  4.36012	 -2.39025	 42.74906	708.20001	 29.40	
 20.008	156.764	 33.48594	 -9.76507	 36.63860	 21.38297	 -0.01488	 -2.65605	 42.73626	708.26001	 29.30	
 20.000	145.147	 33.49211	 -7.70792	 33.58506	 26.68147	 -3.62631	 -2.95373	 42.74953	708.12000	 29.40	
 19.995	133.545	 33.46585	 -5.13723	 29.48320	 31.26521	 -6.62510	 -3.10743	 42.72292	708.21997	 29.40	
 20.009	121.926	 33.43026	 -1.90986	 24.67418	 34.98542	 -8.90364	 -3.22507	 42.73870	708.21997	 29.40	
 20.005	110.327	 33.38449	  1.98588	 19.36276	 37.65298	-10.57138	 -3.43926	 42.72940	708.19000	 29.40	
 19.989	 98.733	 33.40830	  6.62183	 13.97398	 39.12508	-11.41606	 -3.68876	 42.73153	708.09998	 29.40	
 19.999	 87.075	 33.42661	 11.63845	  8.99950	 39.35352	-11.61248	 -3.57502	 42.73930	708.16998	 29.40	
 19.992	 75.457	 33.47132	 17.17090	  4.10334	 38.38863	-10.94460	 -3.56004	 42.73940	708.22998	 29.40	
 20.009	 63.844	 33.52145	 22.40554	 -0.29775	 36.23582	 -9.62962	 -3.65882	 42.74055	708.12000	 29.40	
 19.989	 52.269	 33.67551	 27.58666	 -3.79035	 32.89688	 -7.44498	 -3.69063	 42.76484	708.15002	 29.40	
 19.999	 40.602	 33.77993	 32.00349	 -6.58233	 28.60872	 -4.55033	 -3.32029	 42.76858	708.15997	 29.40	
 20.004	 29.051	 33.87547	 35.52669	 -8.47664	 23.77511	 -0.98900	 -3.02312	 42.75784	708.20001	 29.40	
 20.005	 17.433	 33.93921	 37.89258	 -9.69298	 18.39784	  3.25327	 -2.85410	 42.73772	708.20001	 29.40	
 20.006	  5.780	 34.01936	 39.07260	-10.40042	 13.02720	  8.19730	 -2.62416	 42.74448	708.21002	 29.40	
 20.006	 -5.780	 34.06691	 39.00363	-10.51032	  7.89932	 13.56292	 -2.34965	 42.75394	708.16998	 29.40	
 20.005	-17.433	 34.10888	 37.69101	 -9.81052	  3.11289	 18.97414	 -2.15175	 42.74532	708.16998	 29.40	
 20.004	-29.051	 34.18763	 35.11098	 -8.31242	 -1.07024	 24.09216	 -1.96860	 42.73967	708.23999	 29.40	
 19.999	-40.602	 34.20583	 31.51733	 -6.14085	 -4.36079	 28.98112	 -1.83254	 42.74211	708.17999	 29.40	
 19.989	-52.269	 34.21132	 26.99112	 -3.19993	 -7.13617	 33.07103	 -1.71134	 42.75146	708.15002	 29.40	
 20.009	-63.844	 34.16062	 21.76206	  0.51795	 -9.19152	 36.23245	 -1.61274	 42.75885	708.28998	 29.40	
 19.992	-75.457	 34.12725	 16.49956	  5.07130	-10.48026	 38.20810	 -1.50077	 42.74294	708.15997	 29.40	
 19.999	-87.075	 34.11180	 11.15439	 10.06833	-10.78719	 38.92110	 -1.45266	 42.74560	708.28003	 29.40	
 19.989	-98.733	 34.09421	  6.03568	 15.24268	-10.66513	 38.45086	 -1.44906	 42.75465	708.26001	 29.40	
 20.005	-110.327	 34.07739	  1.40605	 20.50532	 -9.81737	 36.73280	 -1.43995	 42.73378	708.25000	 29.40	
 20.009	-121.926	 34.15749	 -2.37314	 25.74819	 -8.01937	 33.83319	 -1.46559	 42.74520	708.22998	 29.40	
 19.995	-133.545	 34.15150	 -5.55775	 30.45051	 -5.63353	 29.83842	 -1.52356	 42.71295	708.26001	 29.40	
 20.000	-145.147	 34.07687	 -8.35393	 34.36164	 -2.62127	 25.10734	 -1.64142	 42.72760	708.26001	 29.50	
 20.008	-156.764	 33.95543	-10.28316	 37.21983	  1.27812	 19.92336	 -1.79721	 42.73635	708.26001	 29.50	
 20.003	-168.362	 33.83103	-11.37303	 38.90455	  5.90831	 14.45700	 -2.01522	 42.74446	708.20001	 29.50	
 20.000	180.000	 33.71556	-11.22652	 39.33121	 10.99344	  9.14439	 -2.21720	 42.74101	708.22998	 29.50	
