FileType=PCF
NHL=14
Date=05/29/19	16:55:21
Facility=APL
Serial=16071-9
Customer=NASA
NP=6
Mach=0.550000
Calibration=1:1
CalPts=490
TstPts=95
PortNumbering=AP Standard
Units=Torr C m/s kg/m^3 deg mm 
Theta[deg]	Phi[deg]	P1[Torr]	P2[Torr]	P3[Torr]	P4[Torr]	P5[Torr]	P6[Torr]	Pt[Torr]	Ps[Abs,Torr]	Ts[C]	
0.000000	0.000000	161.823290	74.312410	77.491960	72.786930	75.426890	3.674230	161.670180	701.870000	43.300000	
1.691000	128.401000	161.851620	69.486570	82.212940	79.269810	68.474080	3.507180	161.739110	702.020020	43.300000	
1.692000	77.194000	161.901440	76.109310	75.543700	81.169370	67.005590	3.597090	161.796520	702.020020	43.300000	
1.699000	26.182000	161.942990	81.705960	70.331750	76.726430	71.517080	3.628700	161.826230	702.010010	43.300000	
1.699000	-26.182000	161.977600	81.447150	70.495810	69.400300	78.971370	3.600580	161.865720	701.679990	43.400000	
1.692000	-77.194000	161.994740	75.846640	75.765960	65.043350	82.882190	3.534780	161.882160	701.620000	43.400000	
1.691000	-128.401000	162.000780	69.266960	82.401230	66.215740	81.231320	3.435640	161.876250	701.919980	43.500000	
1.700000	180.000000	162.048720	66.358950	85.505970	72.456760	75.267110	3.438180	161.938600	701.280030	43.600000	
3.400000	180.000000	161.723560	58.156790	93.101570	71.771550	74.384980	2.879050	161.895710	701.979980	43.600000	
3.388000	-152.325000	161.771070	59.828320	91.169080	64.364620	81.740480	2.870800	161.919980	701.450010	43.600000	
3.397000	-124.529000	161.828110	64.579560	86.043550	59.467330	87.631590	2.911270	161.967360	701.190000	43.600000	
3.399000	-96.763000	161.895740	71.569890	78.878040	57.030590	90.411280	3.007270	162.013640	701.870000	43.600000	
3.394000	-69.283000	161.907350	79.177630	71.524780	58.097290	89.654870	3.092160	161.995900	701.489990	43.700000	
3.400000	-41.398000	161.951260	85.887370	65.280980	62.339550	85.346290	3.182270	162.045650	702.039980	43.700000	
3.401000	-14.021000	162.013350	89.657340	61.918790	68.921900	78.798390	3.241080	162.074510	702.030030	43.700000	
3.401000	14.021000	162.038330	89.879930	61.858010	76.898880	70.644360	3.286220	162.107330	701.969970	43.800000	
3.400000	41.398000	162.028180	86.421090	65.112170	83.859600	63.985360	3.234640	162.103090	702.099980	43.800000	
3.394000	69.283000	162.058760	80.054500	71.339980	88.299200	59.746770	3.216540	162.126310	702.020020	43.900000	
3.399000	96.763000	162.009460	72.306320	78.645530	89.162750	58.709310	3.111940	162.108900	701.960020	44.000000	
3.397000	124.529000	162.026320	65.342410	85.952060	86.339370	61.251940	3.080930	162.170700	702.049990	44.000000	
3.388000	152.325000	162.042360	60.264970	91.228740	80.075680	66.824820	2.984480	162.196790	701.960020	44.100000	
5.099000	161.165000	161.260010	51.196230	99.273290	79.163180	65.560680	2.281940	162.178570	701.909970	44.100000	
5.109000	142.013000	161.331150	55.131040	95.256740	87.020220	58.820450	2.326960	162.215330	701.979980	44.100000	
5.095000	123.033000	161.413250	61.015530	89.060850	92.624820	53.844900	2.457710	162.246000	702.039980	44.200000	
5.105000	104.191000	161.454100	67.924850	81.763790	95.980940	50.972710	2.437900	162.259800	702.060000	44.200000	
5.093000	85.207000	161.499500	75.705000	73.808490	96.759990	50.533470	2.432800	162.257770	702.039980	44.200000	
5.104000	66.290000	161.564180	83.623570	66.497630	94.746800	52.489280	2.504630	162.300840	702.039980	44.300000	
5.094000	47.331000	161.598080	90.118400	60.294750	90.280510	56.773310	2.616260	162.302920	702.020020	44.400000	
5.089000	28.397000	161.631130	94.883800	55.844920	84.010090	62.717650	2.642690	162.337170	702.020020	44.400000	
5.096000	9.576000	161.677140	97.476030	53.499430	76.307820	69.964610	2.648750	162.372700	702.000000	44.400000	
5.096000	-9.576000	161.709230	97.318100	53.633820	68.127450	78.408200	2.689780	162.392780	701.940000	44.400000	
5.089000	-28.397000	161.648850	94.389160	56.071780	61.047620	85.629140	2.650370	162.375720	701.969970	44.400000	
5.094000	-47.331000	161.631210	89.247560	60.595260	54.989140	91.907230	2.596630	162.385590	701.919980	44.500000	
5.104000	-66.290000	161.640500	82.548680	66.993790	50.683020	96.245320	2.564220	162.401870	701.950010	44.500000	
5.093000	-85.207000	161.588350	74.548580	74.385820	48.554230	97.996770	2.451830	162.414230	701.979980	44.600000	
5.105000	-104.191000	161.632260	67.075560	82.232600	48.640370	97.149370	2.376700	162.456130	701.960020	44.600000	
5.095000	-123.033000	161.632840	60.241660	89.501780	51.891270	93.714940	2.285190	162.473860	701.900020	44.600000	
5.109000	-142.013000	161.579180	54.716880	95.532800	57.405040	88.390740	2.279470	162.480000	701.989990	44.700000	
5.099000	-161.165000	161.633270	51.427510	99.553490	63.447780	81.306530	2.268700	162.537510	702.000000	44.700000	
5.100000	180.000000	161.636220	50.163630	100.781620	71.116160	73.513460	2.232030	162.544330	702.000000	44.700000	
6.800000	180.000000	160.434590	42.020280	107.682430	69.941020	72.102530	1.635290	162.560900	701.900020	44.600000	
6.796000	-166.229000	160.423600	42.613660	106.833400	62.676840	79.986020	1.676860	162.573270	702.099980	44.600000	
6.808000	-152.311000	160.428440	44.978450	103.917430	56.222720	87.149440	1.776690	162.548600	701.979980	44.500000	
6.795000	-138.383000	160.474300	49.153190	99.537290	49.482880	93.618870	1.783090	162.592610	702.030030	44.500000	
6.792000	-124.591000	160.564580	54.587310	93.416800	44.862700	98.928430	1.787480	162.655270	701.880000	44.500000	
6.787000	-110.754000	160.553180	60.890170	86.543660	41.482070	102.867520	1.867730	162.642490	701.950010	44.500000	
6.800000	-96.985000	160.507190	67.854650	79.030460	39.761940	105.029030	1.900320	162.597810	701.960020	44.600000	
6.800000	-83.015000	160.678630	75.443640	71.538400	40.183290	105.326100	1.988360	162.702360	701.979980	44.500000	
6.787000	-69.246000	160.628540	83.090330	64.269800	42.169390	103.429770	2.071190	162.645650	701.979980	44.500000	
6.792000	-55.409000	160.730390	90.006130	57.877630	45.732480	99.848910	2.156170	162.680820	701.989990	44.600000	
6.795000	-41.617000	160.769610	95.908020	52.592550	50.684930	94.670620	2.173120	162.655840	701.940000	44.500000	
6.808000	-27.689000	160.800920	100.969640	48.397060	56.807770	88.245310	2.227490	162.695920	702.039980	44.500000	
6.796000	-13.771000	160.866820	103.974460	45.865440	63.881720	81.048860	2.221350	162.703810	702.000000	44.500000	
6.800000	0.000000	160.906970	105.151260	45.071080	71.332480	73.066800	2.128020	162.742800	702.099980	44.500000	
6.796000	13.771000	160.887470	104.325110	45.759250	79.297490	65.446170	2.024350	162.746090	702.060000	44.500000	
6.808000	27.689000	160.863660	101.457100	48.135860	86.863750	58.392430	1.985120	162.750050	702.109990	44.500000	
6.795000	41.617000	160.866730	97.047850	52.120260	93.101190	52.426740	1.893940	162.771820	701.950010	44.500000	
6.792000	55.409000	160.878300	91.222370	57.482940	98.733490	47.802810	1.795710	162.814990	701.960020	44.600000	
6.787000	69.246000	160.872130	84.551010	63.841040	102.422970	44.465890	1.739800	162.813320	701.900020	44.600000	
6.800000	83.015000	160.882540	76.839090	71.007740	104.263210	42.710010	1.687570	162.851470	701.969970	44.600000	
6.800000	96.985000	160.871810	69.231320	78.607440	104.318510	42.518590	1.647410	162.866210	701.989990	44.600000	
6.787000	110.754000	160.828980	62.078750	86.190830	102.233990	44.120170	1.755800	162.848560	701.960020	44.600000	
6.792000	124.591000	160.799420	55.662930	93.226570	98.337520	47.184020	1.849440	162.858490	701.909970	44.600000	
6.795000	138.383000	160.809270	50.101550	99.474560	92.829110	51.911370	1.841620	162.893590	701.929990	44.600000	
6.808000	152.311000	160.802860	45.769950	103.947510	86.177730	57.862980	1.794400	162.941880	701.950010	44.600000	
6.796000	166.229000	160.761810	43.119440	106.836250	77.906180	64.717470	1.697960	162.889480	701.979980	44.700000	
8.491000	168.704000	159.045820	34.960430	113.779620	76.507750	62.990230	1.524100	162.929320	701.989990	44.700000	
8.502000	157.493000	159.030360	36.848230	111.370090	85.013890	55.880120	1.637790	162.937580	701.950010	44.700000	
8.494000	146.194000	159.066570	40.622570	107.221140	92.184490	49.518530	1.716910	162.908710	702.060000	44.700000	
8.495000	135.039000	159.116580	45.124310	102.164480	98.614810	44.208320	1.644290	162.917140	702.039980	44.700000	
8.487000	123.723000	159.139010	50.802570	95.745060	104.230110	39.652090	1.528960	162.951890	701.950010	44.700000	
8.492000	112.575000	159.149030	57.084780	88.689030	108.196300	36.430480	1.336480	162.916380	701.919980	44.700000	
8.510000	101.220000	159.237870	64.414000	80.945720	110.736550	34.536140	1.132440	162.989910	701.919980	44.700000	
8.500000	90.000000	159.301390	71.817390	73.196780	111.341490	34.218560	1.031560	162.959630	702.020020	44.700000	
8.510000	78.780000	159.327510	79.764980	65.622210	110.585860	34.817440	1.122310	162.964390	702.000000	44.800000	
8.492000	67.425000	159.339020	87.458880	58.467040	108.162660	37.058080	1.157830	162.971360	701.929990	44.800000	
8.487000	56.277000	159.396990	94.121480	52.276860	104.318620	40.584710	1.243450	162.993560	702.070010	44.800000	
8.495000	44.961000	159.446490	100.198400	46.808910	99.145100	45.118680	1.394200	163.001660	702.060000	44.900000	
8.494000	33.806000	159.483250	105.414510	42.422940	92.722160	50.593300	1.558860	163.036850	701.950010	44.900000	
8.502000	22.507000	159.458420	109.197430	38.982350	85.798840	56.971470	1.642650	162.990690	701.950010	44.900000	
8.491000	11.296000	159.531860	111.545170	37.211850	78.081170	64.176650	1.722470	163.055470	701.929990	45.000000	
8.500000	0.000000	159.557370	112.141580	36.700160	70.169540	71.874640	1.916360	163.053220	702.000000	45.000000	
8.491000	-11.296000	159.544130	111.206870	37.349750	62.485770	79.963580	2.060370	163.062450	702.070010	44.900000	
8.502000	-22.507000	159.548930	108.698910	39.328190	55.215910	87.476490	2.111190	163.092120	701.989990	45.000000	
8.494000	-33.806000	159.569610	104.520030	42.836810	48.648620	94.473060	2.101920	163.122280	702.020020	44.900000	
8.495000	-44.961000	159.488280	98.970180	47.335060	42.915070	100.743640	2.122810	163.107330	701.940000	44.900000	
8.487000	-56.277000	159.460560	92.638910	52.915870	38.112860	106.008490	2.138580	163.146290	702.010010	44.900000	
8.492000	-67.425000	159.370740	85.722270	59.243400	34.797060	109.781230	2.004010	163.127720	701.979980	44.900000	
8.510000	-78.780000	159.333890	77.836240	66.514370	32.824550	112.041810	1.903100	163.149370	702.070010	44.900000	
8.500000	-90.000000	159.301800	70.256430	74.050240	31.919510	112.487280	1.874610	163.108760	702.049990	44.900000	
8.510000	-101.220000	159.230130	62.899930	81.624710	31.796300	111.661160	1.855930	163.126890	702.039980	44.800000	
8.492000	-112.575000	159.284740	55.883500	89.347350	33.851220	108.998300	1.751540	163.155930	702.039980	44.800000	
8.487000	-123.723000	159.315630	49.539690	96.218580	37.218460	104.772150	1.653700	163.144470	702.039980	44.800000	
8.495000	-135.039000	159.313750	44.184170	102.845140	41.756760	99.427230	1.620560	163.169460	701.940000	44.800000	
8.494000	-146.194000	159.301190	39.864300	107.760560	47.801580	93.132180	1.598900	163.124660	701.909970	44.900000	
8.502000	-157.493000	159.234240	36.409050	111.661450	54.637430	86.039470	1.581160	163.119740	701.989990	44.900000	
8.491000	-168.704000	159.243300	34.707630	114.080910	61.774120	78.543240	1.499100	163.153930	701.989990	44.900000	
8.500000	180.000000	159.281010	34.269130	114.960910	68.768220	70.603770	1.479840	163.187810	701.989990	44.900000	
10.200000	180.000000	157.030940	25.683810	121.204990	67.301120	68.557690	1.764760	163.197080	701.979980	44.900000	
10.191000	-170.497000	157.055970	26.100150	120.527500	59.824380	76.387080	1.810290	163.194230	701.880000	44.900000	
10.210000	-161.034000	157.016250	27.400050	118.659360	52.482480	84.355780	1.864780	163.183900	701.870000	44.900000	
10.194000	-151.526000	156.985860	30.042230	115.285940	45.620550	91.845820	1.866380	163.155030	701.989990	45.000000	
10.190000	-142.105000	157.072450	33.946120	110.720600	39.643730	98.647830	1.851560	163.226990	701.979980	45.000000	
10.215000	-132.646000	157.010960	38.444100	105.208530	34.351880	104.777670	1.922250	163.173310	701.950010	45.000000	
10.203000	-123.092000	157.045810	44.078030	98.451840	30.091510	110.266670	1.976850	163.168700	701.909970	45.000000	
10.192000	-113.678000	157.050600	50.336920	91.322940	25.977250	114.403720	2.148640	163.224150	701.909970	45.000000	
10.208000	-104.249000	157.031650	57.323940	83.711170	23.502120	117.240260	2.177900	163.200290	701.890010	45.000000	
10.210000	-94.801000	156.996720	64.577260	75.931340	22.477280	118.930960	2.234130	163.208210	701.960020	45.000000	
10.210000	-85.199000	157.082550	72.066190	68.310610	23.037210	119.121930	2.241320	163.186540	702.049990	45.000000	
10.208000	-75.751000	157.098390	79.892940	60.833860	23.954030	117.984110	2.294270	163.206860	702.000000	45.000000	
10.192000	-66.322000	157.166670	87.604350	53.840440	26.530130	115.466010	2.376890	163.205440	701.919980	45.100000	
10.203000	-56.908000	157.242780	94.572560	47.517660	30.229380	111.664210	2.444760	163.203780	702.060000	45.200000	
10.215000	-47.354000	157.281880	101.407910	41.534250	34.826320	106.466800	2.438170	163.196820	701.969970	45.200000	
10.190000	-37.895000	157.444520	107.249360	36.694210	40.238530	100.258230	2.413810	163.202560	701.989990	45.300000	
10.194000	-28.474000	157.542860	112.052450	33.382070	46.563720	93.453090	2.407390	163.251970	701.969970	45.300000	
10.210000	-18.966000	157.544970	115.696620	30.532730	53.506070	85.980800	2.358280	163.241350	701.940000	45.400000	
10.191000	-9.503000	157.551770	117.855680	28.990220	60.932290	78.029250	2.260250	163.216480	702.000000	45.400000	
10.200000	0.000000	157.576890	118.821760	28.522160	68.626870	70.113170	2.136770	163.223100	701.870000	45.400000	
10.191000	9.503000	157.588330	118.282040	28.865300	76.441720	62.480320	1.961250	163.276250	701.900020	45.300000	
10.210000	18.966000	157.479610	116.500590	30.129030	84.341910	55.130020	1.818230	163.252660	701.890010	45.300000	
10.194000	28.474000	157.513790	113.211730	32.920330	91.718810	48.463620	1.664310	163.274190	701.950010	45.300000	
10.190000	37.895000	157.494660	108.749040	36.333370	98.598040	42.344010	1.496180	163.273360	701.979980	45.300000	
10.215000	47.354000	157.499690	103.078670	41.247150	104.860600	37.206710	1.347920	163.323780	702.010010	45.300000	
10.203000	56.908000	157.401660	96.589170	46.925360	109.952050	33.020260	1.177290	163.264110	701.940000	45.300000	
10.192000	66.322000	157.450490	89.757510	53.163680	113.995190	29.797540	1.115090	163.342300	701.989990	45.300000	
10.208000	75.751000	157.368800	82.229960	60.046940	116.957890	27.382620	1.010740	163.274990	702.109990	45.300000	
10.210000	85.199000	157.387920	74.286770	67.501850	118.333210	26.403310	0.969920	163.281480	701.960020	45.400000	
10.210000	94.801000	157.394030	66.561780	75.300600	118.395910	26.226040	1.005120	163.348070	701.870000	45.400000	
10.208000	104.249000	157.341750	59.144780	83.172740	116.875030	27.110940	1.144430	163.342500	701.849980	45.400000	
10.192000	113.678000	157.299760	52.094860	90.940960	113.888810	29.144800	1.257500	163.312030	701.979980	45.400000	
10.203000	123.092000	157.272600	45.802100	98.125650	109.783650	32.105920	1.416230	163.331680	701.929990	45.400000	
10.215000	132.646000	157.266160	39.857860	104.739270	104.556580	36.062870	1.699890	163.343120	702.039980	45.400000	
10.190000	142.105000	157.167010	34.879840	110.307600	98.056900	41.247420	1.986950	163.333710	701.969970	45.400000	
10.194000	151.526000	157.190510	30.972310	115.013290	91.059730	47.280440	2.134630	163.379530	701.919980	45.400000	
10.210000	161.034000	157.133760	28.000240	118.562240	83.479360	53.959880	1.981930	163.345870	701.919980	45.300000	
10.191000	170.497000	157.205930	26.506280	120.517400	74.999350	61.059510	1.802820	163.322370	701.989990	45.300000	
11.899000	171.783000	154.438750	16.766860	126.697250	73.028020	58.781140	2.302900	163.343810	701.840030	45.300000	
11.890000	163.610000	154.363750	18.157910	124.716600	80.616930	51.746450	2.442240	163.316960	701.950010	45.200000	
11.889000	155.445000	154.337910	21.167450	121.641300	89.235360	44.700930	2.649540	163.333110	701.969970	45.200000	
11.909000	147.299000	154.326280	24.734050	117.722310	96.326230	38.294380	2.686850	163.359920	702.030030	45.200000	
11.902000	139.148000	154.412660	29.128340	112.562860	103.634700	32.946280	2.180950	163.360410	702.010010	45.200000	
11.894000	130.867000	154.520360	34.298190	106.509370	109.643390	28.280420	1.918340	163.358460	702.049990	45.200000	
11.897000	122.732000	154.473270	40.291980	99.834110	114.898610	24.305280	1.642560	163.339830	701.960020	45.200000	
11.903000	114.597000	154.470090	46.574580	92.548140	119.189230	21.289370	1.588330	163.347260	702.049990	45.200000	
11.893000	106.346000	154.550260	53.526630	84.747420	122.114240	19.290040	1.523820	163.329120	702.039980	45.200000	
11.892000	98.155000	154.692690	60.933370	76.772850	124.138720	18.259610	1.469090	163.403610	702.039980	45.200000	
11.900000	90.000000	154.728300	68.463870	69.170170	124.798730	18.073260	1.409550	163.377410	701.950010	45.300000	
11.892000	81.845000	154.748930	75.981310	61.684640	124.218730	18.569410	1.327690	163.382430	701.940000	45.300000	
11.893000	73.654000	154.752880	84.215870	54.211770	122.227800	19.954800	1.419360	163.382340	701.919980	45.300000	
11.903000	65.403000	154.753540	91.775380	47.355840	119.407250	22.333450	1.504210	163.400830	701.919980	45.400000	
11.897000	57.268000	154.782850	98.617210	41.141680	115.085700	25.640660	1.599850	163.361430	701.969970	45.400000	
11.894000	49.133000	154.822330	105.470100	35.505310	109.760080	29.742240	1.734460	163.352460	702.000000	45.400000	
11.902000	40.852000	154.933180	111.390310	30.684680	103.811260	34.502040	1.895430	163.400250	701.929990	45.300000	
11.909000	32.701000	154.905200	116.324480	26.601170	96.929120	39.866920	2.020770	163.398530	702.049990	45.300000	
11.889000	24.555000	154.986830	120.136420	23.589790	89.976200	46.350850	2.160100	163.408870	702.039980	45.300000	
11.890000	16.390000	155.067400	123.140010	21.187470	82.364730	53.312040	2.327520	163.466640	702.020020	45.200000	
11.899000	8.217000	155.037870	125.026860	19.567860	74.330740	60.472780	2.450990	163.422390	702.060000	45.300000	
11.900000	0.000000	155.065230	125.508420	19.477910	66.499230	68.138530	2.617660	163.444790	701.880000	45.300000	
11.899000	-8.217000	154.999680	124.644400	19.660480	58.797600	75.973500	2.671630	163.401550	702.020020	45.300000	
11.890000	-16.390000	155.027210	122.384510	21.122760	51.426760	84.190890	2.703340	163.427930	701.969970	45.300000	
11.889000	-24.555000	154.996780	119.194470	23.303000	44.332290	91.671300	2.810770	163.445160	701.950010	45.300000	
11.909000	-32.701000	154.954650	114.956010	25.973260	37.638300	99.023020	2.847650	163.463760	702.020020	45.400000	
11.902000	-40.852000	154.845020	109.690360	30.888550	31.653840	105.674720	2.924510	163.475190	701.929990	45.300000	
11.894000	-49.133000	154.766560	103.402540	36.093980	26.173620	111.880200	2.978500	163.486010	702.000000	45.300000	
11.897000	-57.268000	154.717350	96.471180	41.862490	21.178210	116.898060	2.916020	163.492860	701.969970	45.200000	
11.903000	-65.403000	154.624850	89.466830	48.093650	17.630620	120.807300	2.822750	163.520360	701.960020	45.300000	
11.893000	-73.654000	154.562180	81.414180	55.185380	15.283160	123.689630	2.797820	163.513960	702.020020	45.300000	
11.892000	-81.845000	154.526790	73.561230	62.630720	14.075940	125.485050	2.778530	163.529190	701.969970	45.300000	
11.900000	-90.000000	154.480820	66.234210	69.943040	13.402860	125.939760	2.738050	163.540270	701.940000	45.400000	
11.892000	-98.155000	154.432020	58.550200	77.728440	13.749050	125.077020	2.752940	163.526490	701.950010	45.400000	
11.893000	-106.346000	154.466750	51.411210	85.629130	15.177720	122.878110	2.759000	163.574370	702.020020	45.400000	
11.903000	-114.597000	154.488450	44.597620	93.287470	17.575690	119.602590	2.745400	163.513000	702.070010	45.300000	
11.897000	-122.732000	154.572570	38.347810	100.690730	20.873970	115.445480	2.646270	163.577040	702.060000	45.300000	
11.894000	-130.867000	154.592850	32.704370	107.349780	25.652580	110.010120	2.486930	163.535570	702.090030	45.300000	
11.902000	-139.148000	154.533510	27.683690	113.365780	31.108790	103.665630	2.357900	163.527470	702.030030	45.300000	
11.909000	-147.299000	154.569000	23.684280	118.323160	36.805600	97.006530	2.213330	163.525190	702.000000	45.300000	
11.889000	-155.445000	154.689640	20.082010	122.209110	43.337900	89.863330	2.242060	163.602750	702.090030	45.300000	
11.890000	-163.610000	154.691620	17.576930	125.139630	50.530090	82.131850	2.291240	163.578290	702.140010	45.300000	
11.899000	-171.783000	154.618880	16.123450	127.023650	57.925950	74.130740	2.345290	163.561920	702.140010	45.300000	
11.900000	180.000000	154.591350	15.979310	127.592400	65.741230	66.280210	2.281060	163.560870	702.010010	45.200000	
13.600000	180.000000	151.262770	7.048710	133.269680	63.112600	63.262720	2.852130	163.572200	702.039980	45.200000	
13.608000	-172.853000	151.284590	7.090150	132.835800	55.425990	71.084880	2.933170	163.570110	702.070010	45.100000	
13.611000	-165.583000	151.348680	8.179100	131.244610	47.793020	79.077050	2.811310	163.591860	702.039980	45.100000	
13.601000	-158.353000	151.431120	10.123730	128.565140	40.658260	87.466380	2.776440	163.597690	702.060000	45.100000	
13.609000	-151.210000	151.389110	12.798510	124.903270	33.959800	94.861080	2.670100	163.583600	702.010010	45.100000	
13.611000	-143.999000	151.401760	16.362740	120.529530	27.644740	101.878620	2.764050	163.616350	701.989990	45.100000	
13.601000	-136.825000	151.396300	20.995310	115.150860	21.554740	108.556500	2.891180	163.589450	701.950010	45.200000	
13.596000	-129.640000	151.335570	26.301250	109.100500	16.664710	114.642820	3.062630	163.616680	701.979980	45.200000	
13.611000	-122.431000	151.300230	32.065770	102.306950	12.529380	119.963840	3.258980	163.624130	702.020020	45.200000	
13.604000	-115.211000	151.333770	38.488630	94.753750	9.224290	124.376340	3.328720	163.665970	701.890010	45.200000	
13.595000	-108.042000	151.166660	45.129620	87.005550	6.711240	128.025040	3.239330	163.562390	701.950010	45.200000	
13.607000	-100.793000	151.120820	52.094140	78.987070	4.927410	130.460490	3.194970	163.611040	701.909970	45.300000	
13.601000	-93.617000	151.136780	59.483520	71.084420	4.066860	131.623080	3.216430	163.600740	702.000000	45.300000	
13.601000	-86.383000	151.293950	67.087300	63.593740	4.662610	131.739580	3.245130	163.620360	702.000000	45.200000	
13.607000	-79.207000	151.286710	74.425900	56.394430	5.133750	131.037160	3.229840	163.620390	702.060000	45.200000	
13.595000	-71.958000	151.386310	82.506870	49.096150	6.835430	129.096100	3.224120	163.628050	702.060000	45.200000	
13.604000	-64.789000	151.424790	90.508310	42.157380	9.145710	125.771980	3.231880	163.581910	702.020020	45.200000	
13.611000	-57.569000	151.507980	97.982140	35.754620	12.371020	121.636780	3.321970	163.619840	702.049990	45.300000	
13.596000	-50.360000	151.534790	105.187840	29.957970	16.382610	116.709560	3.380960	163.591190	701.940000	45.300000	
13.601000	-43.175000	151.655430	111.461420	24.452790	21.599240	110.837130	3.311770	163.612630	702.000000	45.300000	
13.611000	-36.001000	151.866840	117.089940	19.179730	28.411260	104.263660	3.266410	163.664030	702.010010	45.300000	
13.609000	-28.790000	151.928880	122.092060	15.569560	34.774600	97.097480	3.242510	163.658890	701.890010	45.400000	
13.601000	-21.647000	152.047840	126.030490	13.296470	41.740430	89.583990	3.147630	163.675200	702.000000	45.400000	
13.611000	-14.417000	152.005800	129.079210	11.292870	48.906280	81.422150	3.107100	163.655900	702.039980	45.400000	
13.608000	-7.147000	152.066190	130.779220	10.185620	56.542910	73.404640	3.067470	163.690120	702.080020	45.400000	
13.600000	0.000000	152.051440	131.387800	9.850260	64.131200	65.594480	3.067260	163.664280	702.030030	45.400000	
13.608000	7.147000	151.987610	131.161000	9.812950	71.645320	58.274050	2.952170	163.691120	702.140010	45.400000	
13.611000	14.417000	151.927750	129.852100	10.817380	79.492080	50.899810	2.797050	163.684840	702.080020	45.500000	
13.601000	21.647000	151.944600	127.149930	13.149800	87.670680	43.678270	2.701060	163.681060	701.950010	45.500000	
13.609000	28.790000	152.018770	123.484660	15.511910	95.166770	37.376710	2.634310	163.735380	702.039980	45.500000	
13.611000	36.001000	151.976820	118.922540	19.125570	102.470340	31.539130	2.498950	163.714420	702.099980	45.500000	
13.601000	43.175000	151.953020	113.637440	24.440160	108.811090	26.593220	2.436420	163.752910	702.099980	45.400000	
13.596000	50.360000	151.921140	107.556180	29.471830	114.778850	22.205210	2.353030	163.716020	702.179990	45.400000	
13.611000	57.569000	151.797390	100.542880	35.058790	120.195500	18.020680	2.212080	163.716600	702.179990	45.300000	
13.604000	64.789000	151.811050	93.347870	41.504720	124.289700	14.706020	2.117890	163.753040	702.020020	45.400000	
13.595000	71.958000	151.778880	85.727120	48.236530	127.595910	12.223110	1.999700	163.707140	702.039980	45.400000	
13.607000	79.207000	151.811110	77.678360	55.483820	129.914490	10.462610	1.923600	163.748810	702.080020	45.400000	
13.601000	86.383000	151.790010	69.798920	63.013230	130.911580	9.673480	1.988010	163.713490	702.049990	45.400000	
13.601000	93.617000	151.812270	62.346010	70.479350	130.815800	9.644890	2.002290	163.774610	702.140010	45.500000	
13.607000	100.793000	151.724260	55.110310	78.132810	129.744690	10.031800	2.101290	163.765200	702.080020	45.500000	
13.595000	108.042000	151.685390	47.977370	86.183050	127.523220	11.555890	2.178400	163.740650	702.109990	45.500000	
13.604000	115.211000	151.621110	41.003120	93.911610	124.148060	13.673020	2.091360	163.751040	702.039980	45.500000	
13.611000	122.431000	151.545930	34.285380	101.374670	119.941640	16.681370	1.921530	163.720660	702.130000	45.500000	
13.596000	129.640000	151.598010	28.482410	108.298130	114.634770	20.573700	2.050890	163.718860	702.120000	45.500000	
13.601000	136.825000	151.534620	23.064900	114.575600	108.557550	24.950900	2.412930	163.734280	702.179990	45.600000	
13.611000	143.999000	151.435880	17.657850	120.060420	101.758350	29.841390	3.071350	163.730410	702.070010	45.600000	
13.609000	151.210000	151.496860	13.912380	124.540560	94.620910	35.573240	3.373950	163.796300	702.080020	45.600000	
13.601000	158.353000	151.483700	11.110800	128.290450	86.806340	41.860450	3.230510	163.736040	702.159970	45.600000	
13.611000	165.583000	151.482940	8.808220	131.231450	78.408020	49.047090	2.989630	163.770920	702.090030	45.600000	
13.608000	172.853000	151.480350	7.765940	132.911700	70.664130	56.457950	2.858290	163.786960	702.150020	45.600000	
15.298000	173.587000	147.855650	-1.286960	138.151500	67.380070	53.452470	3.184720	163.779360	702.080020	45.700000	
15.291000	167.167000	147.846450	-0.262090	136.624130	75.361750	46.015930	3.258930	163.740950	702.049990	45.700000	
15.307000	160.676000	147.887710	1.751710	134.240010	83.369840	39.077720	3.584650	163.801480	702.039980	45.700000	
15.300000	154.261000	147.886060	4.409200	130.882250	91.826100	33.058820	3.750810	163.800260	702.070010	45.700000	
15.288000	147.854000	148.008380	7.915100	126.481250	99.109180	27.795590	3.529620	163.780140	702.070010	45.700000	
15.293000	141.428000	148.000920	11.784280	121.414270	106.554130	22.228280	3.058230	163.770400	702.140010	45.700000	
15.299000	134.985000	148.008900	16.148700	115.556310	113.097210	17.039320	2.477160	163.764430	702.140010	45.800000	
15.305000	128.583000	147.986770	21.719040	109.144370	119.084040	12.362620	2.297910	163.794220	702.010010	45.800000	
15.309000	122.142000	147.971740	28.162030	102.205600	124.158590	8.456580	2.325460	163.784560	702.169980	45.700000	
15.304000	115.711000	148.135680	34.724860	94.730380	128.580670	5.525290	2.575270	163.798810	702.120000	45.700000	
15.297000	109.291000	148.184860	41.617410	86.916010	132.016220	3.100470	2.759050	163.805340	702.030030	45.700000	
15.293000	102.897000	148.223050	48.869850	79.064070	134.515000	1.445110	2.841160	163.797620	702.109990	45.700000	
15.293000	96.458000	148.204150	56.327720	71.036730	136.024600	0.618600	2.773760	163.785980	702.150020	45.800000	
15.300000	90.000000	148.274480	63.153890	63.810410	136.571660	0.516080	2.639470	163.790730	702.039980	45.800000	
15.293000	83.542000	148.238300	70.770580	56.319950	136.088130	0.439990	2.548740	163.778520	702.049990	45.800000	
15.293000	77.103000	148.312820	78.615110	48.985990	134.571430	1.542990	2.483280	163.818160	702.080020	45.800000	
15.297000	70.709000	148.346070	86.753490	41.964670	132.098650	3.474010	2.560930	163.820210	702.109990	45.800000	
15.304000	64.289000	148.345720	94.564100	35.196700	128.719150	6.069810	2.606860	163.776440	702.109990	45.800000	
15.309000	57.858000	148.378690	101.717120	28.925150	124.283370	9.387760	2.735180	163.772280	702.120000	45.800000	
15.305000	51.417000	148.430010	108.713650	23.214910	119.265070	13.623760	2.848970	163.794980	702.070010	45.700000	
15.299000	45.015000	148.528060	114.997760	17.956590	113.233570	18.565080	2.993040	163.771510	702.080020	45.700000	
15.293000	38.572000	148.522980	120.835370	12.749750	106.714520	23.871380	2.969700	163.771100	702.080020	45.600000	
15.288000	32.146000	148.611220	125.675150	8.652480	99.593780	29.539700	3.028760	163.786500	702.060000	45.600000	
15.300000	25.739000	148.538510	130.025890	5.378480	92.407370	34.881310	3.078740	163.783510	702.099980	45.600000	
15.307000	19.324000	148.492680	133.170210	3.136860	84.364620	41.076670	3.080400	163.789570	701.960020	45.500000	
15.291000	12.833000	148.497760	135.217970	1.287600	76.442340	48.278340	3.181500	163.794110	702.120000	45.500000	
15.298000	6.413000	148.558750	136.575380	0.548680	68.580340	55.924890	3.305170	163.791400	702.000000	45.500000	
15.300000	0.000000	148.651090	136.818680	0.423090	61.413310	62.754120	3.367260	163.767000	702.109990	45.500000	
15.298000	-6.413000	148.704620	136.275770	0.890090	53.761770	70.518380	3.374880	163.807800	702.130000	45.500000	
15.291000	-12.833000	148.718800	134.576870	1.909180	46.324560	78.500870	3.318290	163.812930	702.140010	45.600000	
15.307000	-19.324000	148.634250	132.066800	3.654190	38.890970	86.828390	3.320030	163.827270	702.080020	45.600000	
15.300000	-25.739000	148.640180	128.591090	5.700990	31.865000	94.683840	3.352580	163.835280	702.080020	45.600000	
15.288000	-32.146000	148.599200	123.936110	8.697930	25.228760	101.978410	3.457740	163.832410	702.039980	45.600000	
15.293000	-38.572000	148.436000	118.799680	13.077390	18.005610	108.992710	3.508910	163.842390	702.070010	45.600000	
15.299000	-45.015000	148.272710	112.679340	18.249170	12.345010	115.549570	3.609180	163.811630	702.060000	45.700000	
15.305000	-51.417000	148.071290	106.224050	23.575260	7.907700	121.251180	3.605100	163.822050	702.179990	45.700000	
15.309000	-57.858000	148.118670	98.908000	29.473600	4.193460	126.116970	3.607710	163.844470	702.109990	45.700000	
15.304000	-64.289000	148.051930	91.436940	35.977200	1.069040	130.655840	3.523650	163.845440	702.200010	45.700000	
15.297000	-70.709000	147.950270	83.173460	42.803810	-1.358340	133.688160	3.530040	163.815890	702.190000	45.800000	
15.293000	-77.103000	147.883610	75.341840	49.951140	-3.158430	135.825010	3.519980	163.835680	702.229980	45.800000	
15.293000	-83.542000	147.834030	67.345470	57.449720	-4.197240	137.162670	3.587420	163.852290	702.239990	45.800000	
15.300000	-90.000000	147.764360	60.351240	64.186090	-5.171810	137.488040	3.601740	163.886180	702.200010	45.800000	
15.293000	-96.458000	147.758710	52.909550	72.159060	-4.980650	136.757320	3.616480	163.891560	702.190000	45.800000	
15.293000	-102.897000	147.779600	45.774860	80.107510	-3.751410	135.068880	3.595370	163.901570	702.150020	45.800000	
15.297000	-109.291000	147.806430	38.668120	88.013920	-1.789030	132.661640	3.640830	163.882290	702.150020	45.800000	
15.304000	-115.711000	147.886250	32.117520	95.826740	0.756250	129.027420	3.635850	163.879880	702.120000	45.800000	
15.309000	-122.142000	147.931320	25.744850	103.342830	4.119110	124.236910	3.612300	163.843950	702.109990	45.900000	
15.305000	-128.583000	148.027370	19.568450	110.318700	8.099190	119.073180	3.467730	163.919570	702.099980	45.900000	
15.299000	-134.985000	148.146710	14.648580	116.591420	12.749650	113.148660	3.430510	163.931930	702.200010	45.900000	
15.293000	-141.428000	148.164640	10.388920	122.274670	18.124030	106.299420	3.255150	163.869130	702.229980	45.800000	
15.288000	-147.854000	148.213170	6.774750	127.116040	24.353740	99.293690	3.161340	163.903150	702.250000	45.800000	
15.300000	-154.261000	148.137020	3.380870	131.447070	31.000830	92.140080	3.099720	163.969090	702.080020	45.700000	
15.307000	-160.676000	148.058780	0.924760	134.654130	37.807640	83.928440	3.119100	163.905350	702.120000	45.700000	
15.291000	-167.167000	148.134960	-0.638130	136.951640	45.307610	75.969490	3.192000	163.931240	702.070010	45.700000	
15.298000	-173.587000	148.082380	-1.499710	138.417020	52.875920	67.867260	3.322280	163.988830	702.130000	45.600000	
15.300000	180.000000	148.009020	-1.636340	138.868240	60.574130	60.231820	3.354610	163.969190	702.210020	45.600000	
17.000000	180.000000	143.598920	-10.662370	143.629670	57.381800	56.643530	3.549870	163.975780	702.250000	45.600000	
16.990000	-174.179000	143.652500	-10.640210	143.234620	49.817620	64.433000	3.584220	163.973680	702.150020	45.700000	
17.009000	-168.383000	143.687070	-9.774830	141.974170	42.195050	72.258530	3.475840	163.975170	702.219970	45.700000	
17.000000	-162.596000	143.798000	-8.278110	139.907380	34.997370	80.263420	3.309010	163.965440	702.090030	45.700000	
16.990000	-156.759000	143.885890	-6.053240	136.981190	27.809630	88.338800	3.191230	163.993180	702.060000	45.700000	
16.995000	-150.919000	143.884830	-3.290590	133.238130	20.795480	96.141530	3.295960	163.975420	702.159970	45.700000	
16.988000	-145.161000	143.918500	0.146890	128.673310	14.496340	103.340280	3.406270	164.011890	702.109990	45.700000	
17.014000	-139.343000	143.792620	3.907400	123.374800	8.888390	110.368580	3.505400	163.948530	702.210020	45.600000	
17.007000	-133.546000	143.747730	8.252290	117.363530	3.852730	116.958980	3.638890	163.979810	702.280030	45.600000	
17.001000	-127.699000	143.600100	13.128380	110.917580	-0.674230	122.913550	3.719410	163.974350	702.150020	45.600000	
17.006000	-121.937000	143.506700	18.579430	103.958530	-4.500220	128.096710	3.824750	164.004670	702.270020	45.500000	
17.002000	-116.134000	143.470380	25.118430	96.479490	-7.726070	133.153590	3.876410	164.046070	702.210020	45.600000	
17.001000	-110.310000	143.354160	31.934280	88.466450	-10.406540	136.661070	3.887550	163.994690	702.190000	45.600000	
16.988000	-104.517000	143.348140	39.003840	80.531740	-12.401980	139.319920	3.687720	163.970020	702.219970	45.600000	
17.008000	-98.662000	143.251110	46.351770	72.500630	-13.979680	141.170940	3.684620	164.010830	702.190000	45.600000	
16.996000	-92.909000	143.256870	53.581280	64.618260	-14.496530	142.137500	3.759120	163.987850	702.229980	45.600000	
16.996000	-87.091000	143.369570	60.417950	57.510760	-13.798370	142.395770	3.711180	164.035130	702.210020	45.600000	
17.012000	-81.253000	143.413770	67.614970	50.556060	-13.285210	141.801420	3.711670	164.015780	702.219970	45.600000	
16.988000	-75.483000	143.571520	75.684120	43.364810	-11.925530	140.379470	3.553290	164.032820	702.159970	45.600000	
17.001000	-69.690000	143.597840	83.503220	36.170560	-9.964750	137.999400	3.655010	163.977550	702.190000	45.600000	
17.002000	-63.866000	143.700850	91.931810	29.203690	-7.352650	134.826750	3.672520	164.020070	702.159970	45.600000	
17.006000	-58.063000	143.872090	99.449330	22.989730	-3.815030	130.512880	3.713220	164.020920	702.179990	45.600000	
17.001000	-52.301000	143.948170	106.661290	16.941730	0.018740	125.326930	3.733280	164.008120	702.229980	45.600000	
17.007000	-46.454000	143.943920	113.376830	11.360700	4.243240	119.697180	3.735910	163.963810	702.270020	45.600000	
17.014000	-40.657000	144.109160	119.748290	6.624470	9.092970	113.415670	3.700080	163.999210	702.270020	45.700000	
16.988000	-34.839000	144.324130	125.193790	2.583180	15.008890	106.468080	3.621880	163.984530	702.099980	45.700000	
16.995000	-29.081000	144.412630	130.503750	-1.370330	21.726350	99.200470	3.625730	164.055010	702.179990	45.700000	
16.990000	-23.241000	144.448610	134.398130	-3.934130	28.688910	91.737190	3.539020	164.018140	702.219970	45.700000	
17.000000	-17.404000	144.565440	137.631410	-5.387920	35.945190	83.390010	3.446670	164.023770	702.190000	45.800000	
17.009000	-11.617000	144.472210	140.018170	-7.248530	43.268910	75.250120	3.531520	164.004780	702.140010	45.800000	
16.990000	-5.821000	144.476210	141.426640	-8.290020	50.643230	67.170520	3.484030	163.998030	702.239990	45.800000	
17.000000	0.000000	144.509550	142.018940	-8.910020	58.339000	59.799220	3.494960	164.037830	702.270020	45.800000	
16.990000	5.821000	144.534450	141.580110	-8.692690	65.398270	52.827900	3.451290	164.029860	702.340030	45.800000	
17.009000	11.617000	144.404130	140.699550	-8.110500	73.007850	45.267110	3.381510	164.049640	702.169980	45.800000	
17.000000	17.404000	144.509090	138.704250	-6.130610	81.098980	38.621160	3.331650	164.064330	702.270020	45.800000	
16.990000	23.241000	144.488570	135.899190	-4.337560	89.066440	32.707060	3.326910	164.072770	702.210020	45.800000	
16.995000	29.081000	144.476930	132.223070	-1.505910	96.843510	25.821440	3.281680	164.048030	702.169980	45.700000	
16.988000	34.839000	144.465230	127.482130	2.044350	104.045690	19.274180	3.263230	164.038740	702.150020	45.700000	
17.014000	40.657000	144.414430	122.179980	6.313510	111.097050	13.619070	3.201120	164.084980	702.250000	45.700000	
17.007000	46.454000	144.349460	116.232930	11.361310	117.468310	8.726190	3.165550	164.063060	702.150020	45.600000	
17.001000	52.301000	144.290830	109.629410	16.803130	123.409000	4.310660	3.068220	164.055760	702.179990	45.600000	
17.006000	58.063000	144.146500	102.690860	22.356390	128.469310	0.200790	2.953490	164.066710	702.130000	45.600000	
17.002000	63.866000	144.119460	95.486550	28.554680	132.876530	-3.110020	2.886200	164.067110	702.239990	45.600000	
17.001000	69.690000	144.162930	87.380800	35.381340	136.466420	-5.658840	2.917490	164.117940	702.270020	45.600000	
16.988000	75.483000	144.074310	79.452470	42.284170	139.087430	-7.839740	2.883750	164.094940	702.140010	45.600000	
17.012000	81.253000	143.971530	71.391060	49.411270	140.857440	-9.355530	2.845010	164.077260	702.229980	45.600000	
16.996000	87.091000	144.004820	63.392210	57.157310	141.783600	-9.681650	2.924660	164.092220	702.280030	45.600000	
16.996000	92.909000	144.037140	57.162750	64.111770	141.655240	-9.412060	3.065420	164.115660	702.150020	45.700000	
17.008000	98.662000	143.934130	49.927070	71.403200	140.830720	-9.560240	3.173490	164.056430	702.219970	45.700000	
16.988000	104.517000	143.995820	42.144190	79.505580	139.012150	-8.384590	3.333710	164.137760	702.210020	45.700000	
17.001000	110.310000	143.975070	35.048160	87.338220	136.413240	-6.624940	3.225640	164.138110	702.190000	45.700000	
17.002000	116.134000	143.972050	27.604530	95.184530	132.837510	-3.988180	2.918210	164.095310	702.030030	45.700000	
17.006000	121.937000	143.939560	20.991720	102.794960	128.372670	-1.064500	2.692270	164.123470	702.150020	45.700000	
17.001000	127.699000	143.917690	15.269100	109.876350	123.200260	2.621440	2.533680	164.132870	702.289980	45.700000	
17.007000	133.546000	143.860730	10.291810	116.468750	117.323190	6.733010	2.642250	164.102650	702.280030	45.700000	
17.014000	139.343000	143.839080	5.633080	122.577720	110.979450	11.704240	2.946760	164.127300	701.820010	45.700000	
16.988000	145.161000	143.842420	1.452870	127.980350	103.638650	17.778200	3.334440	164.104840	702.169980	45.800000	
16.995000	150.919000	143.830490	-1.834830	132.752350	96.461570	24.402220	3.875730	164.130920	702.239990	45.800000	
16.990000	156.759000	143.799010	-4.886420	136.666260	88.402470	30.778430	3.928990	164.149030	702.299990	45.900000	
17.000000	162.596000	143.701370	-7.511180	139.702220	80.173530	36.747310	3.679030	164.131130	702.370000	45.800000	
17.009000	168.383000	143.664610	-9.303240	141.977840	71.954300	43.014720	3.473240	164.163850	702.320010	45.800000	
16.990000	174.179000	143.674910	-10.176700	143.273250	64.221880	49.961990	3.452360	164.104220	702.270020	45.800000	
18.709000	174.675000	138.777020	-19.586300	147.768540	60.594060	46.400070	3.598020	164.167830	701.630000	45.700000	
18.703000	169.441000	138.779420	-18.671740	146.528440	68.077980	40.331630	3.645690	164.156460	702.239990	45.700000	
18.691000	164.085000	138.851760	-17.003790	144.461230	76.350860	33.560150	3.733370	164.182080	702.239990	45.800000	
18.706000	158.818000	138.908770	-14.769670	141.624950	84.470060	26.288850	3.936810	164.127000	702.260010	45.800000	
18.695000	153.537000	138.970280	-11.797990	138.037160	92.535740	19.407880	3.984630	164.123810	702.010010	45.800000	
18.704000	148.255000	138.987580	-8.505810	133.712720	100.267310	13.121920	3.756250	164.149900	701.560000	45.900000	
18.698000	142.952000	138.959340	-4.773680	128.551860	107.626340	7.274180	3.306930	164.137270	702.179990	45.800000	
18.699000	137.625000	139.025970	-0.527180	122.882420	114.529350	2.214440	2.918720	164.142060	701.580020	45.800000	
18.705000	132.343000	139.128330	4.234690	116.685580	120.896190	-2.193240	2.738550	164.166820	701.640010	45.800000	
18.713000	127.067000	139.115310	9.347520	110.019580	126.742430	-6.310360	2.799280	164.208070	701.659970	45.800000	
18.700000	121.794000	139.159070	14.889900	102.828890	131.842680	-9.673050	3.053180	164.168080	701.700010	45.800000	
18.698000	116.504000	139.151630	20.739720	95.264660	136.255800	-12.706050	3.135270	164.158480	701.590030	45.800000	
18.707000	111.165000	139.146130	27.313190	87.365030	139.901840	-15.227400	3.304110	164.175400	701.650020	45.800000	
18.690000	105.863000	139.160370	34.995610	79.548480	142.708390	-17.143600	3.438550	164.159610	701.560000	45.800000	
18.696000	100.583000	139.179550	42.533200	71.654320	144.844190	-18.416490	3.336470	164.161180	701.640010	45.800000	
18.700000	95.309000	139.204320	50.194590	63.938720	146.127640	-19.052670	3.312410	164.209850	701.599980	45.800000	
18.700000	90.000000	139.289730	56.754740	57.328080	146.522060	-19.116370	3.147920	164.186870	701.560000	45.800000	
18.700000	84.691000	139.307370	63.940360	49.929100	146.180470	-18.813240	3.092860	164.227260	701.609990	45.800000	
18.696000	79.417000	139.275730	71.753080	42.536820	144.900330	-17.842720	3.085120	164.210190	701.620000	45.800000	
18.690000	74.137000	139.322170	79.844630	35.349230	142.750080	-16.187410	3.092090	164.173490	701.659970	45.800000	
18.707000	68.835000	139.308140	87.732220	28.341590	140.005680	-14.174690	3.027280	164.167450	701.539980	45.800000	
18.698000	63.496000	139.481670	95.685030	21.684240	136.416340	-11.210920	3.065440	164.193310	701.460020	45.800000	
18.700000	58.206000	139.569470	103.006840	15.514140	132.027470	-7.957870	3.112050	164.201600	701.580020	45.800000	
18.713000	52.933000	139.640140	110.164830	9.887150	126.840430	-4.224250	3.191910	164.227280	701.549990	45.800000	
18.705000	47.657000	139.762660	116.807440	4.955480	121.043020	0.181500	3.258710	164.182720	701.630000	46.000000	
18.699000	42.375000	139.732010	122.875420	0.114590	114.674930	4.755410	3.334290	164.160140	701.640010	45.900000	
18.698000	37.048000	139.780640	128.442960	-4.377320	107.967770	9.825470	3.398470	164.153020	701.669980	46.000000	
18.704000	31.745000	139.841370	133.638730	-8.212010	100.560980	15.523070	3.388190	164.145250	701.770020	46.100000	
18.695000	26.463000	139.850850	137.743130	-11.441090	92.971470	21.761710	3.407000	164.166890	701.640010	46.100000	
18.706000	21.182000	139.789430	141.005040	-14.062520	85.030040	28.725490	3.307120	164.167100	701.640010	46.100000	
18.691000	15.915000	139.819000	143.576520	-15.612620	77.227520	36.144280	3.448730	164.205540	701.560000	46.100000	
18.703000	10.559000	139.759410	145.515410	-17.376210	69.180170	42.539840	3.521430	164.195800	701.679990	46.000000	
18.709000	5.325000	139.863360	146.470760	-18.084790	61.640770	49.427050	3.615160	164.198380	701.530030	46.000000	
18.700000	0.000000	139.859630	146.730960	-18.283810	54.852420	56.066890	3.703390	164.196460	701.599980	46.000000	
18.709000	-5.325000	139.849520	146.138000	-17.776040	47.306230	64.111650	3.723260	164.158870	701.479980	46.000000	
18.703000	-10.559000	139.885440	144.761630	-16.661340	39.940440	71.589230	3.708530	164.163250	701.570010	45.900000	
18.691000	-15.915000	139.912540	142.592360	-15.042410	32.581840	79.860180	3.703840	164.232910	701.679990	45.900000	
18.706000	-21.182000	139.747150	139.799440	-13.869670	25.210370	87.802420	3.659800	164.188490	701.640010	45.800000	
18.695000	-26.463000	139.802380	135.973830	-11.412880	18.297910	95.913050	3.680500	164.204510	701.729980	45.800000	
18.704000	-31.745000	139.699190	131.467360	-7.732070	11.647370	103.365330	3.737930	164.206500	701.650020	45.800000	
18.698000	-37.048000	139.590480	126.096530	-3.802420	5.775430	110.767110	3.759260	164.187330	701.489990	45.800000	
18.699000	-42.375000	139.436650	120.168900	0.402310	0.521720	117.292580	3.814000	164.167770	701.679990	45.700000	
18.705000	-47.657000	139.370730	113.805950	4.969660	-4.225480	123.455440	3.836540	164.214770	701.690000	45.700000	
18.713000	-52.933000	139.274490	106.859630	10.364370	-8.569070	128.915130	3.867450	164.187320	701.690000	45.800000	
18.700000	-58.206000	139.276700	99.790550	16.186400	-12.341760	134.152650	3.816630	164.176740	701.620000	45.800000	
18.698000	-63.496000	139.033490	92.085620	22.361100	-15.863850	138.288850	3.755790	164.174060	701.560000	45.900000	
18.707000	-68.835000	138.981890	83.705310	29.355440	-18.515270	141.757460	3.745070	164.239520	701.560000	45.900000	
18.690000	-74.137000	138.855970	75.714030	36.384210	-20.479210	144.060760	3.772160	164.182850	701.650020	45.900000	
18.696000	-79.417000	138.786410	67.617660	43.590600	-21.982690	145.934080	3.836460	164.223660	701.450010	45.900000	
18.700000	-84.691000	138.648640	60.018680	50.775730	-23.086250	146.908860	3.849360	164.231870	701.599980	45.900000	
18.700000	-90.000000	138.543030	53.891000	57.307430	-23.343840	147.053970	3.877830	164.201080	701.560000	45.900000	
18.700000	-95.309000	138.500380	46.429460	64.821880	-23.479240	146.576660	3.937210	164.233760	701.710020	45.900000	
18.696000	-100.583000	138.461060	38.726770	72.835650	-22.529240	145.214540	3.948380	164.219670	701.710020	45.900000	
18.690000	-105.863000	138.633680	31.738960	80.708200	-20.858350	142.974670	3.975990	164.245350	701.659970	45.900000	
18.707000	-111.165000	138.682590	23.977590	88.577640	-18.825770	140.340030	3.977130	164.216130	701.750000	45.900000	
18.698000	-116.504000	138.748460	17.374910	96.672530	-16.387760	136.664980	4.037370	164.244020	701.719970	45.900000	
18.700000	-121.794000	138.833590	11.796440	104.179150	-13.222000	131.897890	4.014150	164.234190	701.640010	45.800000	
18.713000	-127.067000	138.966660	6.520260	111.409210	-9.537480	126.433150	3.890450	164.261140	701.690000	45.800000	
18.705000	-132.343000	139.059250	1.674170	117.848030	-5.270030	120.689390	3.814830	164.266460	701.700010	45.800000	
18.699000	-137.625000	139.195620	-2.627540	123.975090	-0.476980	114.254970	3.752040	164.276460	701.650020	45.800000	
18.698000	-142.952000	139.202480	-6.796280	129.573580	5.022050	107.240790	3.645830	164.240620	701.679990	45.800000	
18.704000	-148.255000	139.285540	-10.244390	134.591580	10.843800	100.040180	3.550100	164.275040	701.650020	45.900000	
18.695000	-153.537000	139.368500	-13.239230	138.794940	16.976010	92.449120	3.435720	164.280180	701.719970	45.900000	
18.706000	-158.818000	139.304950	-15.798560	142.218370	23.982100	84.431820	3.435610	164.292050	701.770020	45.900000	
18.691000	-164.085000	139.226990	-17.879040	144.916730	31.466400	76.570480	3.579780	164.281400	701.770020	45.900000	
18.703000	-169.441000	139.110640	-19.262410	146.831620	38.908600	68.498110	3.731390	164.265590	701.679990	45.900000	
18.709000	-174.675000	138.996080	-20.130440	147.989010	46.395700	60.655670	3.807190	164.295290	701.669980	45.900000	
18.700000	180.000000	138.903690	-20.154630	148.247150	54.210370	52.630430	3.765310	164.252490	701.770020	45.900000	
20.400000	180.000000	133.662450	-29.207280	152.029950	50.421270	48.871870	3.883710	164.258730	701.739990	45.900000	
20.401000	-175.153000	133.807980	-29.019450	151.819150	42.788060	56.124020	4.009150	164.319150	701.820010	45.900000	
20.407000	-170.264000	133.941270	-28.341280	150.848280	35.055250	64.458300	3.892640	164.336320	701.760010	45.900000	
20.410000	-165.423000	133.994980	-27.166260	149.171940	27.398670	72.011330	3.803950	164.323410	701.810000	45.900000	
20.392000	-160.496000	134.124390	-25.326170	146.663700	20.038960	80.072090	3.657730	164.328230	701.729980	46.000000	
20.401000	-155.705000	134.164410	-23.084040	143.561950	13.593650	87.798780	3.635230	164.343730	701.770020	46.000000	
20.405000	-150.835000	134.077730	-20.665180	139.724980	7.155220	95.880210	3.621590	164.348110	701.940000	46.100000	
20.397000	-145.903000	134.111280	-17.259500	135.028200	1.261830	103.426650	3.776700	164.323140	701.909970	46.100000	
20.392000	-141.062000	134.099030	-13.656970	129.863420	-4.202670	110.510770	3.885100	164.342610	701.929990	46.100000	
20.396000	-136.227000	133.979510	-9.587730	124.184520	-9.460930	117.229700	3.967640	164.351760	701.890010	46.200000	
20.408000	-131.372000	133.849500	-5.223970	117.949470	-14.200690	123.609020	3.989000	164.379560	701.890010	46.100000	
20.410000	-126.511000	133.732270	-0.183040	111.211430	-18.177330	129.382030	4.031550	164.386460	701.929990	46.100000	
20.400000	-121.604000	133.668180	5.155130	103.941800	-21.580820	134.882140	4.094740	164.356510	702.000000	46.100000	
20.403000	-116.741000	133.521790	10.859960	96.396980	-24.790610	139.397350	4.182630	164.352190	701.870000	46.100000	
20.413000	-111.900000	133.468960	16.669940	88.553580	-27.057280	143.201630	4.159160	164.383010	701.940000	46.100000	
20.398000	-107.004000	133.364120	23.117290	80.625080	-29.100670	146.197430	4.087870	164.361020	701.969970	46.100000	
20.394000	-102.132000	133.243700	30.599240	72.700570	-30.743440	148.613560	3.991100	164.402420	701.929990	46.000000	
20.403000	-97.332000	133.169590	38.592140	64.634610	-32.087450	150.216460	4.076160	164.342940	702.010010	46.000000	
20.392000	-92.440000	133.241790	45.945610	56.812760	-32.749310	151.065440	4.090740	164.365490	701.880000	46.000000	
20.392000	-87.560000	133.285000	52.528140	50.374690	-32.307820	151.216580	4.012790	164.384430	701.880000	46.000000	
20.403000	-82.668000	133.401640	59.808610	43.473620	-31.773300	150.805770	3.983180	164.390610	702.039980	46.000000	
20.394000	-77.868000	133.521070	67.036960	36.329600	-30.466840	149.538990	3.917530	164.346210	701.979980	46.000000	
20.398000	-72.996000	133.699540	75.187030	29.182870	-28.903010	147.568630	3.876000	164.381700	702.010010	46.000000	
20.413000	-68.100000	133.731900	83.289500	22.018930	-26.970720	144.773960	3.866880	164.342040	701.969970	46.000000	
20.403000	-63.259000	133.907760	91.123140	15.617000	-24.306390	141.571980	3.920930	164.344560	702.010010	46.100000	
20.400000	-58.396000	134.115300	99.158780	9.722240	-20.955130	137.536730	3.966500	164.391770	701.969970	46.100000	
20.410000	-53.489000	134.137040	106.435130	4.097030	-17.041990	132.356900	3.943250	164.351060	701.960020	46.200000	
20.408000	-48.628000	134.273380	113.755750	-1.137330	-13.004920	126.724430	3.914970	164.332410	701.940000	46.200000	
20.396000	-43.773000	134.385070	120.197590	-5.849470	-8.396880	120.742580	3.891860	164.386220	702.060000	46.200000	
20.392000	-38.938000	134.560880	126.185720	-10.058740	-3.361790	114.669460	3.874160	164.321560	702.030030	46.100000	
20.397000	-34.097000	134.620910	131.718630	-14.002910	2.006500	107.335250	3.856510	164.337200	702.010010	46.200000	
20.405000	-29.165000	134.597460	136.880540	-17.699560	7.889670	99.672080	3.803130	164.368760	702.080020	46.100000	
20.401000	-24.295000	134.739760	140.979310	-21.017340	14.381020	91.862360	3.727680	164.355040	702.099980	46.100000	
20.392000	-19.504000	134.743610	144.283540	-23.085970	21.186270	84.107180	3.715030	164.336780	702.159970	46.100000	
20.410000	-14.577000	134.769880	147.201770	-24.256610	28.668420	75.793620	3.707830	164.351650	702.099980	46.100000	
20.407000	-9.736000	134.845260	149.164470	-25.861310	36.067420	68.231390	3.804810	164.359650	702.039980	46.100000	
20.401000	-4.847000	134.869670	150.420820	-26.921180	43.641590	59.921540	3.826930	164.385450	702.130000	46.100000	
20.400000	0.000000	134.856450	150.874820	-27.341280	51.221800	52.061060	3.775510	164.393970	702.120000	46.000000	
20.401000	4.847000	134.899780	150.589550	-27.100310	57.664630	46.441780	3.677920	164.380190	702.140010	46.000000	
20.407000	9.736000	134.831650	149.736620	-26.286680	65.114430	39.757410	3.599490	164.347890	702.229980	46.000000	
20.410000	14.577000	134.799560	148.194150	-24.578470	73.015860	31.911970	3.563120	164.401890	702.190000	46.000000	
20.392000	19.504000	134.834340	145.644130	-23.187560	81.054110	24.572120	3.493790	164.365020	702.140010	46.000000	
20.401000	24.295000	134.820300	142.616090	-21.013860	88.678550	18.150490	3.487810	164.399490	702.229980	46.000000	
20.405000	29.165000	134.779310	138.995510	-18.188780	96.650560	11.814870	3.486250	164.421550	702.340030	46.000000	
20.397000	34.097000	134.925810	134.329650	-14.475870	104.379170	6.160660	3.526040	164.459410	702.270020	46.100000	
20.392000	38.938000	134.848040	129.008320	-10.573970	111.356190	1.004630	3.447350	164.395020	702.210020	46.100000	
20.396000	43.773000	134.790410	123.382280	-6.246860	117.973010	-3.788630	3.362520	164.421370	702.250000	46.200000	
20.408000	48.628000	134.640260	117.085520	-1.667960	124.247170	-8.239860	3.337210	164.408680	702.260010	46.300000	
20.410000	53.489000	134.536330	110.326950	3.189420	129.921940	-12.314150	3.218800	164.393190	702.270020	46.400000	
20.400000	58.396000	134.536610	103.059680	8.913320	135.131940	-15.893200	3.209810	164.393540	702.210020	46.400000	
20.403000	63.259000	134.430800	95.683530	14.802260	139.552760	-19.095450	3.233580	164.400280	702.219970	46.400000	
20.413000	68.100000	134.359420	87.686210	21.114180	143.239520	-21.955420	3.156860	164.425860	702.250000	46.500000	
20.398000	72.996000	134.310710	79.752370	28.033980	146.287780	-24.211640	3.165660	164.444980	702.250000	46.400000	
20.394000	77.868000	134.222600	71.841850	35.045960	148.487080	-26.038180	3.161730	164.426160	702.250000	46.400000	
20.403000	82.668000	134.122600	64.394190	42.216920	149.991500	-27.454240	3.193040	164.411590	702.159970	46.400000	
20.392000	87.560000	134.184650	56.540320	49.812810	150.712100	-28.016410	3.255880	164.463470	702.289980	46.400000	
20.392000	92.440000	134.101590	49.260300	56.780560	150.685270	-27.990990	3.359480	164.451250	702.190000	46.400000	
20.403000	97.332000	134.060970	42.636910	63.555140	150.048050	-27.725770	3.429230	164.487240	702.239990	46.500000	
20.394000	102.132000	134.094670	34.754630	71.386750	148.536740	-26.772980	3.548280	164.449100	702.229980	46.500000	
20.398000	107.004000	134.151230	27.424920	79.275690	146.337750	-25.249330	3.592600	164.500990	702.190000	46.600000	
20.413000	111.900000	134.105560	20.898330	87.142050	143.248660	-23.440630	3.527260	164.465940	702.250000	46.600000	
20.403000	116.741000	134.138060	14.776320	94.937870	139.582210	-20.944710	3.383290	164.466060	702.060000	46.600000	
20.400000	121.604000	134.172590	8.861500	102.580860	135.159520	-17.898040	3.160550	164.464860	702.090030	46.600000	
20.410000	126.511000	134.152480	3.232680	109.864580	130.037990	-14.479800	3.043660	164.494720	701.969970	46.600000	
20.408000	131.372000	134.071400	-2.116500	116.729850	124.335530	-10.712010	2.956440	164.464000	702.130000	46.600000	
20.396000	136.227000	134.164890	-6.798300	123.069620	118.059970	-6.355260	3.058600	164.501370	702.179990	46.600000	
20.392000	141.062000	134.130650	-10.989480	128.833210	111.528180	-1.762120	3.328530	164.502700	702.239990	46.600000	
20.397000	145.903000	134.053470	-14.816480	134.136200	104.218430	3.365050	3.735290	164.476330	702.250000	46.600000	
20.405000	150.835000	133.953660	-18.405820	138.987850	96.565190	9.172300	3.977170	164.494370	702.219970	46.600000	
20.401000	155.705000	133.969760	-21.464860	143.049700	88.362530	15.318840	4.093440	164.504100	702.260010	46.600000	
20.392000	160.496000	133.930370	-23.864340	146.343980	80.530470	21.684190	3.987240	164.524810	702.349980	46.600000	
20.410000	165.423000	133.779460	-26.101920	148.957030	72.117870	28.494090	3.875050	164.471690	702.299990	46.600000	
20.407000	170.264000	133.761350	-27.792890	150.800290	64.037370	35.905010	3.820830	164.483890	702.299990	46.600000	
20.401000	175.153000	133.855790	-28.755320	151.906070	57.145430	42.498870	3.822570	164.553280	702.419980	46.600000	
0.141000	45.000000	164.716870	76.180930	78.497580	74.816800	76.377840	3.794670	164.536440	702.340030	46.600000	
4.001000	128.691000	164.155410	63.603520	89.715660	88.935740	60.480160	2.910920	164.459590	702.409970	46.700000	
4.002000	76.995000	164.259860	79.569690	73.502910	93.021740	57.163550	3.002210	164.513310	702.370000	46.700000	
4.002000	25.892000	164.258190	92.528430	61.207710	82.540700	67.092800	3.142810	164.476440	702.429990	46.800000	
4.002000	-25.892000	164.273880	92.287760	61.300560	65.600570	84.078320	3.121480	164.504230	702.349980	46.800000	
4.002000	-76.995000	164.228230	78.607300	73.831540	55.477580	94.331500	2.923160	164.510060	702.349980	46.800000	
4.001000	-128.691000	164.126710	63.001780	89.857370	58.969090	90.212680	2.733660	164.459550	702.359990	46.800000	
4.000000	180.000000	164.126450	56.359790	97.304210	72.775760	75.191650	2.713830	164.504710	702.359990	46.900000	
8.000000	180.000000	161.187290	36.975940	113.992310	69.901260	71.744260	1.493140	164.546800	702.400020	46.800000	
7.991000	-152.370000	161.254070	40.583690	109.392970	53.366150	89.723910	1.690360	164.555590	702.359990	46.800000	
7.997000	-124.550000	161.224260	51.285120	96.640590	40.062240	103.838230	1.711290	164.513730	702.320010	46.900000	
8.006000	-96.837000	161.203020	67.192390	79.490520	34.452390	111.352960	1.885880	164.542620	702.440000	46.800000	
7.988000	-69.228000	161.313190	84.994620	62.191620	37.149410	109.345410	2.001710	164.522960	702.409970	46.800000	
7.997000	-41.563000	161.418700	100.488190	48.241090	46.836460	98.650100	2.107180	164.512950	702.429990	46.700000	
8.008000	-13.821000	161.535460	110.103690	40.387670	62.465370	82.381320	2.138600	164.563080	702.340030	46.700000	
8.008000	13.821000	161.505540	110.304000	40.291030	80.687530	63.940380	1.804370	164.533570	702.380000	46.700000	
7.997000	41.563000	161.440780	101.300580	47.999760	97.146740	48.767730	1.542420	164.502810	702.409970	46.700000	
7.988000	69.228000	161.412480	86.707110	61.557380	108.000210	39.267010	1.298770	164.540340	702.460020	46.700000	
8.006000	96.837000	161.348110	68.582770	79.036860	110.321590	36.999390	1.165730	164.549610	702.419980	46.800000	
7.997000	124.550000	161.273700	52.409530	96.495000	103.282130	42.667900	1.599330	164.532420	702.460020	46.800000	
7.991000	152.370000	161.210510	41.109960	109.112900	88.667690	55.022270	1.697170	164.546050	702.489990	46.900000	
12.009000	161.059000	155.294250	18.318280	125.183000	83.947530	49.559380	2.601120	164.535420	702.460020	46.900000	
12.013000	142.081000	155.314930	27.252330	115.682110	101.889020	34.640930	2.558840	164.560850	702.520020	46.900000	
12.006000	123.113000	155.404160	39.858220	101.084270	115.800380	24.275920	1.667230	164.523790	702.489990	46.800000	
12.007000	104.200000	155.493770	55.660250	83.213760	124.088660	18.634950	1.549610	164.521150	702.440000	46.800000	
11.989000	85.301000	155.693730	73.420320	65.177600	125.882610	17.987390	1.426620	164.579860	702.539980	46.800000	
12.013000	66.294000	155.664470	91.851070	48.058960	120.994400	21.765060	1.588020	164.590840	702.479980	46.800000	
12.012000	47.388000	155.784470	107.863090	34.289490	109.611740	30.551200	1.897070	164.572430	702.530030	46.700000	
11.990000	28.440000	155.914570	119.693410	24.500010	94.045720	43.262730	2.213920	164.596370	702.489990	46.700000	
11.991000	9.464000	156.024520	126.016470	19.270480	76.024620	59.785950	2.515240	164.622440	702.460020	46.600000	
11.991000	-9.464000	155.981550	125.607990	19.513720	57.818080	77.813890	2.748960	164.599490	702.599980	46.600000	
11.990000	-28.440000	155.860240	118.387950	23.991810	41.058680	96.044410	2.898830	164.544740	702.609990	46.600000	
12.012000	-47.388000	155.686830	105.856480	34.763380	26.943670	111.745150	3.018780	164.627440	702.650020	46.500000	
12.013000	-66.294000	155.470660	89.329640	48.849910	16.889930	122.412410	2.921220	164.614470	702.590030	46.500000	
11.989000	-85.301000	155.423160	70.945710	66.052380	13.533100	127.002500	2.848770	164.635700	702.590030	46.600000	
12.007000	-104.200000	155.249500	53.426250	84.041790	14.313120	124.689610	2.812760	164.596050	702.580020	46.600000	
12.006000	-123.113000	155.405410	38.077930	101.767910	20.634140	116.297490	2.709320	164.627260	702.549990	46.600000	
12.013000	-142.081000	155.397780	25.736620	116.338600	32.915100	102.242140	2.375660	164.623500	702.549990	46.700000	
12.009000	-161.059000	155.427690	17.475330	125.569860	48.178680	85.313550	2.327240	164.628420	702.620000	46.700000	
16.000000	180.000000	146.810580	-5.328540	141.455200	59.544060	59.096270	3.599780	164.654680	702.429990	46.700000	
15.990000	-165.604000	146.907880	-4.054120	139.099610	41.685230	77.614560	3.353450	164.666230	702.609990	46.800000	
16.002000	-151.165000	146.977260	1.486620	131.809020	24.926380	96.272270	3.294120	164.663640	702.580020	46.800000	
16.002000	-136.836000	146.970430	10.329190	119.906790	11.096780	112.731900	3.490610	164.658490	702.500000	46.800000	
15.995000	-122.439000	146.756910	22.353400	104.617540	0.906830	126.152340	3.732610	164.648710	702.650020	46.800000	
15.993000	-107.966000	146.660920	38.097710	86.407750	-5.997720	135.770360	3.721560	164.678700	702.580020	46.800000	
16.005000	-93.629000	146.526780	55.024030	67.717750	-9.072540	140.071690	3.669850	164.632800	702.560000	46.700000	
15.992000	-79.234000	146.711380	72.072360	50.894620	-7.443530	139.272950	3.583780	164.648930	702.539980	46.700000	
16.009000	-64.774000	146.903440	91.234280	34.089640	-2.716300	133.483250	3.611400	164.640670	702.520020	46.700000	
15.997000	-50.364000	147.087070	108.533340	19.738530	5.668720	122.307920	3.669450	164.613480	702.479980	46.700000	
15.997000	-36.045000	147.435170	122.782520	7.920250	17.932210	107.571700	3.582150	164.651150	702.549990	46.700000	
16.000000	-21.597000	147.596250	133.439060	0.742630	34.147790	90.146680	3.438870	164.641510	702.650020	46.700000	
16.003000	-7.169000	147.630870	138.999360	-2.649160	51.502370	70.846740	3.476280	164.643830	702.650020	46.700000	
16.003000	7.169000	147.579040	139.340610	-3.151740	68.923050	53.576040	3.417780	164.631380	702.620000	46.700000	
16.000000	21.597000	147.513050	134.729740	0.201130	87.518100	37.048110	3.212290	164.637880	702.560000	46.800000	
15.997000	36.045000	147.550660	124.905500	7.752060	105.324710	23.017980	3.132860	164.667860	702.570010	46.700000	
15.997000	50.364000	147.411830	111.259380	19.444300	120.213350	10.697630	2.965110	164.650940	702.599980	46.700000	
16.009000	64.774000	147.243990	94.577030	33.307430	131.568820	1.773010	2.743210	164.634930	702.650020	46.700000	
15.992000	79.234000	147.115360	75.625430	49.803460	138.037610	-3.413990	2.718510	164.616970	702.620000	46.600000	
16.005000	93.629000	147.096790	58.262600	66.965920	139.247500	-3.667450	2.946800	164.622100	702.599980	46.600000	
15.993000	107.966000	147.115340	41.126180	85.252990	135.375520	-1.786760	2.959500	164.671950	702.659970	46.700000	
15.995000	122.439000	147.073780	24.568140	103.477620	126.162610	4.766960	2.511460	164.682950	702.549990	46.700000	
16.002000	136.836000	147.003570	11.866410	119.059890	112.898790	14.982440	2.813840	164.693710	702.659970	46.800000	
16.002000	151.165000	146.963870	2.741270	131.293140	96.294700	28.625970	3.905730	164.692200	702.820010	46.800000	
15.990000	165.604000	146.917180	-3.265890	138.903630	77.308330	42.734150	3.491970	164.758070	702.590030	46.900000	
20.003000	168.362000	135.281130	-25.106900	149.573720	67.984860	34.507030	3.799440	164.718140	702.719970	46.900000	
20.008000	156.764000	135.387240	-20.221890	143.395780	86.995160	18.173830	4.132190	164.735470	702.650020	46.800000	
20.000000	145.147000	135.508870	-12.540980	133.069760	105.354040	4.212970	3.630590	164.707350	702.630000	46.800000	
19.995000	133.545000	135.697140	-2.392330	119.554790	121.355280	-7.054530	2.947030	164.763200	702.690000	46.800000	
20.009000	121.926000	135.610760	10.122820	103.294360	134.458370	-15.906660	3.232390	164.727390	702.650020	46.800000	
20.005000	110.327000	135.690720	24.321520	85.186410	143.693130	-22.091180	3.543680	164.756040	702.750000	46.800000	
19.989000	98.733000	135.693800	41.840180	66.754940	148.989820	-25.407290	3.507480	164.755580	702.770020	46.800000	
19.999000	87.075000	135.685490	58.365430	50.181380	150.025090	-26.005110	3.213910	164.726180	702.710020	46.800000	
19.992000	75.457000	135.875020	76.433250	33.039620	146.898210	-23.144830	3.189660	164.762450	702.659970	46.800000	
20.009000	63.844000	136.013820	95.137020	17.156500	139.618960	-17.629690	3.174200	164.767870	702.669980	46.700000	
19.989000	52.269000	136.245830	112.087450	3.809980	128.244930	-9.389570	3.253220	164.748870	702.690000	46.700000	
19.999000	40.602000	136.401780	126.988470	-7.267460	113.647290	0.985810	3.448240	164.761000	702.690000	46.700000	
20.004000	29.051000	136.448620	138.658330	-16.238120	96.837890	13.710240	3.485340	164.788350	702.620000	46.700000	
20.005000	17.433000	136.416900	146.314650	-21.682560	78.270940	29.097220	3.545130	164.729780	702.549990	46.700000	
20.006000	5.780000	136.413040	150.036390	-25.000410	59.892630	46.212030	3.721890	164.802610	702.760010	46.700000	
20.006000	-5.780000	136.435390	149.611710	-24.519800	43.357650	62.660130	3.785210	164.711690	702.780030	46.700000	
20.005000	-17.433000	136.383870	145.190900	-21.569170	25.808420	81.313920	3.767780	164.808210	702.700010	46.700000	
20.004000	-29.051000	136.261760	136.672500	-15.851160	9.821650	99.830440	3.796750	164.795940	702.750000	46.700000	
19.999000	-40.602000	136.067410	124.054280	-6.912540	-3.375930	116.705060	3.841680	164.740110	702.799990	46.600000	
19.989000	-52.269000	135.920240	108.622650	4.501400	-14.073730	130.543820	3.948150	164.799450	702.710020	46.600000	
20.009000	-63.844000	135.547240	90.711300	17.948120	-22.730350	141.609700	3.897210	164.727800	702.710020	46.600000	
19.992000	-75.457000	135.282560	71.944590	34.232440	-27.634930	148.103730	3.895290	164.798950	702.770020	46.600000	
19.999000	-87.075000	134.986190	54.280350	50.954760	-30.243880	150.743040	3.976080	164.763550	702.770020	46.600000	
19.989000	-98.733000	134.850140	37.718700	67.990070	-29.803460	149.317580	4.017130	164.796910	702.750000	46.600000	
20.005000	-110.327000	135.115190	20.323690	86.551620	-25.894950	143.729900	4.091560	164.768250	702.870000	46.600000	
20.009000	-121.926000	135.290160	6.531420	104.729210	-19.576730	134.351410	4.021000	164.854370	702.750000	46.600000	
19.995000	-133.545000	135.580090	-5.367350	120.808030	-10.337060	120.839000	3.937960	164.809830	702.799990	46.600000	
20.000000	-145.147000	135.785930	-14.699770	134.075350	2.119180	104.847720	3.770530	164.792830	702.830020	46.500000	
20.008000	-156.764000	135.762560	-21.766810	144.024990	16.570580	86.706470	3.634430	164.805590	702.710020	46.500000	
20.003000	-168.362000	135.696850	-25.875120	149.946430	33.560630	68.466970	3.820400	164.827550	702.710020	46.500000	
20.000000	180.000000	135.428220	-27.191850	151.730930	51.546350	49.941730	3.881900	164.894930	702.750000	46.500000	
