FileType=PCF
NHL=14
Date=08/28/17	18:31:00
Facility=APL
Serial=16328-12
Customer=NASA
NP=6
Mach=0.250000
Calibration=1:1
CalPts=490
TstPts=95
PortNumbering=AP Standard
Units=Torr C m/s kg/m^3 deg mm 
Theta[deg]	Phi[deg]	P1[Torr]	P2[Torr]	P3[Torr]	P4[Torr]	P5[Torr]	P6[Torr]	Pt[Torr]	Ps[Abs,Torr]	Ts[C]	
  0.000	  0.000	 30.66532	 16.06478	 16.24664	 15.84622	 16.82471	  0.29406	 30.62527	708.57001	 24.90	
  1.691	128.401	 30.63950	 15.07011	 17.20565	 17.17861	 15.49232	  0.27873	 30.59982	708.74200	 25.00	
  1.692	 77.194	 30.67590	 16.39938	 15.91100	 17.45065	 15.21629	  0.27680	 30.63044	708.67200	 24.90	
  1.699	 26.182	 30.68479	 17.46398	 14.90002	 16.62869	 16.07355	  0.26546	 30.64806	708.60901	 24.90	
  1.699	-26.182	 30.64791	 17.44694	 14.88462	 15.18111	 17.45689	  0.25735	 30.60979	708.55298	 24.90	
  1.692	-77.194	 30.65820	 16.38967	 15.89409	 14.41576	 18.25843	  0.26359	 30.61909	708.59198	 24.90	
  1.691	-128.401	 30.65440	 15.04039	 17.18658	 14.68836	 17.96799	  0.26742	 30.61233	708.59497	 24.90	
  1.700	180.000	 30.66825	 14.47968	 17.83010	 15.77979	 16.80779	  0.26828	 30.62365	708.57800	 24.90	
  3.400	180.000	 30.56968	 12.79586	 19.18507	 15.63930	 16.66775	  0.21686	 30.58868	708.68201	 24.90	
  3.388	-152.325	 30.59724	 13.15436	 18.83240	 14.34444	 18.07581	  0.21212	 30.62373	708.68799	 24.90	
  3.397	-124.529	 30.59326	 14.11351	 17.85355	 13.27024	 19.15635	  0.19300	 30.63133	708.62402	 24.90	
  3.399	-96.763	 30.57872	 15.47956	 16.37728	 12.75514	 19.62404	  0.18536	 30.61139	708.64899	 24.90	
  3.394	-69.283	 30.56768	 17.02403	 15.01243	 12.93316	 19.39971	  0.18281	 30.59150	708.56799	 24.90	
  3.400	-41.398	 30.57702	 18.27421	 13.82755	 13.75531	 18.65095	  0.18605	 30.59708	708.68201	 24.90	
  3.401	-14.021	 30.59763	 18.93001	 13.15963	 15.00201	 17.38775	  0.19986	 30.61152	708.60999	 24.90	
  3.401	 14.021	 30.62943	 18.94841	 13.16836	 16.55481	 15.81715	  0.21243	 30.63047	708.59003	 24.90	
  3.400	 41.398	 30.61687	 18.33428	 13.83983	 17.87128	 14.55721	  0.22120	 30.61838	708.71002	 24.90	
  3.394	 69.283	 30.59109	 17.01755	 15.02840	 18.69172	 13.73210	  0.22013	 30.59128	708.78699	 24.90	
  3.399	 96.763	 30.58438	 15.51774	 16.40005	 18.87031	 13.56837	  0.21698	 30.58646	708.73602	 24.90	
  3.397	124.529	 30.62857	 14.15709	 17.87779	 18.31265	 14.10665	  0.22943	 30.62802	708.71600	 24.90	
  3.388	152.325	 30.59564	 13.16342	 18.87085	 17.13358	 15.18940	  0.21478	 30.60459	708.67700	 24.90	
  5.099	161.165	 30.40368	 11.30288	 20.36072	 16.95247	 14.91664	  0.11852	 30.56172	708.70001	 24.90	
  5.109	142.013	 30.42802	 11.99475	 19.58831	 18.36761	 13.61116	  0.11296	 30.58896	708.70502	 24.90	
  5.095	123.033	 30.43448	 13.08858	 18.36784	 19.52787	 12.63717	  0.11564	 30.57049	708.74402	 24.90	
  5.105	104.191	 30.50569	 14.52921	 16.94803	 20.25295	 12.03512	  0.11806	 30.65359	708.67401	 24.90	
  5.093	 85.207	 30.45860	 16.02223	 15.51610	 20.33123	 11.88972	  0.06936	 30.59984	708.73401	 24.90	
  5.104	 66.290	 30.46445	 17.59602	 14.00357	 19.94728	 12.21336	  0.12172	 30.61317	708.80402	 24.90	
  5.094	 47.331	 30.43646	 18.87451	 12.77237	 19.02358	 13.02382	  0.12591	 30.57937	708.83398	 24.90	
  5.089	 28.397	 30.44168	 19.87932	 11.87689	 17.79577	 14.19838	  0.11111	 30.59222	708.84198	 24.90	
  5.096	  9.576	 30.43474	 20.38820	 11.37464	 16.33389	 15.58088	  0.10233	 30.59095	708.78101	 24.90	
  5.096	 -9.576	 30.40624	 20.37597	 11.37597	 14.75927	 17.17740	  0.09185	 30.57817	708.75800	 24.90	
  5.089	-28.397	 30.42752	 19.84980	 11.86719	 13.39401	 18.59028	  0.01152	 30.60097	708.87402	 24.90	
  5.094	-47.331	 30.43170	 18.82880	 12.79802	 12.21578	 19.74566	 -0.02171	 30.61687	708.82898	 24.90	
  5.104	-66.290	 30.39602	 17.53351	 14.04385	 11.37834	 20.63747	 -0.05063	 30.59450	708.71301	 24.90	
  5.093	-85.207	 30.37400	 16.10077	 15.45194	 10.98846	 21.02781	  0.04010	 30.57463	708.62402	 24.90	
  5.105	-104.191	 30.38636	 14.47233	 16.86172	 11.12437	 20.89904	 -0.00565	 30.58251	708.65100	 24.90	
  5.095	-123.033	 30.39846	 13.12732	 18.34389	 11.72650	 20.26574	  0.00350	 30.59893	708.68799	 24.90	
  5.109	-142.013	 30.38956	 12.00778	 19.55246	 12.73318	 19.25479	  0.09059	 30.58415	708.63098	 24.90	
  5.099	-161.165	 30.42110	 11.31599	 20.37399	 14.06231	 17.94589	  0.11486	 30.61408	708.70801	 24.90	
  5.100	180.000	 30.40922	 11.07798	 20.62968	 15.42585	 16.45732	  0.09784	 30.58267	708.68201	 24.90	
  6.800	180.000	 30.11009	  9.21238	 21.92656	 15.15573	 16.08237	 -0.13696	 30.55083	708.71899	 24.90	
  6.796	-166.229	 30.12623	  9.36652	 21.76003	 13.77910	 17.61073	 -0.14324	 30.58480	708.67102	 24.90	
  6.808	-152.311	 30.11934	  9.87497	 21.20385	 12.39888	 18.97864	 -0.15795	 30.58679	708.71301	 24.90	
  6.795	-138.383	 30.08745	 10.71861	 20.24570	 11.11179	 20.20457	 -0.14838	 30.56986	708.72699	 24.90	
  6.792	-124.591	 30.08712	 11.81654	 19.00761	 10.14882	 21.23139	 -0.19305	 30.58295	708.72803	 24.90	
  6.787	-110.754	 30.08502	 13.12875	 17.61411	  9.47173	 21.93135	 -0.21702	 30.57133	708.82001	 24.90	
  6.800	-96.985	 30.07551	 14.51344	 16.20757	  9.12782	 22.26366	 -0.24609	 30.56503	708.73602	 24.90	
  6.800	-83.015	 30.10276	 16.15389	 14.81512	  9.15475	 22.28849	 -0.21781	 30.58596	708.75598	 24.90	
  6.787	-69.246	 30.10938	 17.62851	 13.38086	  9.54506	 21.92411	 -0.27567	 30.59273	708.78699	 24.90	
  6.792	-55.409	 30.09906	 18.93477	 12.04887	 10.18492	 21.21414	 -0.25828	 30.57208	708.93799	 24.90	
  6.795	-41.617	 30.13101	 20.08749	 10.91736	 11.18252	 20.17928	 -0.20733	 30.59658	708.83801	 24.90	
  6.808	-27.689	 30.10171	 20.99509	 10.00043	 12.39755	 18.93309	 -0.18555	 30.55789	708.83698	 24.90	
  6.796	-13.771	 30.11285	 21.56321	  9.48200	 13.78244	 17.55373	 -0.16423	 30.55278	708.90698	 24.90	
  6.800	  0.000	 30.10970	 21.75376	  9.35528	 15.20142	 15.99237	 -0.14963	 30.53648	708.82800	 24.90	
  6.796	 13.771	 30.16105	 21.62645	  9.51703	 16.65945	 14.60545	 -0.04036	 30.58708	708.92999	 24.90	
  6.808	 27.689	 30.16288	 21.07875	 10.08489	 18.11231	 13.24808	 -0.12579	 30.57731	708.82001	 24.90	
  6.795	 41.617	 30.17654	 20.18774	 10.95938	 19.44549	 12.04373	 -0.09751	 30.58954	708.79797	 24.90	
  6.792	 55.409	 30.21026	 18.96165	 12.07948	 20.56006	 11.08406	 -0.08862	 30.61492	708.82300	 24.90	
  6.787	 69.246	 30.14222	 17.55066	 13.34536	 21.22265	 10.36415	 -0.10299	 30.54421	708.81201	 24.90	
  6.800	 83.015	 30.16856	 16.11052	 14.77418	 21.63028	  9.99065	 -0.12814	 30.57097	708.90698	 24.90	
  6.800	 96.985	 30.16076	 14.63566	 16.24718	 21.63639	 10.01311	 -0.09984	 30.56543	708.80298	 24.90	
  6.787	110.754	 30.17282	 13.20951	 17.75753	 21.24902	 10.43296	 -0.15599	 30.57594	708.82898	 24.90	
  6.792	124.591	 30.18446	 11.84072	 19.05289	 20.52609	 11.15259	 -0.05134	 30.58487	708.82001	 24.90	
  6.795	138.383	 30.17700	 10.77234	 20.30593	 19.44254	 12.13588	 -0.11652	 30.58257	708.79999	 24.90	
  6.808	152.311	 30.15881	  9.91371	 21.21181	 18.08077	 13.30967	 -0.12448	 30.57514	708.85901	 24.90	
  6.796	166.229	 30.11056	  9.38948	 21.75214	 16.62241	 14.65737	 -0.06049	 30.54185	708.82098	 24.90	
  8.491	168.704	 29.80663	  7.50268	 23.07976	 16.38910	 14.25699	 -0.32905	 30.60312	708.85901	 24.90	
  8.502	157.493	 29.77984	  7.87250	 22.58989	 17.80011	 12.83535	 -0.33310	 30.57252	708.81403	 24.90	
  8.494	146.194	 29.79943	  8.54350	 21.82857	 19.24927	 11.52199	 -0.27299	 30.57748	708.74103	 24.90	
  8.495	135.039	 29.78381	  9.42889	 20.82133	 20.51248	 10.29492	 -0.34744	 30.56033	708.79999	 24.90	
  8.487	123.723	 29.83278	 10.64412	 19.55368	 21.54147	  9.35529	 -0.35366	 30.59351	708.71301	 24.90	
  8.492	112.575	 29.81357	 12.05453	 18.21932	 22.30073	  8.77507	 -0.40412	 30.58236	708.77600	 24.90	
  8.510	101.220	 29.79208	 13.53540	 16.57507	 22.79092	  8.37463	 -0.41384	 30.55927	708.68500	 24.90	
  8.500	 90.000	 29.79756	 15.05358	 15.20061	 22.94391	  8.23625	 -0.37553	 30.56381	708.78101	 24.90	
  8.510	 78.780	 29.77726	 16.51761	 13.67366	 22.76916	  8.35597	 -0.34939	 30.55411	708.77197	 24.90	
  8.492	 67.425	 29.80148	 17.99398	 12.19428	 22.28181	  8.72323	 -0.32984	 30.57304	708.87402	 24.90	
  8.487	 56.277	 29.79830	 19.42300	 10.80004	 21.52385	  9.28920	 -0.31354	 30.56211	708.91302	 24.90	
  8.495	 44.961	 29.78242	 20.67567	  9.59744	 20.50732	 10.18969	 -0.31584	 30.56760	708.75598	 24.80	
  8.494	 33.806	 29.77072	 21.66804	  8.79934	 19.19509	 11.41409	 -0.34454	 30.54834	708.91400	 24.90	
  8.502	 22.507	 29.76841	 22.43880	  8.18403	 17.79681	 12.72195	 -0.36676	 30.57071	708.84198	 24.90	
  8.491	 11.296	 29.74038	 22.88456	  7.82314	 16.29161	 14.13793	 -0.37522	 30.55086	708.91302	 24.90	
  8.500	  0.000	 29.74848	 23.05839	  7.69487	 14.83553	 15.64320	 -0.37375	 30.56507	708.88501	 24.90	
  8.491	-11.296	 29.76680	 22.90352	  7.78450	 13.33851	 17.21290	 -0.40671	 30.59143	708.82001	 24.90	
  8.502	-22.507	 29.71809	 22.39187	  8.12387	 11.86588	 18.63421	 -0.41614	 30.56119	708.90002	 24.80	
  8.494	-33.806	 29.72401	 21.59296	  8.74676	 10.50629	 19.97601	 -0.43216	 30.57970	708.89001	 24.80	
  8.495	-44.961	 29.66716	 20.55985	  9.54944	  9.33158	 21.19512	 -0.47822	 30.54777	708.95203	 24.80	
  8.487	-56.277	 29.67895	 19.31656	 10.75974	  8.39748	 22.17308	 -0.51598	 30.55323	708.85901	 24.80	
  8.492	-67.425	 29.65218	 18.00175	 12.12491	  7.78570	 22.89480	 -0.54920	 30.53836	708.94397	 24.80	
  8.510	-78.780	 29.69595	 16.52643	 13.62123	  7.39242	 23.42653	 -0.55725	 30.58347	708.88300	 24.80	
  8.500	-90.000	 29.71191	 14.89010	 15.13338	  7.29211	 23.57557	 -0.53034	 30.58919	708.87598	 24.90	
  8.510	-101.220	 29.69032	 13.39074	 16.56044	  7.38657	 23.41293	 -0.51463	 30.57062	708.77197	 24.80	
  8.492	-112.575	 29.70111	 11.93257	 18.05128	  7.75714	 22.94491	 -0.47224	 30.57903	708.70300	 24.90	
  8.487	-123.723	 29.68035	 10.59448	 19.44545	  8.34166	 22.19592	 -0.41226	 30.56219	708.71301	 24.80	
  8.495	-135.039	 29.68472	  9.40973	 20.76106	  9.32962	 21.23149	 -0.37898	 30.56872	708.87701	 24.90	
  8.494	-146.194	 29.69756	  8.45339	 21.77812	 10.50423	 19.99588	 -0.38260	 30.56922	708.86902	 24.80	
  8.502	-157.493	 29.71245	  7.80390	 22.54773	 11.87768	 18.59771	 -0.38694	 30.56599	708.85999	 24.90	
  8.491	-168.704	 29.70493	  7.44462	 22.99967	 13.32786	 17.24791	 -0.38456	 30.52792	708.81799	 24.90	
  8.500	180.000	 29.75607	  7.33294	 23.21231	 14.83623	 15.71125	 -0.35750	 30.57348	708.87299	 24.90	
 10.200	180.000	 29.21882	  5.52553	 24.38561	 14.35651	 15.22685	 -0.62026	 30.53648	708.88300	 24.90	
 10.191	-170.497	 29.25421	  5.65415	 24.26760	 12.84117	 16.67287	 -0.62763	 30.58177	708.96698	 24.90	
 10.210	-161.034	 29.21650	  5.92092	 23.85442	 11.33824	 18.15790	 -0.64692	 30.56743	708.90802	 24.90	
 10.194	-151.526	 29.20010	  6.44415	 23.15933	  9.90056	 19.62109	 -0.63420	 30.56680	708.97198	 24.90	
 10.190	-142.105	 29.13361	  7.13849	 22.20432	  8.56435	 20.92672	 -0.61234	 30.50938	709.01801	 24.90	
 10.215	-132.646	 29.16063	  8.04742	 21.15320	  7.61464	 22.12350	 -0.62064	 30.54769	708.86499	 24.90	
 10.203	-123.092	 29.18207	  9.30403	 19.80451	  6.81852	 23.15612	 -0.64349	 30.58727	708.89301	 24.80	
 10.192	-113.678	 29.14393	 10.65481	 18.32516	  6.19273	 23.90703	 -0.70279	 30.54486	708.89099	 24.80	
 10.208	-104.249	 29.14254	 12.09781	 16.83162	  5.75386	 24.46689	 -0.77947	 30.55339	708.91602	 24.80	
 10.210	-94.801	 29.15219	 13.61190	 15.40692	  5.50522	 24.75200	 -0.81241	 30.56461	708.94501	 24.80	
 10.210	-85.199	 29.15298	 15.11912	 13.83340	  5.49956	 24.76718	 -0.83908	 30.57552	708.85699	 24.80	
 10.208	-75.751	 29.12214	 16.74382	 12.29313	  5.74869	 24.46201	 -0.84580	 30.54574	708.88000	 24.80	
 10.192	-66.322	 29.13185	 18.23836	 10.80317	  6.20284	 23.90456	 -0.82790	 30.53984	708.82599	 24.80	
 10.203	-56.908	 29.14576	 19.63346	  9.49370	  6.81691	 23.13131	 -0.79777	 30.54691	708.99402	 24.90	
 10.215	-47.354	 29.17062	 20.95713	  8.42253	  7.62520	 22.13170	 -0.75327	 30.57573	708.94501	 24.80	
 10.190	-37.895	 29.17439	 22.05169	  7.55672	  8.58585	 20.95171	 -0.70767	 30.55029	708.91400	 24.80	
 10.194	-28.474	 29.19229	 22.97809	  6.82730	  9.85293	 19.60565	 -0.68625	 30.55378	709.01703	 24.80	
 10.210	-18.966	 29.17615	 23.68014	  6.25413	 11.27689	 18.18344	 -0.66211	 30.52380	708.90997	 24.80	
 10.191	 -9.503	 29.23643	 24.13353	  5.97205	 12.80545	 16.61521	 -0.65852	 30.56120	708.85199	 24.80	
 10.200	  0.000	 29.26655	 24.30834	  5.85359	 14.36547	 15.19764	 -0.64775	 30.59090	708.78400	 24.80	
 10.191	  9.503	 29.23341	 24.14524	  6.01348	 15.84940	 13.64926	 -0.64866	 30.54004	708.92200	 24.80	
 10.210	 18.966	 29.23819	 23.74911	  6.30045	 17.32506	 12.14360	 -0.64816	 30.54184	708.90997	 24.80	
 10.194	 28.474	 29.25733	 23.04264	  6.82766	 18.81072	 10.73410	 -0.61719	 30.54431	708.97198	 24.80	
 10.190	 37.895	 29.26885	 22.14986	  7.54946	 20.23910	  9.48885	 -0.57901	 30.53604	708.93597	 24.80	
 10.215	 47.354	 29.28367	 21.09053	  8.42632	 21.47929	  8.53453	 -0.56679	 30.56150	708.97498	 24.80	
 10.203	 56.908	 29.27472	 19.77632	  9.49128	 22.46313	  7.74717	 -0.55291	 30.54070	709.15002	 24.80	
 10.192	 66.322	 29.30902	 18.31776	 10.83602	 23.27782	  7.12329	 -0.55087	 30.56278	708.89899	 24.80	
 10.208	 75.751	 29.31194	 16.87952	 12.35523	 23.86266	  6.69439	 -0.60084	 30.57516	708.95898	 24.80	
 10.210	 85.199	 29.30710	 15.41404	 13.88703	 24.15595	  6.44707	 -0.64792	 30.57119	708.94897	 24.80	
 10.210	 94.801	 29.29838	 13.82600	 15.48446	 24.13884	  6.49337	 -0.68716	 30.55509	708.86902	 24.80	
 10.208	104.249	 29.27642	 12.27461	 16.87231	 23.83452	  6.72822	 -0.69773	 30.53418	708.94098	 24.80	
 10.192	113.678	 29.29450	 10.79690	 18.38002	 23.27402	  7.18143	 -0.67536	 30.54044	708.85999	 24.80	
 10.203	123.092	 29.28569	  9.33873	 19.82226	 22.48381	  7.78882	 -0.64581	 30.53293	708.92499	 24.80	
 10.215	132.646	 29.27135	  8.20591	 21.18313	 21.47411	  8.52945	 -0.61983	 30.53013	708.94397	 24.80	
 10.190	142.105	 29.30695	  7.30512	 22.29894	 20.29285	  9.52830	 -0.59494	 30.56137	709.00702	 24.80	
 10.194	151.526	 29.27881	  6.53717	 23.18782	 18.84167	 10.79369	 -0.57799	 30.54298	708.97803	 24.80	
 10.210	161.034	 29.27924	  5.94665	 23.88737	 17.38795	 12.26259	 -0.59182	 30.56732	708.84302	 24.80	
 10.191	170.497	 29.24972	  5.64579	 24.26153	 15.86349	 13.72526	 -0.60572	 30.55441	708.85400	 24.80	
 11.899	171.783	 28.63753	  3.78500	 25.40264	 15.35892	 13.14051	 -0.85957	 30.54394	708.77899	 24.80	
 11.890	163.610	 28.65762	  4.16178	 25.04644	 16.84605	 11.61061	 -0.83992	 30.54597	708.85400	 24.80	
 11.889	155.445	 28.67970	  4.58205	 24.46753	 18.36673	 10.12910	 -0.81374	 30.54067	708.85400	 24.80	
 11.909	147.299	 28.67249	  5.20935	 23.67423	 19.84348	  8.87690	 -0.82193	 30.53759	709.01801	 24.80	
 11.902	139.148	 28.69346	  6.02092	 22.65894	 21.19849	  7.83233	 -0.83805	 30.54969	708.88202	 24.80	
 11.894	130.867	 28.67670	  7.01623	 21.44749	 22.34587	  6.91457	 -0.86056	 30.51764	709.02301	 24.80	
 11.897	122.732	 28.66153	  8.10755	 20.07993	 23.35066	  6.12316	 -0.91478	 30.50177	709.01202	 24.80	
 11.903	114.597	 28.65212	  9.32314	 18.62098	 24.17129	  5.50419	 -0.95724	 30.49520	708.83502	 24.80	
 11.893	106.346	 28.69385	 10.86782	 17.11053	 24.81823	  5.04317	 -1.00294	 30.55690	708.78699	 24.80	
 11.892	 98.155	 28.69879	 12.48851	 15.69294	 25.19078	  4.75179	 -0.99598	 30.56291	708.93103	 24.80	
 11.900	 90.000	 28.68399	 14.06922	 14.14045	 25.30394	  4.63299	 -0.95797	 30.55166	708.81000	 24.80	
 11.892	 81.845	 28.65669	 15.62896	 12.54245	 25.13562	  4.75145	 -0.89154	 30.51667	708.92798	 24.80	
 11.893	 73.654	 28.66917	 17.07603	 10.94179	 24.76689	  5.03809	 -0.82110	 30.52468	708.97498	 24.80	
 11.903	 65.403	 28.66220	 18.54465	  9.49415	 24.15291	  5.47971	 -0.77689	 30.51756	708.83099	 24.80	
 11.897	 57.268	 28.67183	 20.05357	  8.30057	 23.33509	  6.10551	 -0.76662	 30.53962	708.86798	 24.80	
 11.894	 49.133	 28.67484	 21.37769	  7.22225	 22.31714	  6.93286	 -0.78189	 30.54220	708.87701	 24.80	
 11.902	 40.852	 28.68196	 22.54457	  6.26433	 21.15179	  7.84374	 -0.82395	 30.55739	709.00702	 24.80	
 11.909	 32.701	 28.62309	 23.50616	  5.47638	 19.75703	  8.87995	 -0.86446	 30.50736	708.93103	 24.80	
 11.889	 24.555	 28.61337	 24.29548	  4.89659	 18.28915	 10.04992	 -0.89883	 30.50566	708.95502	 24.80	
 11.890	 16.390	 28.60247	 24.89919	  4.47427	 16.78090	 11.52600	 -0.91556	 30.50601	708.89899	 24.80	
 11.899	  8.217	 28.64255	 25.30456	  4.18552	 15.35696	 13.03669	 -0.91264	 30.56225	709.05701	 24.80	
 11.900	  0.000	 28.60023	 25.38462	  4.02301	 13.76974	 14.60803	 -0.89720	 30.51926	708.90997	 24.80	
 11.899	 -8.217	 28.63090	 25.28695	  4.14779	 12.18334	 16.13595	 -0.89895	 30.57518	708.93903	 24.80	
 11.890	-16.390	 28.60541	 24.88767	  4.43376	 10.66740	 17.65465	 -0.89732	 30.55432	708.84302	 24.80	
 11.889	-24.555	 28.57578	 24.25743	  4.91792	  9.21277	 19.10015	 -0.92098	 30.54156	708.90503	 24.80	
 11.909	-32.701	 28.53428	 23.43619	  5.48443	  7.98221	 20.50425	 -0.92629	 30.52494	708.92102	 24.80	
 11.902	-40.852	 28.53458	 22.40498	  6.26143	  6.91145	 21.81279	 -0.95615	 30.54379	708.89001	 24.80	
 11.894	-49.133	 28.51760	 21.19525	  7.26407	  5.95071	 22.97826	 -0.99700	 30.54959	708.90002	 24.80	
 11.897	-57.268	 28.51092	 19.87913	  8.33357	  5.14932	 23.99054	 -1.03394	 30.55485	708.87598	 24.80	
 11.903	-65.403	 28.51180	 18.41124	  9.50471	  4.54980	 24.79625	 -1.06564	 30.55193	708.84198	 24.80	
 11.893	-73.654	 28.49583	 16.90063	 10.87035	  4.15537	 25.33988	 -1.07284	 30.53097	708.94397	 24.80	
 11.892	-81.845	 28.50159	 15.29182	 12.46794	  3.82908	 25.69067	 -1.06618	 30.52370	708.89099	 24.80	
 11.900	-90.000	 28.54374	 13.84819	 14.04866	  3.66532	 25.86149	 -1.05723	 30.58322	708.93298	 24.80	
 11.892	-98.155	 28.54179	 12.28584	 15.59838	  3.80923	 25.73636	 -1.04931	 30.56679	708.89899	 24.80	
 11.893	-106.346	 28.49520	 10.73959	 17.00403	  4.10196	 25.34831	 -1.01172	 30.52241	708.79999	 24.80	
 11.903	-114.597	 28.50327	  9.26874	 18.52858	  4.55892	 24.77651	 -0.92608	 30.52373	708.84601	 24.80	
 11.897	-122.732	 28.53531	  7.89975	 19.99923	  5.18841	 23.98281	 -0.86398	 30.55305	708.86499	 24.80	
 11.894	-130.867	 28.55327	  6.84568	 21.39403	  5.97961	 22.98870	 -0.83700	 30.55447	708.86798	 24.80	
 11.902	-139.148	 28.56132	  5.89300	 22.59042	  6.94558	 21.82999	 -0.83722	 30.56106	708.88202	 24.80	
 11.909	-147.299	 28.56609	  5.11072	 23.61026	  7.97198	 20.54563	 -0.87050	 30.55629	708.78101	 24.80	
 11.889	-155.445	 28.57906	  4.54793	 24.40081	  9.22832	 19.10507	 -0.89791	 30.54069	708.93298	 24.80	
 11.890	-163.610	 28.57241	  4.11595	 24.98205	 10.70409	 17.59293	 -0.90255	 30.51359	708.96301	 24.80	
 11.899	-171.783	 28.59473	  3.82974	 25.36826	 12.23136	 16.15946	 -0.89888	 30.52637	708.87299	 24.80	
 11.900	180.000	 28.62416	  3.70799	 25.51685	 13.81577	 14.67892	 -0.89558	 30.54221	708.83698	 24.80	
 13.600	180.000	 27.89398	  1.94909	 26.50448	 13.17099	 14.03457	 -1.13603	 30.52300	709.01703	 24.80	
 13.608	-172.853	 27.87742	  2.01662	 26.40085	 11.58877	 15.53082	 -1.16094	 30.53521	708.99799	 24.80	
 13.611	-165.583	 27.84721	  2.28546	 26.05922	  9.99770	 16.93707	 -1.16873	 30.51578	708.94501	 24.80	
 13.601	-158.353	 27.84966	  2.66521	 25.53074	  8.56227	 18.48211	 -1.16049	 30.53098	708.94897	 24.80	
 13.609	-151.210	 27.82884	  3.16711	 24.81156	  7.35553	 19.92231	 -1.13875	 30.53247	709.00897	 24.80	
 13.611	-143.999	 27.80666	  3.81590	 23.87234	  6.23637	 21.33877	 -1.08013	 30.52386	708.78900	 24.80	
 13.601	-136.825	 27.81218	  4.63948	 22.77781	  5.17358	 22.58808	 -1.04161	 30.53499	708.82898	 24.80	
 13.596	-129.640	 27.78905	  5.59181	 21.50203	  4.25349	 23.72010	 -1.01954	 30.52222	708.80701	 24.80	
 13.611	-122.431	 27.79289	  6.67085	 20.13944	  3.51209	 24.72445	 -1.05820	 30.53656	708.81201	 24.80	
 13.604	-115.211	 27.79740	  7.83022	 18.66011	  2.95790	 25.53015	 -1.11923	 30.53907	709.04901	 24.80	
 13.595	-108.042	 27.79715	  9.19963	 17.17377	  2.51307	 26.13873	 -1.17890	 30.54492	708.97198	 24.80	
 13.607	-100.793	 27.75089	 10.76565	 15.68153	  2.11793	 26.54267	 -1.19794	 30.50197	708.96399	 24.80	
 13.601	-93.617	 27.76535	 12.34808	 14.13513	  1.89278	 26.77538	 -1.20498	 30.52591	708.85699	 24.80	
 13.601	-86.383	 27.75590	 13.93782	 12.55321	  1.86269	 26.77672	 -1.21026	 30.52907	708.83398	 24.80	
 13.607	-79.207	 27.73343	 15.36323	 10.92737	  2.16185	 26.54762	 -1.19325	 30.49865	708.84900	 24.80	
 13.595	-71.958	 27.73384	 16.94072	  9.52915	  2.49907	 26.11293	 -1.19480	 30.48896	708.77899	 24.80	
 13.604	-64.789	 27.75703	 18.51136	  8.30766	  2.89004	 25.55256	 -1.18575	 30.53241	708.88300	 24.80	
 13.611	-57.569	 27.74637	 19.94124	  7.08235	  3.44869	 24.75320	 -1.18395	 30.52804	709.06500	 24.80	
 13.596	-50.360	 27.75189	 21.33036	  5.98641	  4.20740	 23.77538	 -1.16789	 30.52067	708.87402	 24.80	
 13.601	-43.175	 27.78043	 22.60760	  5.02722	  5.11386	 22.62595	 -1.13977	 30.53354	708.99799	 24.80	
 13.611	-36.001	 27.76834	 23.70889	  4.13013	  6.16562	 21.32659	 -1.12412	 30.50558	708.89398	 24.80	
 13.609	-28.790	 27.82036	 24.67070	  3.48375	  7.31284	 19.91368	 -1.10346	 30.54013	708.86200	 24.80	
 13.601	-21.647	 27.83474	 25.38388	  2.99885	  8.56285	 18.52550	 -1.09953	 30.52357	708.89099	 24.80	
 13.611	-14.417	 27.85961	 25.96389	  2.60710	  9.96325	 16.92591	 -1.10444	 30.52900	709.07300	 24.80	
 13.608	 -7.147	 27.83525	 26.30167	  2.30679	 11.47410	 15.48237	 -1.10530	 30.49211	708.98999	 24.80	
 13.600	  0.000	 27.92008	 26.48337	  2.22952	 13.09659	 13.96681	 -1.10295	 30.56371	708.94501	 24.80	
 13.608	  7.147	 27.85135	 26.33080	  2.36049	 14.66112	 12.33922	 -1.10735	 30.48341	708.81500	 24.80	
 13.611	 14.417	 27.87897	 26.03150	  2.63678	 16.15685	 10.76737	 -1.11309	 30.51260	708.84198	 24.80	
 13.601	 21.647	 27.89122	 25.46232	  2.97899	 17.68871	  9.46866	 -1.11196	 30.51121	708.96997	 24.80	
 13.609	 28.790	 27.87990	 24.73698	  3.45983	 19.17848	  8.20174	 -1.09512	 30.48704	708.86902	 24.80	
 13.611	 36.001	 27.91795	 23.87818	  4.11594	 20.62556	  7.09009	 -1.07245	 30.52255	708.90002	 24.80	
 13.601	 43.175	 27.92297	 22.79085	  4.94498	 21.92392	  6.11339	 -1.02282	 30.51524	708.96301	 24.80	
 13.596	 50.360	 27.95543	 21.58502	  5.91963	 23.13106	  5.20662	 -0.97869	 30.54723	708.90802	 24.80	
 13.611	 57.569	 27.91776	 20.23444	  7.07686	 24.13636	  4.40639	 -0.96485	 30.51188	708.95599	 24.80	
 13.604	 64.789	 27.93388	 18.71663	  8.31141	 24.97763	  3.81765	 -0.97878	 30.52357	708.92200	 24.80	
 13.595	 71.958	 27.92655	 17.15509	  9.52934	 25.60017	  3.38262	 -1.03032	 30.50277	708.94397	 24.80	
 13.607	 79.207	 27.93812	 15.78304	 10.97732	 26.04827	  3.06975	 -1.10674	 30.51385	708.89899	 24.80	
 13.601	 86.383	 27.95843	 14.23796	 12.59320	 26.26727	  2.91063	 -1.17481	 30.52377	708.96997	 24.80	
 13.601	 93.617	 27.97016	 12.60843	 14.26834	 26.29195	  2.89198	 -1.21699	 30.53604	708.85699	 24.80	
 13.607	100.793	 27.95876	 10.89791	 15.79455	 26.06584	  3.05995	 -1.22998	 30.53118	708.88202	 24.80	
 13.595	108.042	 27.97573	  9.42676	 17.25558	 25.64673	  3.41544	 -1.22814	 30.52807	708.93597	 24.80	
 13.604	115.211	 27.97995	  8.14239	 18.77409	 25.02891	  3.85917	 -1.20295	 30.53574	708.85901	 24.80	
 13.611	122.431	 27.95070	  6.86405	 20.23154	 24.18989	  4.45118	 -1.16290	 30.50761	708.91400	 24.80	
 13.596	129.640	 27.97174	  5.76224	 21.62154	 23.17816	  5.22695	 -1.10095	 30.52237	708.84601	 24.80	
 13.601	136.825	 27.99158	  4.78859	 22.88231	 22.01441	  6.11281	 -1.06267	 30.53881	709.02802	 24.80	
 13.611	143.999	 27.95077	  3.92836	 23.95907	 20.72416	  7.09538	 -1.05611	 30.51921	706.78302	 24.80	
 13.609	151.210	 27.93748	  3.22842	 24.87018	 19.26002	  8.22906	 -1.05327	 30.50924	707.94299	 24.80	
 13.601	158.353	 27.92889	  2.72773	 25.58211	 17.78131	  9.46388	 -1.05533	 30.50187	709.09302	 24.80	
 13.611	165.583	 27.93662	  2.31657	 26.12966	 16.25225	 10.86514	 -1.08601	 30.54291	709.05701	 24.80	
 13.608	172.853	 27.90697	  2.00159	 26.41799	 14.76513	 12.44769	 -1.11047	 30.53112	709.05103	 24.80	
 15.298	173.587	 27.08284	  0.23191	 27.30842	 14.05906	 11.66937	 -1.33204	 30.51742	708.96399	 24.80	
 15.291	167.167	 27.13024	  0.47455	 27.06590	 15.58040	 10.15913	 -1.29712	 30.53507	708.98999	 24.80	
 15.307	160.676	 27.12966	  0.85362	 26.60463	 17.07559	  8.80405	 -1.28719	 30.52604	708.96899	 24.80	
 15.300	154.261	 27.12292	  1.31659	 25.94184	 18.59972	  7.53523	 -1.27426	 30.50517	708.94501	 24.80	
 15.288	147.854	 27.15510	  1.88735	 25.13786	 20.05967	  6.40774	 -1.26397	 30.52474	708.91400	 24.80	
 15.293	141.428	 27.15510	  2.59108	 24.14951	 21.46275	  5.33085	 -1.27004	 30.51843	708.87299	 24.80	
 15.299	134.985	 27.16160	  3.44258	 23.00299	 22.75297	  4.34407	 -1.28723	 30.52466	708.91302	 24.80	
 15.305	128.583	 27.17546	  4.45355	 21.72258	 23.93349	  3.48899	 -1.31401	 30.54128	708.98297	 24.80	
 15.309	122.142	 27.15287	  5.58898	 20.31334	 24.90890	  2.74579	 -1.34498	 30.51187	709.06598	 24.80	
 15.304	115.711	 27.21187	  6.84099	 18.87786	 25.76826	  2.18493	 -1.37285	 30.55682	708.97498	 24.80	
 15.297	109.291	 27.17506	  8.16548	 17.33331	 26.38225	  1.74411	 -1.36590	 30.53491	709.09399	 24.80	
 15.293	102.897	 27.17186	  9.45377	 15.89978	 26.85918	  1.42104	 -1.36095	 30.53198	709.02802	 24.80	
 15.293	 96.458	 27.13458	 10.96626	 14.37202	 27.12139	  1.18090	 -1.35567	 30.51512	709.03900	 24.80	
 15.300	 90.000	 27.16484	 12.59929	 12.69189	 27.23745	  1.11493	 -1.35542	 30.54321	709.12701	 24.80	
 15.293	 83.542	 27.14768	 14.27367	 11.04687	 27.10949	  1.22540	 -1.31263	 30.52484	709.07001	 24.80	
 15.293	 77.103	 27.17678	 15.85753	  9.60996	 26.83491	  1.42359	 -1.25000	 30.54811	708.35400	 24.80	
 15.297	 70.709	 27.17273	 17.25726	  8.25056	 26.34603	  1.75136	 -1.18540	 30.55007	709.04199	 24.80	
 15.304	 64.289	 27.11141	 18.79946	  7.04321	 25.64909	  2.17836	 -1.15434	 30.50396	708.96100	 24.80	
 15.309	 57.858	 27.08811	 20.28122	  5.80858	 24.81496	  2.72383	 -1.11630	 30.49636	709.05402	 24.80	
 15.305	 51.417	 27.07790	 21.64413	  4.67558	 23.79827	  3.46803	 -1.13004	 30.48211	708.98700	 24.80	
 15.299	 45.015	 27.09870	 22.90866	  3.61219	 22.64471	  4.33552	 -1.17165	 30.50562	709.10498	 24.80	
 15.293	 38.572	 27.14140	 24.10326	  2.77806	 21.36678	  5.34963	 -1.20450	 30.55304	709.08698	 24.80	
 15.288	 32.146	 27.10477	 25.07266	  2.07674	 19.95760	  6.40282	 -1.21624	 30.51328	709.14203	 24.80	
 15.300	 25.739	 27.06546	 25.84961	  1.48736	 18.48391	  7.53089	 -1.21720	 30.50166	709.04602	 24.90	
 15.307	 19.324	 27.10015	 26.56634	  1.05946	 17.00268	  8.80589	 -1.19850	 30.55518	709.02002	 24.80	
 15.291	 12.833	 27.09027	 27.02166	  0.79002	 15.47773	 10.14684	 -1.18877	 30.54847	708.78400	 24.80	
 15.298	  6.413	 27.06625	 27.25922	  0.61999	 13.92485	 11.53802	 -1.18747	 30.51487	708.71600	 24.80	
 15.300	  0.000	 27.05923	 27.33903	  0.51233	 12.29233	 13.20546	 -1.18504	 30.52165	709.13202	 24.80	
 15.298	 -6.413	 27.04767	 27.22927	  0.61670	 10.76310	 14.77954	 -1.18986	 30.51824	709.08197	 24.80	
 15.291	-12.833	 27.04260	 26.92972	  0.80057	  9.28370	 16.30438	 -1.20469	 30.54539	709.19098	 24.80	
 15.307	-19.324	 27.00626	 26.41201	  1.13532	  7.89513	 17.79061	 -1.20292	 30.52251	709.10797	 24.80	
 15.300	-25.739	 26.96508	 25.72520	  1.51434	  6.61272	 19.28376	 -1.20447	 30.49984	709.11298	 24.90	
 15.288	-32.146	 26.93247	 24.86116	  2.07312	  5.47574	 20.63162	 -1.21120	 30.47949	708.99799	 24.80	
 15.293	-38.572	 26.95107	 23.87535	  2.79836	  4.32186	 22.05143	 -1.20146	 30.52689	709.18903	 24.80	
 15.299	-45.015	 26.94534	 22.70955	  3.71457	  3.31060	 23.34225	 -1.20473	 30.54990	707.97101	 24.90	
 15.305	-51.417	 26.91611	 21.39574	  4.68167	  2.48255	 24.44693	 -1.22039	 30.53009	709.04901	 24.80	
 15.309	-57.858	 26.92089	 19.99601	  5.78168	  1.78699	 25.42788	 -1.20512	 30.53833	707.01898	 24.90	
 15.304	-64.289	 26.88741	 18.48241	  6.97214	  1.23006	 26.19008	 -1.18050	 30.49977	709.05902	 24.80	
 15.297	-70.709	 26.92923	 16.99079	  8.23038	  0.86244	 26.84501	 -1.17065	 30.53447	708.44598	 24.80	
 15.293	-77.103	 26.88095	 15.47444	  9.53098	  0.52943	 27.24900	 -1.15222	 30.48390	709.01801	 24.80	
 15.293	-83.542	 26.92557	 13.98278	 10.94729	  0.31441	 27.55751	 -1.19529	 30.52067	708.96997	 24.80	
 15.300	-90.000	 26.90432	 12.38379	 12.54707	  0.16525	 27.64891	 -1.21455	 30.50141	708.95203	 24.90	
 15.293	-96.458	 26.87983	 10.75973	 14.15924	  0.18644	 27.51110	 -1.23414	 30.45984	709.02002	 24.90	
 15.293	-102.897	 26.96591	  9.19481	 15.72538	  0.50699	 27.30121	 -1.28437	 30.53940	709.03900	 24.90	
 15.297	-109.291	 26.95941	  7.81619	 17.16968	  0.87566	 26.82117	 -1.28376	 30.52361	708.96997	 24.90	
 15.304	-115.711	 26.94427	  6.61984	 18.68338	  1.30363	 26.16871	 -1.25462	 30.51088	707.95001	 24.90	
 15.309	-122.142	 26.94830	  5.42816	 20.16436	  1.85302	 25.35442	 -1.22246	 30.51346	708.83502	 24.90	
 15.305	-128.583	 26.93453	  4.32886	 21.53181	  2.55549	 24.38159	 -1.20017	 30.49482	708.96399	 24.90	
 15.299	-134.985	 26.96130	  3.35535	 22.83107	  3.39127	 23.31360	 -1.20730	 30.52138	707.03003	 24.90	
 15.293	-141.428	 26.95775	  2.52422	 23.98311	  4.41892	 22.03740	 -1.26568	 30.50266	709.04303	 24.90	
 15.288	-147.854	 26.99251	  1.82932	 25.00988	  5.52534	 20.68532	 -1.31117	 30.52443	709.07703	 24.90	
 15.300	-154.261	 26.98170	  1.26152	 25.83108	  6.67596	 19.24045	 -1.33516	 30.48223	707.12903	 24.90	
 15.307	-160.676	 27.01037	  0.82633	 26.50074	  7.95465	 17.78051	 -1.34508	 30.49384	709.09601	 24.90	
 15.291	-167.167	 27.04705	  0.51339	 26.97732	  9.30149	 16.29762	 -1.35740	 30.49797	708.97998	 24.90	
 15.298	-173.587	 27.03205	  0.26316	 27.25097	 10.84148	 14.82588	 -1.35504	 30.48227	709.05103	 24.90	
 15.300	180.000	 27.03793	  0.14304	 27.35973	 12.41444	 13.26029	 -1.35008	 30.46937	709.02002	 24.90	
 17.000	180.000	 26.16722	 -1.61904	 28.19521	 11.62864	 12.42503	 -1.49454	 30.52687	709.05402	 24.90	
 16.990	-174.179	 26.19190	 -1.50376	 28.11699	 10.03196	 14.02543	 -1.48182	 30.55042	708.98999	 24.90	
 17.009	-168.383	 26.13741	 -1.34490	 27.83938	  8.66269	 15.56198	 -1.46456	 30.52676	708.98999	 24.90	
 17.000	-162.596	 26.09692	 -1.00061	 27.37489	  7.29739	 17.01034	 -1.45066	 30.49550	708.97498	 24.90	
 16.990	-156.759	 26.11170	 -0.58164	 26.79469	  6.01716	 18.51650	 -1.44546	 30.53139	708.39301	 24.90	
 16.995	-150.919	 26.08845	 -0.10678	 26.01777	  4.79725	 19.95032	 -1.44828	 30.51816	706.78601	 24.90	
 16.988	-145.161	 26.04168	  0.46949	 25.07173	  3.66725	 21.32833	 -1.41552	 30.49135	706.85797	 24.90	
 17.014	-139.343	 26.01002	  1.17087	 24.00273	  2.60164	 22.65089	 -1.38603	 30.49206	709.04901	 24.90	
 17.007	-133.546	 26.00005	  2.03213	 22.80117	  1.67621	 23.84739	 -1.34348	 30.47230	709.02600	 24.90	
 17.001	-127.699	 26.00780	  3.01719	 21.50247	  0.86674	 24.96098	 -1.33141	 30.48955	709.03101	 24.90	
 17.006	-121.937	 26.01816	  4.09005	 20.12553	  0.20986	 25.92815	 -1.34527	 30.51453	709.15601	 24.90	
 17.002	-116.134	 25.99184	  5.22557	 18.64810	 -0.30514	 26.70945	 -1.34913	 30.48786	708.97198	 24.90	
 17.001	-110.310	 26.00345	  6.48831	 17.15906	 -0.77444	 27.37718	 -1.29194	 30.50398	708.99500	 24.90	
 16.988	-104.517	 26.00875	  7.75805	 15.69921	 -1.12710	 27.86646	 -1.25027	 30.49349	708.01599	 24.90	
 17.008	-98.662	 25.99632	  9.15129	 14.10614	 -1.35334	 28.20413	 -1.16510	 30.49191	708.96899	 24.90	
 16.996	-92.909	 26.01055	 10.63705	 12.48292	 -1.38883	 28.35955	 -1.10920	 30.49483	706.97498	 24.90	
 16.996	-87.091	 25.98791	 12.31684	 10.93674	 -1.46871	 28.37585	 -1.06062	 30.50113	706.98297	 24.90	
 17.012	-81.253	 25.91806	 13.88547	  9.49893	 -1.40031	 28.19276	 -1.06184	 30.46582	706.80902	 24.90	
 16.988	-75.483	 25.96284	 15.40772	  8.17703	 -1.12091	 27.90458	 -1.04354	 30.51283	708.10498	 24.90	
 17.001	-69.690	 25.93487	 16.84771	  6.86548	 -0.76810	 27.41010	 -1.05036	 30.49307	707.80103	 24.90	
 17.002	-63.866	 25.93140	 18.37360	  5.62271	 -0.38128	 26.76777	 -1.06634	 30.48113	706.89001	 24.90	
 17.006	-58.063	 25.97126	 19.89235	  4.46027	  0.11547	 26.00407	 -1.10291	 30.54165	706.91602	 24.90	
 17.001	-52.301	 25.94328	 21.28144	  3.39010	  0.75484	 25.00401	 -1.13776	 30.49644	706.83099	 24.90	
 17.007	-46.454	 25.97664	 22.64686	  2.39795	  1.55651	 23.90589	 -1.15495	 30.51770	707.46100	 24.90	
 17.014	-40.657	 25.98207	 23.85981	  1.49839	  2.44959	 22.69719	 -1.16876	 30.52376	706.87799	 24.90	
 16.988	-34.839	 26.01299	 24.93869	  0.70918	  3.53808	 21.35529	 -1.16890	 30.51124	706.84698	 24.90	
 16.995	-29.081	 26.03012	 25.86935	  0.10474	  4.68756	 19.92585	 -1.18187	 30.48036	706.92999	 24.90	
 16.990	-23.241	 26.06569	 26.67513	 -0.35963	  5.88376	 18.44970	 -1.19738	 30.50486	707.05499	 24.90	
 17.000	-17.404	 26.08167	 27.28915	 -0.73008	  7.18951	 16.96921	 -1.18652	 30.50805	706.94397	 24.90	
 17.009	-11.617	 26.10451	 27.74413	 -1.04058	  8.53719	 15.54335	 -1.17505	 30.51035	709.07098	 24.90	
 16.990	 -5.821	 26.11991	 27.99951	 -1.16355	  9.97342	 13.97032	 -1.17908	 30.49966	706.77802	 24.90	
 17.000	  0.000	 26.13528	 28.10444	 -1.18230	 11.47291	 12.31083	 -1.16776	 30.50119	706.81097	 24.90	
 16.990	  5.821	 26.11949	 28.01332	 -1.19719	 13.08419	 10.77705	 -1.14516	 30.48369	708.88300	 24.90	
 17.009	 11.617	 26.14254	 27.83977	 -1.12578	 14.66602	  9.44317	 -1.13636	 30.53223	707.96503	 24.90	
 17.000	 17.404	 26.14955	 27.43107	 -0.86800	 16.19975	  8.13547	 -1.13294	 30.51894	707.67700	 24.90	
 16.990	 23.241	 26.16150	 26.85393	 -0.46307	 17.69797	  6.84262	 -1.17941	 30.52218	706.77100	 24.90	
 16.995	 29.081	 26.14540	 26.08567	  0.02589	 19.16875	  5.65455	 -1.21965	 30.49056	706.85901	 24.90	
 16.988	 34.839	 26.19241	 25.20448	  0.66728	 20.62195	  4.57253	 -1.25216	 30.51410	706.86200	 24.90	
 17.014	 40.657	 26.16232	 24.14099	  1.39333	 21.99891	  3.49463	 -1.27802	 30.50112	706.87299	 24.90	
 17.007	 46.454	 26.14046	 22.92389	  2.32446	 23.25563	  2.53830	 -1.26583	 30.48477	707.01398	 24.90	
 17.001	 52.301	 26.17015	 21.63597	  3.37651	 24.41197	  1.72612	 -1.25627	 30.49812	706.93500	 24.90	
 17.006	 58.063	 26.16077	 20.18893	  4.47611	 25.39362	  1.05243	 -1.25303	 30.48386	707.22803	 24.90	
 17.002	 63.866	 26.14932	 18.74668	  5.64882	 26.22645	  0.50111	 -1.28159	 30.45966	709.05402	 24.90	
 17.001	 69.690	 26.17375	 17.24243	  6.81926	 26.93853	  0.04851	 -1.31979	 30.49962	706.85400	 24.90	
 16.988	 75.483	 26.20261	 15.84326	  8.17537	 27.48433	 -0.32090	 -1.32806	 30.51940	708.10498	 24.90	
 17.012	 81.253	 26.17938	 14.23541	  9.55093	 27.84010	 -0.55645	 -1.36590	 30.51318	707.16302	 24.90	
 16.996	 87.091	 26.18470	 12.57096	 11.02493	 27.97440	 -0.58334	 -1.36696	 30.48063	708.26398	 24.90	
 16.996	 92.909	 26.18859	 10.91546	 12.64851	 27.98587	 -0.59147	 -1.34754	 30.48197	709.00000	 24.90	
 17.008	 98.662	 26.20720	  9.53203	 14.30571	 27.86198	 -0.50657	 -1.33075	 30.51455	708.94397	 24.90	
 16.988	104.517	 26.21477	  8.10706	 15.84832	 27.49521	 -0.23631	 -1.33684	 30.49089	706.84698	 24.90	
 17.001	110.310	 26.20121	  6.73769	 17.32595	 26.97396	  0.07369	 -1.38580	 30.47231	706.92902	 24.90	
 17.002	116.134	 26.25033	  5.46997	 18.85013	 26.34189	  0.48939	 -1.42334	 30.52146	708.95203	 24.90	
 17.006	121.937	 26.26354	  4.30239	 20.33142	 25.50948	  1.04984	 -1.44739	 30.52254	707.00299	 24.90	
 17.001	127.699	 26.24020	  3.20547	 21.70148	 24.50353	  1.73738	 -1.45642	 30.48655	707.65802	 24.90	
 17.007	133.546	 26.24440	  2.16979	 22.98766	 23.39441	  2.55963	 -1.44168	 30.50603	708.97498	 24.90	
 17.014	139.343	 26.22404	  1.26444	 24.17818	 22.12759	  3.49118	 -1.44228	 30.49467	709.06201	 24.90	
 16.988	145.161	 26.24843	  0.55416	 25.23706	 20.75623	  4.57893	 -1.44130	 30.51179	708.44598	 24.90	
 16.995	150.919	 26.23418	 -0.04790	 26.12313	 19.33741	  5.64489	 -1.45186	 30.49802	709.01801	 24.90	
 16.990	156.759	 26.23914	 -0.52141	 26.88201	 17.86638	  6.81907	 -1.45819	 30.51344	708.32703	 24.90	
 17.000	162.596	 26.18266	 -1.01256	 27.44797	 16.32883	  8.08023	 -1.45110	 30.48474	707.81000	 24.90	
 17.009	168.383	 26.19040	 -1.36347	 27.89241	 14.82873	  9.45358	 -1.46582	 30.52849	709.11298	 24.90	
 16.990	174.179	 26.17571	 -1.47632	 28.10139	 13.26243	 10.84397	 -1.49322	 30.50579	709.10101	 24.90	
 18.709	174.675	 25.14529	 -3.18485	 28.83202	 12.33250	 10.03729	 -1.51086	 30.53033	707.29303	 24.90	
 18.703	169.441	 25.13845	 -3.05638	 28.60588	 13.87917	  8.64690	 -1.51071	 30.51171	708.32001	 24.90	
 18.691	164.085	 25.15073	 -2.76491	 28.21803	 15.44980	  7.30859	 -1.51509	 30.48077	709.03400	 24.90	
 18.706	158.818	 25.16109	 -2.45701	 27.70959	 16.92390	  6.03290	 -1.52970	 30.48761	709.07098	 24.90	
 18.695	153.537	 25.18613	 -2.04268	 27.04839	 18.40361	  4.85466	 -1.51019	 30.49770	708.98602	 24.90	
 18.704	148.255	 25.19169	 -1.39236	 26.22648	 19.89452	  3.72526	 -1.49831	 30.50139	708.72400	 24.90	
 18.698	142.952	 25.19381	 -0.71719	 25.25126	 21.32299	  2.62986	 -1.49335	 30.50859	707.12402	 24.90	
 18.699	137.625	 25.24778	  0.07513	 24.12027	 22.73125	  1.67382	 -1.54740	 30.50675	706.96600	 24.90	
 18.705	132.343	 25.22973	  0.89936	 22.93155	 23.90476	  0.81885	 -1.51514	 30.47760	706.99902	 24.90	
 18.713	127.067	 25.26117	  1.88718	 21.64777	 25.04440	  0.05611	 -1.49182	 30.52822	706.89301	 24.90	
 18.700	121.794	 25.21891	  2.93135	 20.21336	 25.96906	 -0.56285	 -1.43630	 30.46646	707.31403	 24.90	
 18.698	116.504	 25.23465	  4.07314	 18.76711	 26.82864	 -1.07673	 -1.35914	 30.49579	706.94598	 24.90	
 18.707	111.165	 25.18898	  5.29827	 17.24442	 27.49513	 -1.54516	 -1.26778	 30.46606	706.98798	 24.90	
 18.690	105.863	 25.22114	  6.63818	 15.74954	 28.06568	 -1.89901	 -1.20681	 30.51877	707.04498	 24.90	
 18.696	100.583	 25.17331	  7.98689	 14.14480	 28.42831	 -2.16282	 -1.17917	 30.49001	707.09497	 24.90	
 18.700	 95.309	 25.17985	  9.39641	 12.54583	 28.62903	 -2.23697	 -1.20878	 30.47789	706.95203	 24.90	
 18.700	 90.000	 25.19242	 10.84299	 11.00459	 28.69362	 -2.27498	 -1.25077	 30.48020	706.93402	 24.90	
 18.700	 84.691	 25.17978	 12.40479	  9.52034	 28.64986	 -2.29845	 -1.28020	 30.51071	706.90198	 24.90	
 18.696	 79.417	 25.14572	 14.12111	  8.16483	 28.38082	 -2.17415	 -1.33403	 30.48118	708.66498	 24.90	
 18.690	 74.137	 25.15204	 15.72279	  6.81725	 28.00506	 -1.96764	 -1.36933	 30.49378	707.09302	 24.90	
 18.707	 68.835	 25.14094	 17.22295	  5.39288	 27.48130	 -1.65942	 -1.36813	 30.50496	707.12299	 24.90	
 18.698	 63.496	 25.17509	 18.63000	  4.14852	 26.77550	 -1.18666	 -1.36182	 30.51531	707.03101	 24.90	
 18.700	 58.206	 25.16004	 20.10995	  3.03186	 25.89107	 -0.61672	 -1.34428	 30.48959	707.45502	 24.90	
 18.713	 52.933	 25.10412	 21.51060	  2.01437	 24.85432	  0.01813	 -1.26353	 30.43246	709.33899	 25.00	
 18.705	 47.657	 25.13936	 22.84885	  1.04902	 23.74815	  0.79751	 -1.25674	 30.46663	708.42902	 25.00	
 18.699	 42.375	 25.16308	 24.08440	  0.08786	 22.54632	  1.66604	 -1.23521	 30.50312	707.11700	 25.00	
 18.698	 37.048	 25.15525	 25.19459	 -0.71055	 21.20308	  2.63535	 -1.21086	 30.48642	709.25098	 25.00	
 18.704	 31.745	 25.14402	 26.17111	 -1.34306	 19.77001	  3.70303	 -1.16939	 30.48638	709.25403	 25.00	
 18.695	 26.463	 25.12537	 26.99194	 -1.74287	 18.28831	  4.86845	 -0.91385	 30.47485	707.12598	 25.00	
 18.706	 21.182	 25.10278	 27.66502	 -2.16530	 16.84622	  6.04009	 -0.88624	 30.48206	707.05499	 25.00	
 18.691	 15.915	 25.08599	 28.15808	 -2.48400	 15.31977	  7.32252	 -0.86251	 30.46076	707.07501	 25.00	
 18.703	 10.559	 25.07865	 28.52376	 -2.73891	 13.74039	  8.66138	 -0.87532	 30.47094	707.23602	 25.00	
 18.709	  5.325	 25.07420	 28.71975	 -2.84871	 12.18379	  9.99111	 -0.89575	 30.45805	707.07202	 25.00	
 18.700	  0.000	 25.10254	 28.78665	 -2.85383	 10.63197	 11.42164	 -0.92398	 30.47626	708.45203	 25.00	
 18.709	 -5.325	 25.07360	 28.69742	 -2.84631	  9.14772	 12.97431	 -0.94249	 30.46907	707.09003	 25.00	
 18.703	-10.559	 25.08266	 28.48910	 -2.72973	  7.79172	 14.60776	 -0.95064	 30.51007	708.29401	 25.00	
 18.691	-15.915	 25.07505	 28.07698	 -2.50883	  6.44103	 16.17139	 -0.96744	 30.51939	709.17999	 25.00	
 18.706	-21.182	 25.02756	 27.50509	 -2.17888	  5.10452	 17.56919	 -0.97578	 30.48951	707.03601	 25.00	
 18.695	-26.463	 25.02866	 26.80645	 -1.77837	  3.90471	 19.05137	 -0.97746	 30.50569	707.18201	 25.00	
 18.704	-31.745	 24.98241	 25.92312	 -1.29897	  2.73542	 20.50710	 -0.95709	 30.49251	707.49200	 25.00	
 18.698	-37.048	 24.93356	 24.88068	 -0.63518	  1.67208	 21.85582	 -0.92391	 30.45158	707.13202	 25.00	
 18.699	-42.375	 24.93970	 23.77363	  0.19355	  0.72964	 23.16649	 -0.90827	 30.47482	707.59399	 25.00	
 18.705	-47.657	 24.92876	 22.53955	  1.07533	 -0.13912	 24.36176	 -0.91575	 30.47995	707.25201	 25.00	
 18.713	-52.933	 24.89247	 21.20353	  2.02032	 -0.87231	 25.42975	 -0.84406	 30.47665	707.15698	 25.00	
 18.700	-58.206	 24.91641	 19.79906	  3.02427	 -1.37706	 26.38121	 -0.81054	 30.48152	707.13702	 25.00	
 18.698	-63.496	 24.89677	 18.31902	  4.16797	 -1.89130	 27.14963	 -0.75350	 30.43776	707.12097	 25.00	
 18.707	-68.835	 24.90664	 16.75937	  5.42362	 -2.36365	 27.81182	 -0.75921	 30.44532	707.05103	 25.00	
 18.690	-74.137	 24.90035	 15.27026	  6.75926	 -2.76513	 28.30613	 -0.70102	 30.42471	706.97998	 25.00	
 18.696	-79.417	 24.92040	 13.76003	  8.08980	 -3.06624	 28.68582	 -0.74281	 30.45104	707.13800	 25.00	
 18.700	-84.691	 24.92996	 12.13908	  9.44677	 -3.22519	 28.90212	 -0.77007	 30.44508	707.16199	 25.00	
 18.700	-90.000	 24.95591	 10.52763	 10.86282	 -3.20027	 28.96858	 -0.82186	 30.44360	708.34998	 25.00	
 18.700	-95.309	 25.01289	  9.03527	 12.41103	 -3.15311	 28.93356	 -0.90493	 30.49526	707.40399	 25.00	
 18.696	-100.583	 24.95233	  7.68497	 13.99598	 -3.02313	 28.64872	 -0.92341	 30.42381	707.16199	 25.00	
 18.690	-105.863	 25.01402	  6.36511	 15.60725	 -2.76282	 28.34078	 -1.02367	 30.49780	707.48401	 25.00	
 18.707	-111.165	 24.96277	  5.06123	 17.07768	 -2.36127	 27.78043	 -1.08531	 30.45100	708.55298	 25.00	
 18.698	-116.504	 24.98058	  3.75572	 18.57938	 -1.86560	 27.12031	 -1.16477	 30.45517	707.27502	 25.00	
 18.700	-121.794	 24.99449	  2.62535	 20.03624	 -1.36432	 26.34065	 -1.21911	 30.48799	707.23901	 25.00	
 18.713	-127.067	 24.98164	  1.66093	 21.41483	 -0.76148	 25.39855	 -1.24613	 30.47408	707.50598	 25.00	
 18.705	-132.343	 24.96470	  0.73993	 22.70043	 -0.02706	 24.29189	 -1.26524	 30.43986	708.31702	 25.00	
 18.699	-137.625	 25.00883	 -0.06073	 23.93223	  0.79382	 23.12549	 -1.30544	 30.46831	709.18402	 25.00	
 18.698	-142.952	 25.02219	 -0.80311	 25.04786	  1.72943	 21.85736	 -1.30478	 30.47467	708.16400	 25.00	
 18.704	-148.255	 25.02735	 -1.42285	 26.02743	  2.76126	 20.50300	 -1.29266	 30.47215	709.32898	 25.00	
 18.695	-153.537	 25.05691	 -1.94114	 26.85727	  3.93222	 19.07454	 -1.26793	 30.47388	707.63898	 25.00	
 18.706	-158.818	 25.07643	 -2.48720	 27.58520	  5.22186	 17.60099	 -1.27750	 30.49389	708.09497	 25.00	
 18.691	-164.085	 25.06312	 -2.90095	 28.13746	  6.53259	 16.11483	 -1.22727	 30.48263	707.13397	 25.00	
 18.703	-169.441	 25.04892	 -3.12286	 28.52120	  7.90411	 14.54292	 -1.17975	 30.45505	709.26703	 25.00	
 18.709	-174.675	 25.06719	 -3.25692	 28.75670	  9.25253	 12.97376	 -1.25058	 30.46428	707.58502	 25.00	
 18.700	180.000	 25.08826	 -3.20400	 28.82656	 10.65796	 11.43456	 -1.27829	 30.45647	707.72302	 25.00	
 20.400	180.000	 24.01772	 -5.00521	 29.43199	  9.85162	 10.57541	 -1.31735	 30.49195	707.10303	 25.00	
 20.401	-175.153	 23.98519	 -4.96684	 29.33670	  8.46688	 11.99048	 -1.31415	 30.48198	707.16498	 25.00	
 20.407	-170.264	 23.97396	 -4.89888	 29.16996	  7.09314	 13.55558	 -1.28849	 30.51100	707.18201	 25.00	
 20.410	-165.423	 23.89777	 -4.58691	 28.74002	  5.72767	 15.01527	 -1.26982	 30.43203	707.15997	 25.00	
 20.392	-160.496	 23.92072	 -4.20268	 28.26238	  4.45233	 16.53981	 -1.28513	 30.46965	707.13098	 25.00	
 20.401	-155.705	 23.90089	 -3.78733	 27.65169	  3.23598	 17.98159	 -1.30724	 30.47055	707.14099	 25.00	
 20.405	-150.835	 23.85433	 -3.32487	 26.84452	  1.99574	 19.43179	 -1.33316	 30.43449	707.17999	 25.00	
 20.397	-145.903	 23.91226	 -2.79308	 25.98327	  0.90934	 20.90989	 -1.36901	 30.49810	707.11798	 24.90	
 20.392	-141.062	 23.90411	 -2.08861	 24.88374	 -0.06194	 22.25879	 -1.40687	 30.43798	707.03400	 25.00	
 20.396	-136.227	 23.88003	 -1.37513	 23.73570	 -0.93783	 23.49460	 -1.42007	 30.42378	707.15503	 25.00	
 20.408	-131.372	 23.84451	 -0.60204	 22.49315	 -1.70864	 24.62844	 -1.40517	 30.40314	707.23297	 24.90	
 20.410	-126.511	 23.86341	  0.26279	 21.21921	 -2.34652	 25.68733	 -1.41102	 30.43147	707.14899	 25.00	
 20.400	-121.604	 23.87811	  1.29825	 19.84851	 -2.93103	 26.63447	 -1.36895	 30.45150	707.14899	 24.90	
 20.403	-116.741	 23.86494	  2.32710	 18.37852	 -3.52017	 27.43943	 -1.30102	 30.43936	707.17200	 24.90	
 20.413	-111.900	 23.84774	  3.59221	 16.90445	 -4.11809	 28.14006	 -1.18263	 30.44257	707.68701	 24.90	
 20.398	-107.004	 23.82979	  4.85583	 15.36310	 -4.48084	 28.66254	 -1.10488	 30.43251	707.21100	 25.00	
 20.394	-102.132	 23.83147	  6.14891	 13.79014	 -4.69688	 29.06966	 -1.03553	 30.44497	707.15503	 25.00	
 20.403	-97.332	 23.82911	  7.45908	 12.24161	 -4.86242	 29.35793	 -0.95466	 30.44662	709.23401	 25.00	
 20.392	-92.440	 23.85059	  8.84045	 10.74198	 -4.93689	 29.50540	 -0.93951	 30.46745	707.20001	 24.90	
 20.392	-87.560	 23.81674	 10.35054	  9.30826	 -4.92020	 29.48862	 -0.91444	 30.45083	707.21698	 25.00	
 20.403	-82.668	 23.82304	 11.88796	  7.91271	 -4.80177	 29.40051	 -0.89402	 30.47593	707.12598	 25.00	
 20.394	-77.868	 23.79350	 13.44436	  6.58598	 -4.62106	 29.13873	 -0.87835	 30.46696	707.31201	 25.00	
 20.398	-72.996	 23.78119	 15.06870	  5.26125	 -4.40356	 28.74419	 -0.82386	 30.45907	707.25800	 25.00	
 20.413	-68.100	 23.77917	 16.53721	  3.95241	 -4.03742	 28.20041	 -0.83680	 30.44724	707.34100	 25.00	
 20.403	-63.259	 23.83141	 18.09485	  2.76335	 -3.49148	 27.53857	 -0.85024	 30.47088	707.13800	 24.90	
 20.400	-58.396	 23.88643	 19.60248	  1.63779	 -2.94388	 26.75542	 -0.89206	 30.50083	707.27899	 24.90	
 20.410	-53.489	 23.84376	 21.04386	  0.58547	 -2.37618	 25.80144	 -0.95375	 30.47688	707.35999	 24.90	
 20.408	-48.628	 23.84270	 22.35565	 -0.34667	 -1.73853	 24.75409	 -0.96422	 30.46634	707.17200	 24.90	
 20.396	-43.773	 23.82693	 23.60740	 -1.18856	 -1.01072	 23.57134	 -0.95380	 30.45140	707.31201	 24.90	
 20.392	-38.938	 23.83422	 24.81307	 -1.94316	 -0.13295	 22.31851	 -0.93742	 30.48385	707.10303	 24.90	
 20.397	-34.097	 23.81845	 25.82162	 -2.54691	  0.82662	 20.95532	 -0.95215	 30.46199	707.21100	 24.90	
 20.405	-29.165	 23.85617	 26.75014	 -3.01154	  1.87864	 19.56176	 -0.97512	 30.48018	707.28101	 24.90	
 20.401	-24.295	 23.86019	 27.51167	 -3.43607	  3.03992	 18.07982	 -1.00382	 30.43607	707.28998	 24.90	
 20.392	-19.504	 23.88659	 28.15753	 -3.83529	  4.27338	 16.63785	 -1.00535	 30.44240	707.24402	 24.90	
 20.410	-14.577	 23.88794	 28.67862	 -4.14109	  5.55571	 15.11846	 -0.98303	 30.44369	707.20300	 24.90	
 20.407	 -9.736	 23.91820	 29.04597	 -4.29908	  6.87527	 13.55634	 -0.95999	 30.44220	707.08398	 24.90	
 20.401	 -4.847	 23.95123	 29.27695	 -4.41700	  8.29239	 12.01876	 -0.96804	 30.46028	707.33801	 24.90	
 20.400	  0.000	 23.95815	 29.34996	 -4.46920	  9.76768	 10.60454	 -0.91855	 30.45636	707.24799	 24.90	
 20.401	  4.847	 23.95787	 29.30751	 -4.43107	 11.20994	  9.16287	 -0.92872	 30.45440	707.86298	 24.90	
 20.407	  9.736	 23.98382	 29.17231	 -4.31978	 12.73150	  7.82733	 -0.91428	 30.48890	709.44299	 24.90	
 20.410	 14.577	 23.94675	 28.83093	 -4.16596	 14.25449	  6.50313	 -0.88439	 30.46429	709.06500	 24.90	
 20.392	 19.504	 23.94230	 28.33672	 -3.87294	 15.79283	  5.20947	 -0.88998	 30.43696	707.25800	 24.90	
 20.401	 24.295	 23.99435	 27.77070	 -3.48745	 17.28154	  4.03636	 -0.95508	 30.47428	707.36902	 24.90	
 20.405	 29.165	 23.97455	 26.98535	 -3.02211	 18.74975	  2.89216	 -0.99817	 30.42777	707.38800	 24.90	
 20.397	 34.097	 24.00067	 26.09211	 -2.52339	 20.23520	  1.79758	 -1.08237	 30.46031	707.26398	 24.90	
 20.392	 38.938	 24.02301	 25.06602	 -1.92434	 21.61837	  0.82078	 -1.15383	 30.46551	707.28900	 24.90	
 20.396	 43.773	 24.04465	 23.92754	 -1.20276	 22.94392	 -0.09735	 -1.20386	 30.46358	707.47601	 24.90	
 20.408	 48.628	 24.00718	 22.65914	 -0.36530	 24.16687	 -1.00684	 -1.22543	 30.46454	707.37701	 24.90	
 20.410	 53.489	 23.96687	 21.27559	  0.52357	 25.25575	 -1.69402	 -1.25957	 30.42955	707.26398	 24.90	
 20.400	 58.396	 24.01009	 19.88096	  1.58117	 26.28484	 -2.22329	 -1.29260	 30.46252	707.23602	 24.90	
 20.403	 63.259	 24.01365	 18.43748	  2.70528	 27.13575	 -2.70861	 -1.33600	 30.46513	707.31201	 24.90	
 20.413	 68.100	 23.98904	 17.08558	  3.92529	 27.82399	 -3.14768	 -1.33684	 30.42706	707.34900	 24.90	
 20.398	 72.996	 24.00787	 15.54162	  5.31140	 28.41872	 -3.48630	 -1.28824	 30.44264	707.35901	 24.90	
 20.394	 77.868	 24.01409	 13.92125	  6.65193	 28.85411	 -3.73491	 -1.21574	 30.46011	707.28101	 24.90	
 20.403	 82.668	 24.02026	 12.23160	  7.95928	 29.13303	 -3.86123	 -1.16903	 30.45409	707.28302	 24.90	
 20.392	 87.560	 24.06257	 10.74220	  9.40797	 29.29038	 -3.97312	 -1.07623	 30.48121	707.42102	 24.90	
 20.392	 92.440	 24.01719	  9.22198	 10.85071	 29.22837	 -3.95845	 -1.00258	 30.40994	707.41101	 24.90	
 20.403	 97.332	 24.01710	  7.79358	 12.37685	 29.10585	 -3.84942	 -1.01182	 30.41341	708.59302	 24.90	
 20.394	102.132	 24.07245	  6.47942	 13.97104	 28.89611	 -3.70412	 -1.04346	 30.47065	707.26398	 24.90	
 20.398	107.004	 24.05298	  5.14352	 15.52478	 28.45300	 -3.48609	 -1.04734	 30.43393	707.24103	 24.90	
 20.413	111.900	 24.08242	  3.86195	 17.07604	 27.93540	 -3.15592	 -1.10536	 30.47370	707.39001	 24.90	
 20.403	116.741	 24.06224	  2.67159	 18.49444	 27.20600	 -2.72281	 -1.21267	 30.42776	707.36603	 24.90	
 20.400	121.604	 24.09620	  1.58730	 19.96449	 26.42114	 -2.23746	 -1.29652	 30.46148	707.20001	 24.90	
 20.410	126.511	 24.08550	  0.45725	 21.38563	 25.44537	 -1.63635	 -1.36723	 30.45668	707.25598	 24.90	
 20.408	131.372	 24.08551	 -0.44284	 22.78346	 24.32320	 -0.93989	 -1.35014	 30.47340	707.35901	 24.90	
 20.396	136.227	 24.07685	 -1.29116	 24.00583	 23.10765	 -0.09083	 -1.39613	 30.43627	707.39600	 24.90	
 20.392	141.062	 24.09989	 -2.03178	 25.15550	 21.84947	  0.80061	 -1.42238	 30.46830	707.21600	 24.90	
 20.397	145.903	 24.06178	 -2.70309	 26.14274	 20.45902	  1.76871	 -1.46532	 30.43884	707.29498	 24.90	
 20.405	150.835	 24.06727	 -3.35331	 27.05118	 18.99460	  2.88363	 -1.49447	 30.45819	707.37598	 24.90	
 20.401	155.705	 24.08492	 -3.94679	 27.81234	 17.49906	  4.03060	 -1.50904	 30.49358	707.36200	 24.90	
 20.392	160.496	 24.06504	 -4.33905	 28.40318	 16.07150	  5.19200	 -1.48064	 30.48926	707.38501	 24.90	
 20.410	165.423	 24.01230	 -4.61760	 28.84295	 14.49919	  6.45085	 -1.47021	 30.45208	707.28699	 24.90	
 20.407	170.264	 24.01290	 -4.78581	 29.16524	 12.94879	  7.76772	 -1.44614	 30.45362	707.30701	 24.90	
 20.401	175.153	 23.99296	 -4.95452	 29.34755	 11.33856	  9.13690	 -1.41046	 30.46055	707.31000	 24.90	
  0.141	 45.000	 30.50970	 16.07216	 16.08054	 15.93092	 16.65692	  0.28880	 30.45338	707.27002	 24.90	
  4.001	128.691	 30.39466	 13.46373	 18.24165	 18.42694	 13.69057	  0.18422	 30.43526	707.26398	 24.90	
  4.002	 76.995	 30.39969	 16.54236	 15.16098	 19.24273	 12.99857	  0.20252	 30.43241	707.32300	 24.90	
  4.002	 25.892	 30.43482	 19.07639	 12.78016	 17.25228	 14.86207	  0.18715	 30.47526	707.28699	 24.90	
  4.002	-25.892	 30.39512	 19.05215	 12.77105	 14.06802	 18.04191	  0.16921	 30.45150	707.37299	 24.90	
  4.002	-76.995	 30.37804	 16.60291	 15.13074	 12.15866	 19.96989	  0.14777	 30.45159	707.25897	 24.90	
  4.001	-128.691	 30.40600	 13.47158	 18.20408	 12.87039	 19.27841	  0.17509	 30.47371	707.28998	 24.90	
  4.000	180.000	 30.41883	 12.16436	 19.65130	 15.51329	 16.53417	  0.19238	 30.46871	707.33099	 24.90	
  8.000	180.000	 29.74414	  7.82536	 22.74360	 14.87380	 15.73947	 -0.26783	 30.43267	707.21698	 24.90	
  7.991	-152.370	 29.70946	  8.54979	 21.84216	 11.53594	 19.04630	 -0.29212	 30.44094	707.21301	 24.90	
  7.997	-124.550	 29.69001	 10.84176	 19.32196	  8.88730	 21.78595	 -0.32651	 30.44003	707.21301	 24.90	
  8.006	-96.837	 29.67535	 14.05605	 15.99905	  7.71756	 23.05844	 -0.42018	 30.42412	707.31403	 24.90	
  7.988	-69.228	 29.70082	 17.67118	 12.62954	  8.13337	 22.61953	 -0.45499	 30.45263	707.16199	 24.90	
  7.997	-41.563	 29.71847	 20.60215	  9.66902	 10.08533	 20.59138	 -0.36245	 30.45362	707.20801	 24.90	
  8.008	-13.821	 29.75076	 22.36148	  8.29109	 13.18749	 17.47219	 -0.33860	 30.44804	707.35400	 24.90	
  8.008	 13.821	 29.73905	 22.37173	  8.32052	 16.56165	 13.97064	 -0.28121	 30.40909	707.28998	 24.90	
  7.997	 41.563	 29.81986	 20.70928	  9.75028	 19.89351	 10.97713	 -0.25603	 30.47239	707.14001	 24.90	
  7.988	 69.228	 29.81848	 17.65543	 12.68284	 21.97813	  9.05055	 -0.25141	 30.46256	707.24402	 24.90	
  8.006	 96.837	 29.81422	 14.25709	 16.03014	 22.48463	  8.67879	 -0.21543	 30.45709	707.23102	 24.90	
  7.997	124.550	 29.79361	 10.89682	 19.38634	 21.11326	  9.86442	 -0.24570	 30.43565	707.38800	 24.90	
  7.991	152.370	 29.79016	  8.60915	 21.87048	 18.28261	 12.51575	 -0.25682	 30.43262	707.17102	 24.90	
 12.009	161.059	 28.53994	  4.15493	 24.89680	 17.27024	 11.00986	 -0.82112	 30.45805	707.33502	 24.90	
 12.013	142.081	 28.59355	  5.59817	 23.05529	 20.73758	  8.06869	 -0.83293	 30.48973	707.33698	 24.90	
 12.006	123.113	 28.57752	  7.96420	 20.13869	 23.33121	  6.03764	 -0.89569	 30.44875	707.19397	 24.90	
 12.007	104.200	 28.53883	 11.18885	 16.64220	 24.91611	  4.79314	 -1.00553	 30.42678	707.20502	 24.90	
 11.989	 85.301	 28.55768	 14.91029	 13.14497	 25.23437	  4.55527	 -0.91837	 30.44356	707.18903	 24.90	
 12.013	 66.294	 28.55709	 18.34679	  9.54798	 24.23137	  5.30369	 -0.78711	 30.44334	707.15399	 24.90	
 12.012	 47.388	 28.56881	 21.61770	  6.90634	 22.05328	  7.01765	 -0.76215	 30.46000	707.30402	 24.90	
 11.990	 28.440	 28.52475	 23.94199	  5.05146	 18.97853	  9.37831	 -0.88539	 30.44237	707.28900	 24.90	
 11.991	  9.464	 28.49506	 25.22890	  4.10525	 15.49329	 12.68418	 -0.90973	 30.43426	707.38202	 24.90	
 11.991	 -9.464	 28.51427	 25.23020	  4.08469	 11.87113	 16.27300	 -0.89054	 30.47244	707.17902	 24.90	
 11.990	-28.440	 28.43449	 23.87123	  5.07303	  8.48810	 19.66884	 -0.91581	 30.43974	707.20203	 24.90	
 12.012	-47.388	 28.41425	 21.44216	  6.94673	  6.02610	 22.72233	 -0.98097	 30.46967	707.12903	 24.90	
 12.013	-66.294	 28.37299	 18.18871	  9.53442	  4.37411	 24.83659	 -1.05565	 30.44971	707.25800	 24.90	
 11.989	-85.301	 28.39594	 14.63598	 13.05371	  3.62834	 25.74559	 -1.04540	 30.44986	707.30603	 24.90	
 12.007	-104.200	 28.39314	 11.05577	 16.58939	  3.91672	 25.43693	 -1.00278	 30.44074	707.24799	 24.90	
 12.006	-123.113	 28.38798	  7.73126	 20.01347	  5.10726	 23.88189	 -0.84788	 30.42228	707.33099	 24.90	
 12.013	-142.081	 28.45656	  5.48579	 22.96872	  7.21151	 21.34656	 -0.83698	 30.47223	707.28998	 24.90	
 12.009	-161.059	 28.45787	  4.10434	 24.83328	 10.13412	 18.01174	 -0.90039	 30.45097	707.24799	 24.90	
 16.000	180.000	 26.66983	 -0.58594	 27.69831	 12.07656	 12.90243	 -1.37954	 30.46049	707.26202	 24.90	
 15.990	-165.604	 26.61716	 -0.14871	 27.14534	  8.58984	 16.42277	 -1.38301	 30.42502	707.33398	 24.90	
 16.002	-151.165	 26.60014	  0.83480	 25.70029	  5.55973	 19.90522	 -1.36574	 30.46862	707.24200	 24.90	
 16.002	-136.836	 26.52797	  2.43912	 23.28524	  3.05615	 23.00802	 -1.26212	 30.44048	707.16803	 24.90	
 15.995	-122.439	 26.55233	  4.82225	 20.22570	  1.22647	 25.50215	 -1.26159	 30.46796	707.28101	 24.90	
 15.993	-107.966	 26.49904	  7.58124	 16.70098	  0.07910	 27.12211	 -1.26903	 30.41794	707.32300	 24.90	
 16.005	-93.629	 26.46011	 11.02398	 13.13174	 -0.54245	 27.85567	 -1.17794	 30.41324	707.39099	 24.90	
 15.992	-79.234	 26.44445	 14.74471	  9.57049	 -0.33001	 27.63206	 -1.09322	 30.41705	707.31403	 24.90	
 16.009	-64.774	 26.49698	 18.28045	  6.55751	  0.49121	 26.52757	 -1.12799	 30.49253	707.40802	 24.90	
 15.997	-50.364	 26.49657	 21.63493	  3.91534	  1.93481	 24.40030	 -1.17957	 30.46325	707.33502	 24.90	
 15.997	-36.045	 26.49428	 24.41138	  1.80880	  4.14931	 21.49780	 -1.18509	 30.41743	707.21899	 24.90	
 16.000	-21.597	 26.58359	 26.43986	  0.54445	  6.92128	 18.14128	 -1.17624	 30.45489	707.31403	 24.90	
 16.003	 -7.169	 26.62632	 27.47197	 -0.06386	 10.18922	 14.66176	 -1.18630	 30.45030	707.25897	 24.90	
 16.003	  7.169	 26.61361	 27.48927	 -0.09794	 13.81018	 10.92342	 -1.14749	 30.41261	707.28601	 24.90	
 16.000	 21.597	 26.62801	 26.56127	  0.47155	 17.37068	  7.83431	 -1.17582	 30.43066	707.30298	 24.90	
 15.997	 36.045	 26.71458	 24.69617	  1.78179	 20.85474	  5.14811	 -1.23736	 30.47638	707.21899	 24.90	
 15.997	 50.364	 26.69080	 21.90868	  3.89018	 23.79934	  2.90652	 -1.16390	 30.45631	707.18201	 24.90	
 16.009	 64.774	 26.73160	 18.63755	  6.59897	 26.00718	  1.39177	 -1.17322	 30.49258	707.14899	 24.90	
 15.992	 79.234	 26.72995	 15.09159	  9.62815	 27.27135	  0.53645	 -1.29300	 30.48643	707.28101	 24.90	
 16.005	 93.629	 26.69879	 11.28374	 13.31229	 27.51003	  0.34607	 -1.34028	 30.45311	707.25000	 24.90	
 15.993	107.966	 26.74120	  7.97190	 16.87980	 26.76369	  0.91234	 -1.34407	 30.45186	707.20502	 24.90	
 15.995	122.439	 26.76094	  5.00294	 20.36949	 25.07571	  2.05264	 -1.36340	 30.46079	707.26202	 24.80	
 16.002	136.836	 26.73089	  2.54260	 23.44331	 22.49116	  3.94962	 -1.32824	 30.44958	707.18500	 24.90	
 16.002	151.165	 26.71647	  0.90403	 25.77110	 19.27637	  6.42588	 -1.30056	 30.42803	707.22699	 24.90	
 15.990	165.604	 26.66973	 -0.16800	 27.19007	 15.73055	  9.37041	 -1.33494	 30.40812	707.11298	 24.90	
 20.003	168.362	 24.25800	 -4.32298	 28.91702	 13.69832	  7.50612	 -1.46214	 30.42924	707.18597	 24.90	
 20.008	156.764	 24.33231	 -3.65788	 27.84728	 17.25247	  4.55629	 -1.49580	 30.47844	707.67297	 24.90	
 20.000	145.147	 24.31114	 -2.19381	 25.91268	 20.67000	  1.95506	 -1.45588	 30.42662	707.12598	 24.90	
 19.995	133.545	 24.35863	 -0.48344	 23.33860	 23.73899	 -0.21203	 -1.39010	 30.44675	707.25800	 24.90	
 20.009	121.926	 24.35807	  1.84247	 20.11955	 26.28262	 -1.81724	 -1.31251	 30.47042	707.16498	 24.90	
 20.005	110.327	 24.31839	  4.56418	 16.65904	 27.98254	 -2.92354	 -1.12483	 30.43059	707.26398	 24.90	
 19.989	 98.733	 24.35300	  7.67964	 13.03493	 28.96489	 -3.42511	 -1.05969	 30.47718	707.31500	 24.90	
 19.999	 87.075	 24.30659	 11.07464	  9.47781	 29.11221	 -3.59050	 -1.11539	 30.44013	707.22498	 24.90	
 19.992	 75.457	 24.30466	 14.86819	  6.30362	 28.51884	 -3.23979	 -1.26137	 30.44806	707.15997	 24.90	
 20.009	 63.844	 24.29215	 18.32701	  3.20098	 27.12135	 -2.41528	 -1.35089	 30.45359	707.16498	 24.90	
 19.989	 52.269	 24.30617	 21.68525	  0.77291	 24.96300	 -1.14973	 -1.28048	 30.47693	707.19299	 24.90	
 19.999	 40.602	 24.31218	 24.63756	 -1.34227	 22.11361	  0.85654	 -1.17628	 30.46889	707.17700	 24.90	
 20.004	 29.051	 24.30100	 26.95845	 -2.65720	 18.82346	  3.25197	 -1.02049	 30.48428	707.13702	 24.90	
 20.005	 17.433	 24.23943	 28.46836	 -3.63045	 15.33635	  6.02718	 -0.93102	 30.47663	707.13098	 24.90	
 20.006	  5.780	 24.21642	 29.14445	 -4.03305	 11.68711	  9.12458	 -0.94105	 30.44650	707.27197	 24.90	
 20.006	 -5.780	 24.23867	 29.14876	 -4.02525	  8.27434	 12.50440	 -0.98329	 30.48973	707.13800	 24.90	
 20.005	-17.433	 24.16170	 28.29600	 -3.62950	  5.10243	 16.16990	 -1.00356	 30.45602	707.21698	 24.90	
 20.004	-29.051	 24.11505	 26.68108	 -2.68674	  2.23666	 19.57099	 -0.98178	 30.46498	707.28900	 24.90	
 19.999	-40.602	 24.07929	 24.33800	 -1.33015	 -0.09850	 22.74655	 -0.98277	 30.44192	707.29602	 24.90	
 19.989	-52.269	 24.09052	 21.39176	  0.75477	 -1.82966	 25.48137	 -0.93452	 30.45985	707.16498	 24.90	
 20.009	-63.844	 24.06223	 18.03487	  3.21144	 -3.13924	 27.48993	 -0.86940	 30.42888	707.25598	 24.90	
 19.992	-75.457	 24.08845	 14.47056	  6.23847	 -4.13288	 28.85471	 -0.87391	 30.47190	707.28900	 24.90	
 19.999	-87.075	 24.14219	 10.75914	  9.40785	 -4.52888	 29.39395	 -0.93343	 30.48339	707.29303	 24.80	
 19.989	-98.733	 24.17215	  7.36959	 12.90126	 -4.42715	 29.22092	 -1.00500	 30.50986	707.21698	 24.80	
 20.005	-110.327	 24.14816	  4.29945	 16.55308	 -3.84965	 28.25098	 -1.18042	 30.47268	707.98798	 24.80	
 20.009	-121.926	 24.15847	  1.57828	 19.97554	 -2.51468	 26.53890	 -1.37417	 30.46608	707.24799	 24.80	
 19.995	-133.545	 24.20251	 -0.59457	 23.11032	 -1.01684	 24.18029	 -1.43158	 30.50031	707.17999	 24.80	
 20.000	-145.147	 24.19827	 -2.31960	 25.73720	  1.04081	 21.20570	 -1.43347	 30.48271	707.23602	 24.80	
 20.008	-156.764	 24.17371	 -3.52523	 27.69280	  3.79278	 17.75846	 -1.32094	 30.46901	707.26501	 24.80	
 20.003	-168.362	 24.23998	 -4.39633	 28.92557	  6.82339	 14.32157	 -1.30943	 30.51107	707.23602	 24.80	
 20.000	180.000	 24.26754	 -4.57942	 29.28466	 10.02736	 10.74820	 -1.40573	 30.46887	707.10999	 24.80	
