FileType=PCF
NHL=14
Date=08/31/17	09:55:23
Facility=APL
Serial=16328-11
Customer=NASA
NP=6
Mach=0.250000
Calibration=1:1
CalPts=490
TstPts=95
PortNumbering=AP Standard
Units=Torr C m/s kg/m^3 deg mm 
Theta[deg]	Phi[deg]	P1[Torr]	P2[Torr]	P3[Torr]	P4[Torr]	P5[Torr]	P6[Torr]	Pt[Torr]	Ps[Abs,Torr]	Ts[C]	
  0.000	  0.000	 30.10031	 15.82567	 16.22671	 15.74156	 16.41312	  0.20596	 30.07822	706.51898	 24.70	
  1.691	128.401	 30.11636	 14.87725	 17.22701	 16.92327	 15.12203	  0.20164	 30.10423	706.43701	 24.70	
  1.692	 77.194	 30.09765	 16.14703	 15.92187	 17.20037	 14.83219	  0.20017	 30.07996	706.58002	 24.70	
  1.699	 26.182	 30.12044	 17.14618	 14.84909	 16.40260	 15.68602	  0.19833	 30.10136	706.63702	 24.70	
  1.699	-26.182	 30.10046	 17.13260	 14.75087	 15.01087	 17.09521	  0.18284	 30.08881	706.46301	 24.70	
  1.692	-77.194	 30.09054	 16.06433	 15.77286	 14.21216	 17.87062	  0.17874	 30.07729	706.58301	 24.70	
  1.691	-128.401	 30.09834	 14.79851	 17.09169	 14.49222	 17.59087	  0.19131	 30.08700	706.57703	 24.70	
  1.700	180.000	 30.08889	 14.23678	 17.77479	 15.68074	 16.34354	  0.19872	 30.07621	706.57397	 24.70	
  3.400	180.000	 30.03002	 12.56770	 19.21874	 15.56537	 16.17885	  0.14757	 30.07065	706.50800	 24.70	
  3.388	-152.325	 30.01120	 12.85141	 18.78178	 14.13951	 17.63067	  0.12893	 30.06121	706.52698	 24.60	
  3.397	-124.529	 30.00248	 13.75938	 17.72101	 12.93145	 18.75753	  0.11997	 30.06992	706.56299	 24.60	
  3.399	-96.763	 29.97708	 15.17766	 16.27238	 12.40164	 19.27114	  0.09793	 30.04780	706.58899	 24.60	
  3.394	-69.283	 29.99794	 16.61548	 14.85706	 12.61056	 19.10261	  0.09478	 30.06077	706.51801	 24.60	
  3.400	-41.398	 30.00175	 17.79593	 13.65559	 13.42685	 18.28776	  0.09889	 30.05853	706.57703	 24.60	
  3.401	-14.021	 30.04925	 18.58930	 13.06041	 14.79040	 17.02852	  0.11329	 30.09209	706.63397	 24.60	
  3.401	 14.021	 30.02537	 18.59145	 13.12744	 16.26850	 15.48601	  0.12736	 30.04160	706.59802	 24.60	
  3.400	 41.398	 30.04243	 17.92058	 13.83567	 17.59579	 14.14977	  0.14294	 30.05080	706.58002	 24.60	
  3.394	 69.283	 30.04020	 16.77095	 15.08579	 18.44750	 13.33605	  0.15149	 30.04226	706.59497	 24.60	
  3.399	 96.763	 30.03152	 15.36659	 16.51891	 18.64346	 13.12534	  0.15102	 30.03613	706.64502	 24.60	
  3.397	124.529	 30.03710	 13.89302	 17.90957	 18.12003	 13.59297	  0.14940	 30.04278	706.73199	 24.60	
  3.388	152.325	 30.03695	 12.95739	 18.88100	 17.01162	 14.67597	  0.14487	 30.05638	706.74402	 24.60	
  5.099	161.165	 29.90543	 11.16478	 20.36969	 16.87494	 14.39684	  0.04866	 30.05998	706.67798	 24.60	
  5.109	142.013	 29.90647	 11.88194	 19.68292	 18.20781	 13.09722	  0.02716	 30.04249	706.63397	 24.60	
  5.095	123.033	 29.96751	 13.00819	 18.59721	 19.20453	 12.20603	  0.05145	 30.08862	706.74701	 24.60	
  5.105	104.191	 29.97664	 14.44987	 17.18294	 19.85195	 11.65542	  0.04704	 30.08476	706.71802	 24.60	
  5.093	 85.207	 29.93969	 15.93368	 15.65191	 19.93509	 11.58375	  0.04827	 30.03830	706.70502	 24.60	
  5.104	 66.290	 29.96470	 17.38971	 14.20762	 19.55233	 11.93825	  0.05201	 30.07925	706.66803	 24.60	
  5.094	 47.331	 29.96198	 18.65184	 12.91394	 18.66482	 12.70823	  0.05379	 30.08562	706.62000	 24.60	
  5.089	 28.397	 29.90152	 19.56391	 11.95970	 17.49831	 13.81596	  0.04216	 30.04106	706.61200	 24.60	
  5.096	  9.576	 29.90854	 20.08743	 11.40415	 16.11436	 15.26352	  0.02781	 30.07380	706.63397	 24.60	
  5.096	 -9.576	 29.86978	 20.03014	 11.33219	 14.56809	 16.83542	  0.01077	 30.06071	706.62598	 24.60	
  5.089	-28.397	 29.87029	 19.47861	 11.76550	 13.07848	 18.25285	 -0.00763	 30.08166	706.74103	 24.60	
  5.094	-47.331	 29.84714	 18.43267	 12.62800	 11.89089	 19.32832	 -0.06855	 30.07502	706.76099	 24.50	
  5.104	-66.290	 29.81978	 17.12354	 13.81910	 11.06528	 20.23402	 -0.06916	 30.06626	706.69000	 24.50	
  5.093	-85.207	 29.76872	 15.67441	 15.21905	 10.70930	 20.54518	 -0.04149	 30.01704	706.61200	 24.50	
  5.105	-104.191	 29.80494	 14.16756	 16.81492	 10.81549	 20.42624	 -0.07518	 30.06229	706.59100	 24.50	
  5.095	-123.033	 29.82919	 12.78627	 18.25198	 11.43764	 19.78651	  0.01137	 30.07524	706.66498	 24.50	
  5.109	-142.013	 29.85222	 11.74218	 19.48718	 12.45650	 18.82571	  0.02079	 30.09142	706.71600	 24.50	
  5.099	-161.165	 29.83523	 11.08086	 20.27168	 13.77079	 17.42806	  0.03857	 30.05498	706.79999	 24.50	
  5.100	180.000	 29.85076	 10.89071	 20.55312	 15.35478	 15.92555	  0.02595	 30.03641	706.69000	 24.50	
  6.800	180.000	 29.58764	  9.06906	 21.89347	 15.04496	 15.60112	 -0.18267	 30.02998	706.79498	 24.50	
  6.796	-166.229	 29.60198	  9.22148	 21.69997	 13.51478	 17.10957	 -0.18033	 30.07541	706.84698	 24.50	
  6.808	-152.311	 29.51273	  9.62949	 21.06692	 12.09035	 18.51293	 -0.19866	 30.03315	706.64502	 24.50	
  6.795	-138.383	 29.50716	 10.43435	 20.14741	 10.88808	 19.67556	 -0.17502	 30.05251	706.71600	 24.50	
  6.792	-124.591	 29.49541	 11.48387	 18.92769	  9.90818	 20.72994	 -0.22353	 30.04762	706.60602	 24.50	
  6.787	-110.754	 29.48337	 12.72924	 17.52503	  9.24717	 21.46269	 -0.26197	 30.04491	706.72601	 24.50	
  6.800	-96.985	 29.51088	 14.10884	 16.06801	  8.89824	 21.85828	 -0.30426	 30.07103	706.79498	 24.50	
  6.800	-83.015	 29.50737	 15.71130	 14.51888	  8.89424	 21.87560	 -0.29062	 30.06041	706.61603	 24.50	
  6.787	-69.246	 29.52567	 17.06311	 13.14635	  9.24266	 21.55385	 -0.32001	 30.07493	706.84198	 24.50	
  6.792	-55.409	 29.51125	 18.42759	 11.88129	  9.89420	 20.82905	 -0.29785	 30.03891	706.74902	 24.50	
  6.795	-41.617	 29.55122	 19.66291	 10.89471	 10.88087	 19.78758	 -0.28424	 30.06846	706.71301	 24.50	
  6.808	-27.689	 29.54666	 20.57758	 10.13391	 12.08995	 18.63100	 -0.24496	 30.03717	706.69299	 24.50	
  6.796	-13.771	 29.55842	 21.14414	  9.71786	 13.45619	 17.23845	 -0.21394	 30.01590	706.84003	 24.50	
  6.800	  0.000	 29.61307	 21.40476	  9.60401	 15.02132	 15.78377	 -0.21220	 30.05495	706.76898	 24.50	
  6.796	 13.771	 29.65223	 21.27249	  9.83295	 16.50345	 14.28005	 -0.17639	 30.05131	706.63397	 24.50	
  6.808	 27.689	 29.66800	 20.78323	 10.37085	 17.91256	 12.91468	 -0.17780	 30.04727	706.72101	 24.50	
  6.795	 41.617	 29.68650	 19.94175	 11.19944	 19.06927	 11.77862	 -0.09910	 30.04328	706.76099	 24.50	
  6.792	 55.409	 29.70532	 18.78555	 12.28471	 20.13840	 10.83538	 -0.13810	 30.04422	706.61603	 24.50	
  6.787	 69.246	 29.72809	 17.46321	 13.62399	 20.88495	 10.16479	 -0.13899	 30.04885	706.67297	 24.50	
  6.800	 83.015	 29.73503	 16.06642	 15.04128	 21.28948	  9.77537	 -0.17750	 30.04945	706.77802	 24.50	
  6.800	 96.985	 29.72138	 14.58401	 16.53486	 21.29956	  9.74151	 -0.11790	 30.04068	706.79102	 24.50	
  6.787	110.754	 29.72889	 13.12071	 17.97770	 20.92525	 10.09730	 -0.16414	 30.06128	706.74402	 24.50	
  6.792	124.591	 29.69968	 11.84339	 19.27656	 20.18322	 10.73515	 -0.19030	 30.03225	706.71802	 24.50	
  6.795	138.383	 29.66953	 10.71243	 20.39138	 19.10715	 11.66236	 -0.17034	 30.02274	706.89301	 24.50	
  6.808	152.311	 29.65554	  9.82829	 21.26723	 17.92841	 12.78877	 -0.15382	 30.02883	706.79401	 24.50	
  6.796	166.229	 29.60400	  9.29656	 21.73650	 16.50488	 14.06647	 -0.16953	 30.01640	706.83600	 24.50	
  8.491	168.704	 29.27145	  7.24673	 23.02779	 16.25811	 13.66047	 -0.39210	 30.04318	706.81702	 24.50	
  8.502	157.493	 29.29143	  7.74173	 22.62680	 17.68928	 12.30993	 -0.36758	 30.02472	706.79199	 24.50	
  8.494	146.194	 29.33330	  8.54882	 21.94819	 18.91274	 11.07967	 -0.36945	 30.04592	706.79401	 24.50	
  8.495	135.039	 29.36650	  9.52200	 20.98975	 20.18976	  9.95684	 -0.39642	 30.05125	706.78601	 24.50	
  8.487	123.723	 29.34575	 10.65762	 19.77134	 21.20490	  8.99706	 -0.42267	 30.02814	706.75702	 24.50	
  8.492	112.575	 29.41387	 12.00614	 18.46379	 21.96605	  8.36946	 -0.43140	 30.07640	706.70502	 24.50	
  8.510	101.220	 29.36170	 13.41995	 16.95939	 22.38325	  7.94466	 -0.43430	 30.01138	706.82800	 24.50	
  8.500	 90.000	 29.40970	 14.99825	 15.49370	 22.56410	  7.80185	 -0.42061	 30.04288	706.68701	 24.50	
  8.510	 78.780	 29.38489	 16.48133	 13.98224	 22.36774	  7.95573	 -0.40070	 30.01761	706.81097	 24.50	
  8.492	 67.425	 29.38925	 17.86874	 12.56441	 21.87903	  8.41488	 -0.35432	 30.02916	706.79199	 24.50	
  8.487	 56.277	 29.36048	 19.23897	 11.25612	 21.16784	  9.08235	 -0.34894	 30.02524	706.65302	 24.50	
  8.495	 44.961	 29.36172	 20.46543	 10.12699	 20.13398	 10.06702	 -0.37608	 30.04019	706.71301	 24.50	
  8.494	 33.806	 29.31547	 21.40210	  9.17278	 18.88248	 11.20027	 -0.38938	 30.02303	706.88501	 24.50	
  8.502	 22.507	 29.30575	 22.14943	  8.50234	 17.63530	 12.48081	 -0.40646	 30.04334	706.86401	 24.50	
  8.491	 11.296	 29.25338	 22.57827	  8.01664	 16.20416	 13.81194	 -0.43366	 30.02682	706.64301	 24.50	
  8.500	  0.000	 29.28737	 22.73858	  7.80307	 14.65835	 15.44706	 -0.44266	 30.10411	706.77100	 24.50	
  8.491	-11.296	 29.21214	 22.48427	  7.87684	 13.02923	 16.96567	 -0.44808	 30.04001	706.78003	 24.50	
  8.502	-22.507	 29.20036	 21.97457	  8.20736	 11.62801	 18.38253	 -0.45436	 30.06285	706.68103	 24.50	
  8.494	-33.806	 29.15220	 21.15632	  8.77618	 10.27497	 19.62974	 -0.49270	 30.04844	706.76398	 24.50	
  8.495	-44.961	 29.12505	 20.13356	  9.61166	  9.11061	 20.88351	 -0.54332	 30.05431	706.71002	 24.50	
  8.487	-56.277	 29.09851	 18.84755	 10.68155	  8.19670	 21.81604	 -0.57611	 30.03500	706.72302	 24.50	
  8.492	-67.425	 29.10328	 17.48995	 11.94571	  7.48770	 22.54986	 -0.59139	 30.05106	706.78802	 24.50	
  8.510	-78.780	 29.09217	 16.01583	 13.37010	  6.97416	 23.01253	 -0.60663	 30.05944	706.76001	 24.50	
  8.500	-90.000	 29.06797	 14.51309	 14.86794	  6.82645	 23.13138	 -0.58412	 30.04496	706.80298	 24.50	
  8.510	-101.220	 29.07691	 12.98970	 16.41323	  6.98849	 22.95517	 -0.54319	 30.04982	706.91302	 24.50	
  8.492	-112.575	 29.08090	 11.57390	 17.93539	  7.38375	 22.45313	 -0.48683	 30.04994	706.90900	 24.50	
  8.487	-123.723	 29.08876	 10.30813	 19.31138	  8.11950	 21.70210	 -0.44770	 30.04709	706.78302	 24.50	
  8.495	-135.039	 29.10303	  9.13350	 20.60472	  9.12292	 20.72636	 -0.44101	 30.06007	706.93799	 24.50	
  8.494	-146.194	 29.13702	  8.25913	 21.66278	 10.29297	 19.47692	 -0.42699	 30.06540	706.87299	 24.40	
  8.502	-157.493	 29.15215	  7.62338	 22.45245	 11.62990	 18.22467	 -0.40939	 30.04882	706.88702	 24.50	
  8.491	-168.704	 29.14769	  7.22735	 22.90862	 13.02235	 16.75550	 -0.40581	 30.00659	706.91803	 24.40	
  8.500	180.000	 29.23389	  6.99169	 23.16508	 14.69132	 15.23563	 -0.40686	 30.04893	706.84698	 24.40	
 10.200	180.000	 28.75275	  5.26376	 24.31351	 14.13361	 14.75061	 -0.65589	 30.04378	706.88501	 24.40	
 10.191	-170.497	 28.71393	  5.36807	 24.13589	 12.59205	 16.33600	 -0.66507	 30.04986	706.92102	 24.50	
 10.210	-161.034	 28.65543	  5.61847	 23.71375	 11.10908	 17.83982	 -0.65047	 30.04269	706.87799	 24.50	
 10.194	-151.526	 28.60494	  6.07478	 23.01578	  9.67970	 19.22919	 -0.66803	 30.03621	706.91302	 24.50	
 10.190	-142.105	 28.58206	  6.75317	 22.09144	  8.30389	 20.46231	 -0.66660	 30.04884	706.80298	 24.50	
 10.215	-132.646	 28.53743	  7.71559	 20.97141	  7.13828	 21.64341	 -0.66267	 30.03726	706.84003	 24.50	
 10.203	-123.092	 28.53687	  8.93624	 19.67104	  6.26816	 22.65335	 -0.67076	 30.04743	706.72998	 24.40	
 10.192	-113.678	 28.51398	 10.27843	 18.22218	  5.61944	 23.43462	 -0.72215	 30.02525	706.82599	 24.40	
 10.208	-104.249	 28.53024	 11.70979	 16.70983	  5.17654	 24.02395	 -0.80301	 30.05128	706.75702	 24.40	
 10.210	-94.801	 28.49624	 13.17872	 15.13075	  4.93440	 24.29769	 -0.85661	 30.02327	706.76801	 24.40	
 10.210	-85.199	 28.53178	 14.72671	 13.58510	  4.92784	 24.35588	 -0.87497	 30.05168	706.82300	 24.40	
 10.208	-75.751	 28.51743	 16.27964	 12.08613	  5.16137	 24.07078	 -0.87925	 30.02289	706.79999	 24.40	
 10.192	-66.322	 28.54311	 17.71782	 10.70579	  5.62451	 23.54659	 -0.86528	 30.02778	706.84698	 24.40	
 10.203	-56.908	 28.59461	 19.16149	  9.46207	  6.26176	 22.83848	 -0.83033	 30.06219	706.87000	 24.40	
 10.215	-47.354	 28.59763	 20.49893	  8.31357	  7.10926	 21.82615	 -0.80166	 30.04258	706.86401	 24.40	
 10.190	-37.895	 28.57498	 21.56837	  7.40891	  8.38612	 20.64081	 -0.74807	 29.98881	706.77698	 24.40	
 10.194	-28.474	 28.70033	 22.59323	  6.73492	  9.69926	 19.43918	 -0.70198	 30.08292	706.83301	 24.40	
 10.210	-18.966	 28.69674	 23.29399	  6.22941	 11.08658	 18.01834	 -0.68460	 30.05132	706.79498	 24.40	
 10.191	 -9.503	 28.72498	 23.74237	  5.96391	 12.55516	 16.53662	 -0.69086	 30.03674	706.79999	 24.40	
 10.200	  0.000	 28.75502	 23.91139	  5.90583	 14.05031	 14.99949	 -0.69850	 30.03628	706.82599	 24.40	
 10.191	  9.503	 28.76038	 23.81837	  6.09457	 15.76310	 13.38730	 -0.69316	 30.01080	706.80798	 24.40	
 10.210	 18.966	 28.79358	 23.45377	  6.50111	 17.25198	 11.96496	 -0.68098	 30.01769	706.96802	 24.40	
 10.194	 28.474	 28.81688	 22.82605	  7.09251	 18.65389	 10.59427	 -0.64564	 30.01242	706.98798	 24.40	
 10.190	 37.895	 28.87799	 21.99046	  7.90292	 19.92345	  9.12026	 -0.62475	 30.04819	706.85400	 24.40	
 10.215	 47.354	 28.90849	 20.93799	  8.90483	 21.14246	  8.02510	 -0.60443	 30.06595	706.77100	 24.40	
 10.203	 56.908	 28.92141	 19.69166	 10.09117	 22.09433	  7.20576	 -0.57270	 30.03792	706.90399	 24.40	
 10.192	 66.322	 28.96587	 18.32556	 11.39308	 22.91472	  6.54226	 -0.58452	 30.07146	706.76300	 24.40	
 10.208	 75.751	 28.94289	 16.87578	 12.79605	 23.45073	  6.04739	 -0.64374	 30.03304	706.91998	 24.40	
 10.210	 85.199	 28.93107	 15.38015	 14.25832	 23.76063	  5.74974	 -0.69812	 30.02880	706.90100	 24.40	
 10.210	 94.801	 28.94797	 13.80312	 15.81544	 23.77923	  5.78284	 -0.72441	 30.03839	706.85901	 24.40	
 10.208	104.249	 28.89239	 12.29297	 17.28959	 23.50009	  5.92756	 -0.73615	 29.99659	706.77698	 24.40	
 10.192	113.678	 28.94675	 10.85460	 18.81373	 22.98840	  6.42919	 -0.71351	 30.06509	706.74902	 24.40	
 10.203	123.092	 28.89566	  9.47869	 20.10605	 22.19151	  7.05006	 -0.68511	 30.01981	706.90900	 24.40	
 10.215	132.646	 28.88568	  8.20186	 21.38281	 21.19775	  7.91867	 -0.65206	 30.02650	706.87799	 24.40	
 10.190	142.105	 28.87374	  7.10747	 22.43704	 20.00354	  9.16616	 -0.62366	 30.03247	706.80603	 24.40	
 10.194	151.526	 28.83801	  6.33564	 23.22915	 18.71875	 10.47632	 -0.60165	 30.01044	706.85797	 24.40	
 10.210	161.034	 28.84448	  5.73507	 23.88771	 17.32744	 11.82923	 -0.61580	 30.04916	706.94598	 24.40	
 10.191	170.497	 28.79257	  5.37775	 24.21640	 15.85198	 13.19107	 -0.64262	 30.04324	706.90100	 24.40	
 11.899	171.783	 28.23373	  3.56143	 25.31489	 15.34217	 12.66807	 -0.88416	 30.06025	707.03003	 24.40	
 11.890	163.610	 28.25020	  3.86421	 24.99331	 16.84370	 11.24825	 -0.84827	 30.03690	706.89301	 24.40	
 11.889	155.445	 28.29022	  4.38076	 24.47649	 18.26994	  9.83884	 -0.81420	 30.03195	706.90997	 24.40	
 11.909	147.299	 28.30042	  4.99213	 23.77004	 19.63671	  8.29090	 -0.82969	 30.04541	706.91302	 24.40	
 11.902	139.148	 28.30177	  5.84105	 22.81432	 20.91472	  7.12561	 -0.86369	 30.02388	706.95398	 24.40	
 11.894	130.867	 28.37369	  6.90317	 21.74433	 22.08670	  6.09790	 -0.90049	 30.06152	706.89600	 24.40	
 11.897	122.732	 28.34817	  8.16296	 20.48213	 23.07685	  5.30795	 -0.93437	 30.03323	706.93402	 24.50	
 11.903	114.597	 28.37105	  9.55238	 19.13111	 23.90024	  4.67199	 -0.97134	 30.05123	706.88501	 24.50	
 11.893	106.346	 28.35666	 11.05345	 17.62440	 24.45400	  4.27196	 -1.00013	 30.02105	706.98901	 24.50	
 11.892	 98.155	 28.37062	 12.57427	 16.11472	 24.81649	  4.04669	 -1.00171	 30.02606	706.89502	 24.50	
 11.900	 90.000	 28.36331	 14.05898	 14.58075	 24.94685	  3.98309	 -0.98778	 30.01995	706.93500	 24.50	
 11.892	 81.845	 28.37768	 15.64854	 13.08479	 24.78212	  4.11919	 -0.93713	 30.03015	706.94598	 24.50	
 11.893	 73.654	 28.37055	 17.11535	 11.61992	 24.38618	  4.43250	 -0.86880	 30.01898	707.00500	 24.40	
 11.903	 65.403	 28.39305	 18.63711	 10.19737	 23.82481	  4.84629	 -0.79686	 30.05304	707.11499	 24.40	
 11.897	 57.268	 28.34671	 20.00280	  8.93835	 22.93989	  5.44211	 -0.77484	 30.00528	707.04700	 24.40	
 11.894	 49.133	 28.37801	 21.27783	  7.79954	 21.97163	  6.30611	 -0.80115	 30.06529	707.09802	 24.40	
 11.902	 40.852	 28.33187	 22.41491	  6.71146	 20.82374	  7.36704	 -0.85346	 30.04552	707.15198	 24.40	
 11.909	 32.701	 28.28986	 23.36312	  5.81156	 19.53323	  8.49053	 -0.87751	 30.04518	706.90601	 24.40	
 11.889	 24.555	 28.23192	 24.09427	  5.11686	 18.20738	  9.76443	 -0.90346	 30.01985	707.02197	 24.40	
 11.890	 16.390	 28.21174	 24.63070	  4.59592	 16.75810	 11.43042	 -0.92050	 30.01274	707.04401	 24.40	
 11.899	  8.217	 28.20599	 24.95908	  4.26458	 15.24935	 12.89924	 -0.93494	 30.04040	707.14099	 24.40	
 11.900	  0.000	 28.14203	 25.02517	  4.07077	 13.52735	 14.41841	 -0.92344	 30.02291	707.14899	 24.40	
 11.899	 -8.217	 28.10725	 24.86236	  4.11128	 11.97892	 16.02287	 -0.90806	 30.02361	707.24200	 24.40	
 11.890	-16.390	 28.08416	 24.43802	  4.37121	 10.49350	 17.56510	 -0.89142	 30.01921	707.11499	 24.40	
 11.889	-24.555	 28.04746	 23.82904	  4.76076	  9.05050	 18.97381	 -0.88536	 30.02912	707.13098	 24.40	
 11.909	-32.701	 28.00248	 22.98468	  5.29726	  7.51685	 20.28702	 -0.91374	 30.02590	707.13202	 24.40	
 11.902	-40.852	 27.97705	 21.93684	  6.07512	  6.37419	 21.55772	 -0.95971	 30.02002	707.08600	 24.40	
 11.894	-49.133	 28.00034	 20.75660	  7.05820	  5.43484	 22.72962	 -0.99472	 30.06292	707.03699	 24.40	
 11.897	-57.268	 27.94125	 19.42129	  8.12869	  4.60854	 23.67660	 -1.04243	 30.02425	706.92102	 24.40	
 11.903	-65.403	 27.89957	 17.93010	  9.40102	  3.94189	 24.43761	 -1.07335	 30.01052	707.05298	 24.40	
 11.893	-73.654	 27.88808	 16.42805	 10.78116	  3.45873	 24.99012	 -1.08543	 30.01272	707.02301	 24.40	
 11.892	-81.845	 27.89117	 14.93575	 12.26549	  3.17550	 25.32963	 -1.08719	 30.03071	707.11499	 24.40	
 11.900	-90.000	 27.88751	 13.38707	 13.78833	  3.09000	 25.45206	 -1.08491	 30.03158	707.04700	 24.40	
 11.892	-98.155	 27.91045	 11.90009	 15.37292	  3.20590	 25.32185	 -1.07672	 30.05280	707.12598	 24.40	
 11.893	-106.346	 27.89190	 10.36383	 16.92600	  3.48554	 24.91510	 -1.02577	 30.04890	707.02301	 24.40	
 11.903	-114.597	 27.84451	  8.89735	 18.41859	  3.92404	 24.29285	 -0.93358	 30.00709	707.17200	 24.40	
 11.897	-122.732	 27.86671	  7.49526	 19.86776	  4.60826	 23.48611	 -0.88628	 30.01545	707.13098	 24.40	
 11.894	-130.867	 27.90450	  6.40290	 21.19981	  5.45889	 22.48586	 -0.87357	 30.03001	707.00800	 24.40	
 11.902	-139.148	 27.94473	  5.50232	 22.42871	  6.46801	 21.32943	 -0.89429	 30.04757	706.92401	 24.40	
 11.909	-147.299	 27.95424	  4.74491	 23.39211	  7.58812	 20.02839	 -0.91525	 30.01707	706.97400	 24.40	
 11.889	-155.445	 27.99935	  4.14557	 24.23114	  8.90981	 18.75943	 -0.92451	 30.03260	707.13800	 24.40	
 11.890	-163.610	 28.02585	  3.75056	 24.82182	 10.50441	 17.29155	 -0.92899	 30.01110	707.18500	 24.40	
 11.899	-171.783	 28.09442	  3.50833	 25.22620	 12.04016	 15.76297	 -0.92958	 30.03904	706.94897	 24.40	
 11.900	180.000	 28.09751	  3.41323	 25.34300	 13.56394	 14.18912	 -0.91340	 29.99574	707.04999	 24.40	
 13.600	180.000	 27.44497	  1.56480	 26.35017	 12.97923	 13.50891	 -1.14775	 30.03795	707.02197	 24.40	
 13.608	-172.853	 27.39168	  1.64494	 26.22089	 11.39915	 15.11472	 -1.16894	 30.04059	707.09198	 24.40	
 13.611	-165.583	 27.30760	  1.88090	 25.86164	  9.71405	 16.66572	 -1.16585	 30.01160	707.04199	 24.40	
 13.601	-158.353	 27.25538	  2.23192	 25.32991	  8.23479	 18.16268	 -1.16299	 30.00538	707.11298	 24.40	
 13.609	-151.210	 27.25023	  2.71853	 24.62726	  6.98121	 19.49438	 -1.13810	 30.04924	707.10999	 24.40	
 13.611	-143.999	 27.20567	  3.34770	 23.72731	  5.76294	 20.86265	 -1.12801	 30.03713	706.99103	 24.40	
 13.601	-136.825	 27.18506	  4.15012	 22.65578	  4.67742	 22.13171	 -1.08569	 30.07032	707.03900	 24.40	
 13.596	-129.640	 27.13743	  5.08018	 21.41471	  3.70108	 23.25846	 -1.05536	 30.03718	707.01599	 24.40	
 13.611	-122.431	 27.13377	  6.18958	 20.04695	  2.90034	 24.26833	 -1.05952	 30.03636	707.08600	 24.40	
 13.604	-115.211	 27.17562	  7.38414	 18.61467	  2.29242	 25.10789	 -1.11034	 30.07673	707.06201	 24.40	
 13.595	-108.042	 27.13717	  8.85117	 17.10876	  1.78401	 25.73825	 -1.17725	 30.04911	707.16901	 24.40	
 13.607	-100.793	 27.13473	 10.39239	 15.52415	  1.41752	 26.20488	 -1.24215	 30.04905	707.05902	 24.40	
 13.601	-93.617	 27.11891	 11.93221	 13.95455	  1.23519	 26.39059	 -1.23097	 30.02765	707.03003	 24.40	
 13.601	-86.383	 27.16039	 13.49439	 12.39777	  1.22291	 26.45078	 -1.19110	 30.07273	707.11499	 24.40	
 13.607	-79.207	 27.13367	 14.96722	 10.86343	  1.40326	 26.23232	 -1.16691	 30.03032	707.21002	 24.40	
 13.595	-71.958	 27.15632	 16.60991	  9.43568	  1.76343	 25.82528	 -1.16213	 30.02160	707.20203	 24.40	
 13.604	-64.789	 27.20335	 18.05553	  8.08472	  2.25658	 25.28442	 -1.16607	 30.05695	707.13098	 24.40	
 13.611	-57.569	 27.19736	 19.53244	  6.82165	  2.85497	 24.52397	 -1.16002	 30.04908	707.14899	 24.40	
 13.596	-50.360	 27.18430	 20.86375	  5.71789	  3.66135	 23.52540	 -1.13035	 29.99875	707.07599	 24.40	
 13.601	-43.175	 27.25394	 22.14702	  4.77473	  4.62788	 22.41843	 -1.09454	 30.03652	707.05103	 24.40	
 13.611	-36.001	 27.30357	 23.29066	  3.97032	  5.68146	 21.17740	 -1.06608	 30.04395	707.13098	 24.40	
 13.609	-28.790	 27.31619	 24.21572	  3.31639	  6.85089	 19.76761	 -1.04159	 30.02275	707.09302	 24.40	
 13.601	-21.647	 27.34900	 24.94698	  2.87816	  8.13565	 18.48282	 -1.04719	 30.01476	707.07501	 24.40	
 13.611	-14.417	 27.38677	 25.53802	  2.47595	  9.82684	 17.00768	 -1.04254	 30.03682	707.12598	 24.40	
 13.608	 -7.147	 27.38819	 25.87820	  2.26778	 11.36294	 15.40508	 -1.06591	 30.01279	707.14099	 24.40	
 13.600	  0.000	 27.44394	 26.02816	  2.27134	 12.91272	 13.74746	 -1.08071	 30.01680	707.12598	 24.40	
 13.608	  7.147	 27.51998	 26.03534	  2.35088	 14.50498	 12.31139	 -1.10182	 30.07532	707.08197	 24.40	
 13.611	 14.417	 27.52361	 25.73416	  2.70030	 16.18902	 10.53668	 -1.09549	 30.04775	707.11700	 24.40	
 13.601	 21.647	 27.56009	 25.26394	  3.14192	 17.66501	  9.15930	 -1.09052	 30.04357	707.21698	 24.40	
 13.609	 28.790	 27.58605	 24.60903	  3.73343	 18.98814	  7.77624	 -1.09573	 30.05370	707.20502	 24.40	
 13.611	 36.001	 27.59256	 23.76438	  4.47459	 20.37063	  6.53187	 -1.07345	 30.02985	707.21002	 24.40	
 13.601	 43.175	 27.63112	 22.75852	  5.40954	 21.62962	  5.48777	 -1.03094	 30.03895	707.23102	 24.40	
 13.596	 50.360	 27.65751	 21.55335	  6.48510	 22.76932	  4.64712	 -0.98134	 30.03074	707.29602	 24.40	
 13.611	 57.569	 27.66272	 20.26708	  7.60919	 23.79720	  3.85284	 -0.97352	 30.02581	707.22400	 24.40	
 13.604	 64.789	 27.68169	 18.87292	  8.90370	 24.64690	  3.20550	 -1.00629	 30.04253	707.24701	 24.40	
 13.595	 71.958	 27.70817	 17.32738	 10.31044	 25.28453	  2.76842	 -1.06882	 30.04441	707.11700	 24.40	
 13.607	 79.207	 27.71388	 15.76478	 11.75431	 25.76832	  2.42961	 -1.15727	 30.04814	707.11499	 24.40	
 13.601	 86.383	 27.70761	 14.32794	 13.23730	 25.99841	  2.20640	 -1.20020	 30.04418	706.98199	 24.40	
 13.601	 93.617	 27.69896	 12.80444	 14.78135	 26.01247	  2.19458	 -1.21465	 30.04254	707.02197	 24.40	
 13.607	100.793	 27.65555	 11.22206	 16.29068	 25.78032	  2.30595	 -1.21289	 30.01640	707.14801	 24.40	
 13.595	108.042	 27.64752	  9.69055	 17.78586	 25.31515	  2.60845	 -1.20088	 30.00623	707.14099	 24.40	
 13.604	115.211	 27.65590	  8.20774	 19.23835	 24.74074	  3.01758	 -1.18850	 30.03483	707.13098	 24.40	
 13.611	122.431	 27.66147	  6.83254	 20.62774	 23.91881	  3.64736	 -1.16020	 30.02674	707.16498	 24.40	
 13.596	129.640	 27.66214	  5.68764	 21.89925	 22.91897	  4.43901	 -1.11949	 30.02030	707.08197	 24.40	
 13.601	136.825	 27.68758	  4.64979	 23.08599	 21.76793	  5.32027	 -1.09114	 30.05197	707.07800	 24.40	
 13.611	143.999	 27.64799	  3.75655	 24.07092	 20.51645	  6.28195	 -1.06087	 30.03126	707.06702	 24.40	
 13.609	151.210	 27.63756	  3.01753	 24.90107	 19.13882	  7.61002	 -1.03343	 30.05030	707.15503	 24.40	
 13.601	158.353	 27.60404	  2.43487	 25.55744	 17.75379	  8.94533	 -1.04360	 30.04130	707.18500	 24.40	
 13.611	165.583	 27.55626	  1.94427	 26.03772	 16.24141	 10.50809	 -1.09112	 30.04570	707.23401	 24.40	
 13.608	172.853	 27.49786	  1.67614	 26.29343	 14.55441	 12.03992	 -1.14121	 30.04125	707.21301	 24.40	
 15.298	173.587	 26.70937	 -0.07751	 27.11975	 13.91249	 11.27525	 -1.33499	 30.02341	707.07898	 24.50	
 15.291	167.167	 26.78341	  0.19763	 26.89996	 15.47651	  9.68306	 -1.28995	 30.03960	707.21997	 24.50	
 15.307	160.676	 26.80612	  0.53963	 26.49819	 17.11682	  8.16673	 -1.23198	 30.03460	707.34497	 24.50	
 15.300	154.261	 26.86868	  1.08453	 25.91381	 18.59209	  6.77835	 -1.22159	 30.05630	707.24402	 24.50	
 15.288	147.854	 26.86615	  1.71721	 25.16096	 19.91703	  5.58677	 -1.20426	 30.03076	707.26398	 24.50	
 15.293	141.428	 26.86984	  2.47963	 24.25046	 21.26642	  4.56815	 -1.22036	 30.01229	707.32300	 24.50	
 15.299	134.985	 26.87408	  3.37034	 23.20588	 22.52872	  3.57688	 -1.25139	 30.02699	707.25800	 24.50	
 15.305	128.583	 26.86850	  4.40727	 22.01831	 23.68629	  2.71239	 -1.26921	 30.02442	707.32800	 24.50	
 15.309	122.142	 26.88272	  5.54012	 20.75504	 24.64347	  1.99847	 -1.29362	 30.04388	707.14801	 24.50	
 15.304	115.711	 26.89287	  6.81790	 19.36226	 25.44358	  1.47134	 -1.30572	 30.04010	707.09003	 24.50	
 15.297	109.291	 26.88363	  8.19556	 17.92359	 26.06171	  1.04413	 -1.28879	 30.02790	707.20801	 24.50	
 15.293	102.897	 26.89307	  9.77794	 16.42341	 26.51171	  0.71240	 -1.28974	 30.02176	707.15698	 24.50	
 15.293	 96.458	 26.87614	 11.33599	 14.90685	 26.77845	  0.47175	 -1.29055	 30.01057	707.23602	 24.50	
 15.300	 90.000	 26.88382	 12.91667	 13.39630	 26.84343	  0.41590	 -1.30375	 30.00027	707.26703	 24.50	
 15.293	 83.542	 26.89622	 14.43457	 11.90418	 26.74871	  0.50225	 -1.30369	 30.00952	707.21002	 24.50	
 15.293	 77.103	 26.89902	 15.91653	 10.44889	 26.44920	  0.77722	 -1.27855	 30.00189	707.27899	 24.50	
 15.297	 70.709	 26.96480	 17.46099	  9.03970	 26.03054	  1.13217	 -1.23398	 30.07178	707.25800	 24.50	
 15.304	 64.289	 26.94718	 18.96708	  7.68850	 25.33960	  1.61992	 -1.15248	 30.06663	707.32001	 24.50	
 15.309	 57.858	 26.92204	 20.38880	  6.43588	 24.49507	  2.24220	 -1.15464	 30.04675	707.05298	 24.50	
 15.305	 51.417	 26.90560	 21.70259	  5.25456	 23.51019	  2.97380	 -1.13129	 30.04926	707.19598	 24.50	
 15.299	 45.015	 26.86784	 22.89521	  4.23978	 22.36205	  3.83836	 -1.15368	 30.02228	707.23297	 24.50	
 15.293	 38.572	 26.88592	 24.04088	  3.26287	 21.15141	  4.84443	 -1.18707	 30.08160	707.28699	 24.40	
 15.288	 32.146	 26.81324	 24.90958	  2.43386	 19.77599	  5.87323	 -1.18964	 30.02722	707.14600	 24.40	
 15.300	 25.739	 26.78688	 25.67788	  1.75311	 18.45695	  7.09254	 -1.18321	 30.04639	707.22400	 24.50	
 15.307	 19.324	 26.75499	 26.27638	  1.20844	 17.00666	  8.45238	 -1.15212	 30.05076	707.17999	 24.40	
 15.291	 12.833	 26.69378	 26.64968	  0.82552	 15.43677	  9.88860	 -1.14186	 30.00815	707.35101	 24.40	
 15.298	  6.413	 26.66536	 26.85196	  0.58159	 13.80648	 11.39529	 -1.17349	 29.99953	707.25201	 24.40	
 15.300	  0.000	 26.64569	 26.95136	  0.43203	 12.25271	 13.03752	 -1.14849	 30.03890	707.16199	 24.40	
 15.298	 -6.413	 26.61138	 26.80429	  0.46544	 10.65286	 14.68317	 -1.13883	 30.02727	707.20502	 24.40	
 15.291	-12.833	 26.61034	 26.48633	  0.66545	  8.91154	 16.32216	 -1.12406	 30.04528	707.35199	 24.40	
 15.307	-19.324	 26.54961	 25.97883	  0.95512	  7.50894	 17.86916	 -1.10166	 30.02785	707.31799	 24.40	
 15.300	-25.739	 26.51759	 25.28253	  1.38841	  6.19368	 19.24743	 -1.11693	 30.02018	707.33801	 24.40	
 15.288	-32.146	 26.51555	 24.45227	  1.95187	  4.98351	 20.59981	 -1.10796	 30.04520	707.29602	 24.40	
 15.293	-38.572	 26.46487	 23.45005	  2.59962	  3.84944	 21.91429	 -1.11919	 30.03600	707.43298	 24.40	
 15.299	-45.015	 26.38242	 22.27542	  3.40237	  2.79148	 23.13349	 -1.12789	 30.00902	707.22400	 24.40	
 15.305	-51.417	 26.35532	 20.96155	  4.40752	  1.93486	 24.20058	 -1.17091	 29.98837	707.34601	 24.40	
 15.309	-57.858	 26.36044	 19.60818	  5.49443	  1.18770	 25.14619	 -1.14406	 30.02492	707.41101	 24.40	
 15.304	-64.289	 26.35985	 18.11749	  6.71562	  0.57166	 25.93097	 -1.14928	 30.04050	707.35699	 24.40	
 15.297	-70.709	 26.32649	 16.62196	  8.03101	  0.12333	 26.48780	 -1.15935	 30.01247	707.41400	 24.40	
 15.293	-77.103	 26.31501	 15.02930	  9.43603	 -0.30547	 26.93812	 -1.15099	 30.04223	707.21002	 24.40	
 15.293	-83.542	 26.31674	 13.52867	 10.95643	 -0.53609	 27.19662	 -1.16515	 30.05647	707.32098	 24.40	
 15.300	-90.000	 26.27177	 11.97948	 12.46053	 -0.58273	 27.22333	 -1.22558	 30.01548	707.35101	 24.40	
 15.293	-96.458	 26.29269	 10.38937	 14.05110	 -0.48069	 27.13875	 -1.27440	 30.04701	707.36902	 24.40	
 15.293	-102.897	 26.26201	  8.78046	 15.61758	 -0.24046	 26.80311	 -1.28525	 29.99780	707.40802	 24.40	
 15.297	-109.291	 26.28449	  7.37560	 17.13118	  0.15521	 26.38099	 -1.25347	 30.01984	707.40503	 24.40	
 15.304	-115.711	 26.28292	  6.08527	 18.66649	  0.62557	 25.71035	 -1.21477	 30.02566	707.31201	 24.40	
 15.309	-122.142	 26.27167	  4.88206	 20.11947	  1.23234	 24.88243	 -1.20024	 30.01299	707.22400	 24.40	
 15.305	-128.583	 26.30421	  3.82779	 21.50437	  2.00147	 23.94143	 -1.19636	 30.03232	707.23901	 24.40	
 15.299	-134.985	 26.32098	  2.91587	 22.72711	  2.92697	 22.82384	 -1.23658	 30.02007	707.25897	 24.40	
 15.293	-141.428	 26.32903	  2.07575	 23.86166	  3.93267	 21.56621	 -1.30592	 30.01579	707.34900	 24.40	
 15.288	-147.854	 26.38460	  1.40542	 24.80683	  5.08767	 20.22023	 -1.31404	 30.01773	707.43298	 24.40	
 15.300	-154.261	 26.41345	  0.83475	 25.64223	  6.33848	 18.84811	 -1.32817	 30.01646	707.27502	 24.30	
 15.307	-160.676	 26.45288	  0.37665	 26.30497	  7.64336	 17.44654	 -1.34440	 30.02876	707.27002	 24.30	
 15.291	-167.167	 26.52381	  0.09112	 26.77372	  9.10995	 15.88993	 -1.33445	 30.02483	707.39899	 24.30	
 15.298	-173.587	 26.59126	 -0.11533	 27.08496	 10.57267	 14.35416	 -1.32719	 30.04339	707.41901	 24.30	
 15.300	180.000	 26.64824	 -0.22124	 27.19914	 12.28062	 12.82225	 -1.33664	 30.03837	707.42401	 24.30	
 17.000	180.000	 25.73893	 -1.92027	 27.92641	 11.42779	 11.90660	 -1.42221	 30.01894	707.34900	 24.30	
 16.990	-174.179	 25.67602	 -1.81473	 27.80542	  9.88999	 13.50811	 -1.40541	 29.99342	707.36499	 24.30	
 17.009	-168.383	 25.62144	 -1.69210	 27.57026	  8.40609	 15.05726	 -1.40087	 30.02601	707.38800	 24.30	
 17.000	-162.596	 25.53608	 -1.41771	 27.13514	  6.98812	 16.59985	 -1.39488	 30.00915	707.39001	 24.30	
 16.990	-156.759	 25.50891	 -1.00836	 26.56102	  5.70229	 18.09330	 -1.39905	 30.01457	707.29303	 24.30	
 16.995	-150.919	 25.46911	 -0.49499	 25.82460	  4.44440	 19.51412	 -1.41026	 30.00909	707.28998	 24.30	
 16.988	-145.161	 25.42311	  0.10438	 24.91643	  3.23867	 20.87741	 -1.40878	 30.00228	707.38501	 24.30	
 17.014	-139.343	 25.38992	  0.76945	 23.92757	  2.16876	 22.18151	 -1.38211	 30.02767	707.42499	 24.30	
 17.007	-133.546	 25.40771	  1.60725	 22.80753	  1.23930	 23.41086	 -1.34464	 30.06656	707.32300	 24.20	
 17.001	-127.699	 25.32833	  2.53528	 21.47691	  0.36054	 24.46271	 -1.31666	 29.99439	707.35400	 24.20	
 17.006	-121.937	 25.33786	  3.54982	 20.13495	 -0.38262	 25.44601	 -1.29425	 30.02855	707.43903	 24.20	
 17.002	-116.134	 25.30353	  4.67937	 18.68307	 -1.00870	 26.23884	 -1.26412	 30.01422	707.31799	 24.20	
 17.001	-110.310	 25.31000	  5.92737	 17.16735	 -1.50623	 26.90097	 -1.25147	 30.00814	707.32898	 24.20	
 16.988	-104.517	 25.35887	  7.34083	 15.62068	 -1.83638	 27.44121	 -1.22634	 30.04230	707.25201	 24.20	
 17.008	-98.662	 25.32163	  8.77274	 14.02664	 -2.12560	 27.77097	 -1.17034	 30.01058	707.35199	 24.20	
 16.996	-92.909	 25.29558	 10.26505	 12.48479	 -2.39511	 27.93658	 -1.11230	 30.00831	707.34302	 24.20	
 16.996	-87.091	 25.30708	 11.93425	 10.93089	 -2.39424	 27.96406	 -1.04475	 30.00152	707.43103	 24.20	
 17.012	-81.253	 25.32127	 13.51428	  9.41816	 -2.28577	 27.85655	 -1.00241	 30.01198	707.49500	 24.20	
 16.988	-75.483	 25.36477	 14.96582	  7.99142	 -1.98843	 27.57757	 -0.98628	 30.02575	707.33801	 24.20	
 17.001	-69.690	 25.36478	 16.56012	  6.57713	 -1.59314	 27.13363	 -0.97099	 30.02372	707.44897	 24.20	
 17.002	-63.866	 25.37742	 18.02485	  5.35649	 -1.09943	 26.51263	 -1.00049	 30.01091	707.39697	 24.20	
 17.006	-58.063	 25.40223	 19.54367	  4.16029	 -0.49956	 25.73224	 -1.01112	 30.00605	707.37402	 24.10	
 17.001	-52.301	 25.45657	 20.95923	  3.10257	  0.24020	 24.81104	 -1.05399	 30.01330	707.38501	 24.10	
 17.007	-46.454	 25.47046	 22.26273	  2.12548	  1.08827	 23.72520	 -1.06198	 29.99529	707.34900	 24.10	
 17.014	-40.657	 25.51207	 23.47192	  1.24262	  2.00245	 22.56585	 -1.09587	 30.01592	707.35400	 24.10	
 16.988	-34.839	 25.58647	 24.54291	  0.57427	  3.08556	 21.31309	 -1.06522	 30.04031	707.43903	 24.10	
 16.995	-29.081	 25.65044	 25.44346	  0.07312	  4.27026	 19.96884	 -1.07166	 30.04356	707.57001	 24.10	
 16.990	-23.241	 25.65048	 26.22334	 -0.44439	  5.54398	 18.58916	 -1.04659	 30.02122	707.50000	 24.10	
 17.000	-17.404	 25.66167	 26.81538	 -0.80295	  6.82028	 17.10973	 -1.03936	 30.00418	707.46698	 24.10	
 17.009	-11.617	 25.70276	 27.29335	 -1.07941	  8.21881	 15.50063	 -1.04624	 30.01723	707.56201	 24.10	
 16.990	 -5.821	 25.76624	 27.55201	 -1.14724	  9.71346	 13.93706	 -1.05196	 30.01653	707.39899	 24.10	
 17.000	  0.000	 25.76815	 27.67959	 -1.19823	 11.47301	 12.25278	 -1.02941	 30.00311	707.36798	 24.10	
 16.990	  5.821	 25.80863	 27.64612	 -1.10334	 13.09207	 10.72656	 -1.01792	 30.00355	707.42999	 24.10	
 17.009	 11.617	 25.84309	 27.46778	 -0.88457	 14.62370	  9.23947	 -1.03581	 30.01546	707.53198	 24.10	
 17.000	 17.404	 25.86491	 27.08590	 -0.58516	 16.23759	  7.80426	 -1.05903	 29.99888	707.46198	 24.10	
 16.990	 23.241	 25.89492	 26.59380	 -0.12964	 17.74333	  6.40220	 -1.11125	 30.02297	707.46997	 24.00	
 16.995	 29.081	 25.92004	 25.90769	  0.50874	 19.09065	  5.19098	 -1.10762	 30.02028	707.45502	 24.00	
 16.988	 34.839	 25.94201	 25.06667	  1.21591	 20.49469	  4.07795	 -1.16280	 30.00706	707.40503	 24.00	
 17.014	 40.657	 25.95699	 24.09540	  2.00570	 21.79748	  3.02631	 -1.17549	 30.01236	707.40802	 24.00	
 17.007	 46.454	 26.00500	 22.98104	  2.96063	 23.03080	  2.08464	 -1.19394	 30.03977	707.37701	 24.00	
 17.001	 52.301	 25.99337	 21.69678	  3.99218	 24.09754	  1.24034	 -1.18607	 29.98486	707.44702	 24.00	
 17.006	 58.063	 26.01852	 20.36475	  5.14905	 25.08941	  0.54757	 -1.19234	 30.00542	707.34497	 24.00	
 17.002	 63.866	 26.02138	 18.93887	  6.35963	 25.93207	 -0.07213	 -1.23350	 30.01584	707.34100	 24.00	
 17.001	 69.690	 26.00649	 17.42752	  7.65904	 26.60288	 -0.57062	 -1.27269	 30.00292	707.37701	 24.00	
 16.988	 75.483	 25.98537	 15.92736	  9.06784	 27.07613	 -0.92869	 -1.31634	 29.97771	707.50897	 24.00	
 17.012	 81.253	 26.01945	 14.47053	 10.46109	 27.49769	 -1.26362	 -1.28171	 30.03923	707.39899	 24.00	
 16.996	 87.091	 25.98893	 12.96058	 11.90845	 27.64309	 -1.43415	 -1.26710	 30.01744	707.44897	 24.00	
 16.996	 92.909	 26.00505	 11.37819	 13.41744	 27.68009	 -1.43975	 -1.22663	 30.03724	707.42401	 24.00	
 17.008	 98.662	 25.98377	  9.77748	 14.90330	 27.52095	 -1.30449	 -1.19787	 30.02907	707.38800	 24.00	
 16.988	104.517	 26.00526	  8.21218	 16.43465	 27.18908	 -0.95949	 -1.19559	 30.02333	707.29797	 24.00	
 17.001	110.310	 25.98067	  6.80682	 17.92184	 26.70500	 -0.63184	 -1.21374	 30.02070	707.42102	 24.00	
 17.002	116.134	 25.96834	  5.49829	 19.35453	 26.02301	 -0.16740	 -1.25139	 29.99273	707.40802	 24.00	
 17.006	121.937	 26.00672	  4.32652	 20.73628	 25.24476	  0.40312	 -1.28963	 30.02502	707.31799	 24.00	
 17.001	127.699	 26.00679	  3.18451	 22.02903	 24.30032	  1.09580	 -1.32172	 30.03469	707.38202	 24.00	
 17.007	133.546	 25.95481	  2.11002	 23.21432	 23.17352	  1.85902	 -1.32420	 29.99931	707.36902	 24.00	
 17.014	139.343	 25.96845	  1.17354	 24.32867	 21.95168	  2.71480	 -1.32426	 30.02039	707.43799	 24.00	
 16.988	145.161	 26.01945	  0.43027	 25.30758	 20.65653	  3.78037	 -1.32623	 30.04934	707.37402	 24.00	
 16.995	150.919	 25.97462	 -0.23326	 26.09335	 19.25306	  4.88435	 -1.33109	 30.01406	707.35999	 24.00	
 16.990	156.759	 25.94461	 -0.83711	 26.76401	 17.83620	  6.03591	 -1.35461	 30.00207	707.33398	 24.00	
 17.000	162.596	 25.89038	 -1.29386	 27.30184	 16.28828	  7.38409	 -1.36775	 30.00429	707.26398	 24.00	
 17.009	168.383	 25.84914	 -1.66058	 27.68376	 14.69769	  8.81495	 -1.40544	 30.01429	707.47498	 24.00	
 16.990	174.179	 25.73647	 -1.92026	 27.86731	 13.10087	 10.25607	 -1.41449	 29.98227	707.51703	 23.90	
 18.709	174.675	 24.78948	 -3.52293	 28.50706	 12.25121	  9.48800	 -1.42524	 30.00361	707.40503	 23.90	
 18.703	169.441	 24.86299	 -3.36256	 28.34207	 13.86340	  8.01437	 -1.43539	 30.01422	707.35699	 23.90	
 18.691	164.085	 24.93735	 -3.04984	 28.00345	 15.41560	  6.61610	 -1.43560	 30.02082	707.28998	 23.90	
 18.706	158.818	 24.95354	 -2.62640	 27.51113	 16.95825	  5.30835	 -1.41250	 29.99647	707.50000	 23.90	
 18.695	153.537	 24.97746	 -2.13231	 26.91463	 18.43645	  4.12658	 -1.40618	 30.00028	707.32800	 23.90	
 18.704	148.255	 25.00361	 -1.48638	 26.14787	 19.83466	  3.01244	 -1.38651	 29.99670	707.38300	 23.90	
 18.698	142.952	 25.00496	 -0.80719	 25.25742	 21.22937	  1.97106	 -1.35344	 30.00348	707.44897	 23.90	
 18.699	137.625	 25.00704	  0.01611	 24.24106	 22.53912	  1.03453	 -1.32864	 30.01118	707.51099	 23.90	
 18.705	132.343	 25.02335	  0.93075	 23.16289	 23.72849	  0.20949	 -1.31499	 30.04277	707.42499	 23.90	
 18.713	127.067	 25.00364	  1.94737	 21.91373	 24.79825	 -0.52847	 -1.26686	 30.01854	707.43298	 23.90	
 18.700	121.794	 25.05034	  3.07343	 20.65471	 25.74471	 -1.13034	 -1.20632	 30.03732	707.45300	 23.90	
 18.698	116.504	 25.01126	  4.21807	 19.28739	 26.56657	 -1.75710	 -1.12465	 30.02734	707.27802	 23.90	
 18.707	111.165	 25.01406	  5.47522	 17.88658	 27.20652	 -2.20663	 -1.05577	 30.02199	707.40503	 23.90	
 18.690	105.863	 25.03730	  6.84560	 16.42628	 27.72768	 -2.58327	 -1.02427	 30.03134	707.27197	 23.90	
 18.696	100.583	 25.02619	  8.21113	 14.92995	 28.07516	 -2.83699	 -1.06111	 30.02141	707.31403	 23.90	
 18.700	 95.309	 25.01330	  9.72290	 13.42718	 28.26891	 -3.09208	 -1.05883	 30.01756	707.25201	 23.90	
 18.700	 90.000	 25.04125	 11.38088	 11.87966	 28.36701	 -3.16842	 -1.09299	 30.04119	707.37701	 23.90	
 18.700	 84.691	 25.04737	 12.96405	 10.45520	 28.25608	 -3.06927	 -1.15075	 30.02171	707.44098	 23.90	
 18.696	 79.417	 25.02559	 14.44004	  9.05890	 28.00416	 -2.89288	 -1.20194	 29.98779	707.39899	 23.90	
 18.690	 74.137	 25.06498	 15.89838	  7.68299	 27.61951	 -2.49134	 -1.27719	 29.99764	707.37299	 23.90	
 18.707	 68.835	 25.09285	 17.43945	  6.35726	 27.12716	 -2.10079	 -1.28212	 30.04377	707.34302	 23.90	
 18.698	 63.496	 25.07209	 18.92118	  5.05815	 26.42955	 -1.62337	 -1.27165	 30.02017	707.30701	 23.90	
 18.700	 58.206	 25.09322	 20.34137	  3.90618	 25.61460	 -1.04086	 -1.23523	 30.04118	707.36200	 23.90	
 18.713	 52.933	 25.06849	 21.67745	  2.77859	 24.65052	 -0.39721	 -1.20315	 30.02928	707.27802	 23.90	
 18.705	 47.657	 25.06745	 22.94796	  1.75160	 23.54079	  0.48359	 -1.17333	 30.02525	707.37402	 23.90	
 18.699	 42.375	 25.03848	 24.10577	  0.85454	 22.36668	  1.32827	 -1.14293	 30.03005	707.28998	 23.90	
 18.698	 37.048	 24.98697	 25.11149	 -0.00336	 21.09555	  2.31745	 -1.08298	 29.99870	707.34302	 23.90	
 18.704	 31.745	 24.96418	 26.02246	 -0.72717	 19.70417	  3.35956	 -1.03355	 30.00421	707.37598	 23.90	
 18.695	 26.463	 24.93952	 26.78036	 -1.36239	 18.28193	  4.53056	 -0.96718	 30.00171	707.40399	 23.90	
 18.706	 21.182	 24.91795	 27.39697	 -1.90719	 16.91547	  5.73241	 -0.92638	 30.01251	707.28998	 23.90	
 18.691	 15.915	 24.89094	 27.85071	 -2.30037	 15.29888	  7.09908	 -0.88844	 29.99772	707.33801	 23.90	
 18.703	 10.559	 24.84731	 28.18381	 -2.64742	 13.79690	  8.47595	 -0.86858	 30.00457	707.40802	 23.90	
 18.709	  5.325	 24.80671	 28.32006	 -2.78756	 12.24372	  9.92726	 -0.87076	 29.98410	707.25800	 23.90	
 18.700	  0.000	 24.79589	 28.37288	 -2.84880	 10.48929	 11.49764	 -0.89404	 30.00749	707.32001	 23.90	
 18.709	 -5.325	 24.76658	 28.25906	 -2.77078	  8.93546	 13.02449	 -0.89002	 30.00474	707.35901	 23.90	
 18.703	-10.559	 24.73777	 28.02337	 -2.72085	  7.52513	 14.66764	 -0.91330	 30.02199	707.39697	 23.90	
 18.691	-15.915	 24.72620	 27.58940	 -2.46633	  6.10760	 16.31778	 -0.93512	 30.03391	707.36499	 23.90	
 18.706	-21.182	 24.64640	 27.01166	 -2.19520	  4.80867	 17.79203	 -0.94320	 29.99907	707.46100	 23.90	
 18.695	-26.463	 24.65356	 26.34188	 -1.78881	  3.57034	 19.26249	 -0.95001	 30.03597	707.27802	 23.90	
 18.704	-31.745	 24.63769	 25.52393	 -1.35943	  2.38857	 20.54294	 -0.94735	 30.05449	707.56500	 23.80	
 18.698	-37.048	 24.57975	 24.49656	 -0.73003	  1.26573	 21.87964	 -0.93405	 30.03149	707.46399	 23.90	
 18.699	-42.375	 24.54771	 23.38856	  0.03396	  0.26326	 23.14680	 -0.93417	 30.04247	707.47998	 23.80	
 18.705	-47.657	 24.46435	 22.11232	  0.88087	 -0.64050	 24.27332	 -0.91846	 30.00299	707.43903	 23.80	
 18.713	-52.933	 24.45585	 20.79805	  1.84150	 -1.41984	 25.30858	 -0.92043	 30.01054	707.37402	 23.80	
 18.700	-58.206	 24.41050	 19.39101	  2.86119	 -2.09349	 26.20004	 -0.88413	 30.00842	707.35999	 23.80	
 18.698	-63.496	 24.38074	 17.86592	  4.05200	 -2.80641	 27.00397	 -0.86857	 30.03677	707.31000	 23.80	
 18.707	-68.835	 24.31293	 16.30007	  5.26441	 -3.31646	 27.60241	 -0.83269	 30.01379	707.35199	 23.80	
 18.690	-74.137	 24.33195	 14.80628	  6.54623	 -3.68155	 28.09847	 -0.80041	 30.04063	707.31000	 23.80	
 18.696	-79.417	 24.25049	 13.33352	  7.93802	 -3.92978	 28.36235	 -0.78565	 29.98397	707.44397	 23.80	
 18.700	-84.691	 24.26266	 11.71430	  9.40870	 -4.06629	 28.56219	 -0.80219	 30.01197	707.38800	 23.80	
 18.700	-90.000	 24.22401	 10.12488	 10.87419	 -4.06160	 28.57211	 -0.84155	 29.98008	707.36603	 23.80	
 18.700	-95.309	 24.26643	  8.70643	 12.36567	 -3.90599	 28.49790	 -0.96469	 30.01058	707.36200	 23.80	
 18.696	-100.583	 24.24500	  7.21559	 13.95794	 -3.74511	 28.24932	 -1.02891	 29.99548	707.35999	 23.80	
 18.690	-105.863	 24.24856	  5.85382	 15.48731	 -3.48440	 27.88938	 -1.12916	 30.01923	707.27802	 23.80	
 18.707	-111.165	 24.21492	  4.58789	 16.99830	 -3.12944	 27.33387	 -1.23048	 29.99343	707.28900	 23.80	
 18.698	-116.504	 24.23520	  3.39599	 18.51387	 -2.65702	 26.68047	 -1.28237	 30.01677	707.30298	 23.80	
 18.700	-121.794	 24.23370	  2.26647	 19.93021	 -2.07611	 25.87145	 -1.31279	 29.99646	707.42102	 23.80	
 18.713	-127.067	 24.22840	  1.19887	 21.33109	 -1.37282	 24.90209	 -1.31058	 29.98120	707.42102	 23.80	
 18.705	-132.343	 24.32997	  0.28821	 22.70320	 -0.41865	 23.81598	 -1.36761	 30.02906	707.34302	 23.80	
 18.699	-137.625	 24.32076	 -0.52089	 23.85062	  0.48874	 22.60719	 -1.38351	 29.99452	707.46698	 23.80	
 18.698	-142.952	 24.38381	 -1.20791	 24.94253	  1.46365	 21.38612	 -1.40342	 30.01460	707.37598	 23.80	
 18.704	-148.255	 24.39139	 -1.82595	 25.87522	  2.56650	 20.01118	 -1.38695	 29.99698	707.44397	 23.80	
 18.695	-153.537	 24.42687	 -2.36028	 26.68388	  3.73551	 18.63593	 -1.35001	 29.99540	707.32800	 23.80	
 18.706	-158.818	 24.48021	 -2.86170	 27.38214	  4.95169	 17.19762	 -1.34317	 30.02866	707.23602	 23.80	
 18.691	-164.085	 24.55574	 -3.16052	 27.89848	  6.26435	 15.68365	 -1.30875	 30.03532	707.29303	 23.80	
 18.703	-169.441	 24.55824	 -3.42122	 28.22966	  7.67816	 14.06725	 -1.33891	 29.97231	707.21698	 23.80	
 18.709	-174.675	 24.66950	 -3.53694	 28.51301	  9.09559	 12.56070	 -1.35758	 30.03471	707.26501	 23.80	
 18.700	180.000	 24.73990	 -3.52667	 28.56645	 10.65557	 10.97441	 -1.38257	 30.00440	707.32599	 23.80	
 20.400	180.000	 23.67531	 -5.21020	 29.09005	  9.83257	 10.14841	 -1.28446	 30.01148	707.39697	 23.80	
 20.401	-175.153	 23.60061	 -5.22800	 29.01072	  8.38646	 11.63986	 -1.23091	 30.00828	707.32898	 23.70	
 20.407	-170.264	 23.51182	 -5.08749	 28.82033	  6.90495	 13.17517	 -1.21654	 30.00879	707.32300	 23.70	
 20.410	-165.423	 23.43993	 -4.85522	 28.49730	  5.49216	 14.71064	 -1.20977	 30.01687	707.29602	 23.70	
 20.392	-160.496	 23.40726	 -4.55596	 28.02769	  4.17508	 16.26063	 -1.19896	 30.02722	707.28900	 23.70	
 20.401	-155.705	 23.34411	 -4.19929	 27.43244	  2.95890	 17.71867	 -1.24279	 30.03021	707.24103	 23.70	
 20.405	-150.835	 23.30059	 -3.71031	 26.68455	  1.80341	 19.14795	 -1.27743	 30.01935	707.26202	 23.70	
 20.397	-145.903	 23.26246	 -3.09812	 25.78447	  0.67809	 20.48151	 -1.29656	 29.99332	707.24200	 23.70	
 20.392	-141.062	 23.23359	 -2.50282	 24.79745	 -0.40716	 21.84761	 -1.28055	 30.03840	707.35699	 23.70	
 20.396	-136.227	 23.16396	 -1.85384	 23.67988	 -1.34259	 23.04698	 -1.27146	 30.00725	707.36603	 23.70	
 20.408	-131.372	 23.12245	 -1.01155	 22.44878	 -2.20578	 24.21317	 -1.26847	 30.00566	707.34900	 23.70	
 20.410	-126.511	 23.11930	 -0.02718	 21.13460	 -2.91027	 25.26354	 -1.28891	 30.01140	707.27301	 23.70	
 20.400	-121.604	 23.13397	  1.00164	 19.75922	 -3.53387	 26.21120	 -1.28835	 30.01648	707.23297	 23.70	
 20.403	-116.741	 23.09875	  2.06294	 18.31332	 -4.17271	 27.01289	 -1.26001	 30.00599	707.27301	 23.70	
 20.413	-111.900	 23.07797	  3.24424	 16.80532	 -4.67056	 27.69446	 -1.18285	 29.99923	707.23901	 23.70	
 20.398	-107.004	 23.05980	  4.46255	 15.25988	 -5.08827	 28.23436	 -1.06504	 29.99314	707.18597	 23.70	
 20.394	-102.132	 23.07986	  5.72622	 13.73546	 -5.35379	 28.64573	 -0.91150	 29.98515	707.35999	 23.70	
 20.403	-97.332	 23.07579	  7.03540	 12.26278	 -5.58276	 28.95749	 -0.80816	 30.02674	707.23901	 23.70	
 20.392	-92.440	 23.10342	  8.49449	 10.68785	 -5.63799	 29.09076	 -0.77800	 30.01566	707.37299	 23.70	
 20.392	-87.560	 23.10556	  9.92297	  9.23244	 -5.69541	 29.14998	 -0.72824	 30.03299	707.33698	 23.70	
 20.403	-82.668	 23.07321	 11.41999	  7.83128	 -5.76778	 29.02192	 -0.68687	 29.98489	707.39600	 23.70	
 20.394	-77.868	 23.08652	 12.97985	  6.43045	 -5.69085	 28.81863	 -0.70371	 29.99447	707.40503	 23.70	
 20.398	-72.996	 23.11903	 14.54231	  5.12273	 -5.38573	 28.46769	 -0.70219	 29.99365	707.44702	 23.60	
 20.413	-68.100	 23.14172	 15.99514	  3.84547	 -4.92806	 27.97737	 -0.73568	 29.99416	707.39301	 23.60	
 20.403	-63.259	 23.22557	 17.55091	  2.69917	 -4.40412	 27.39398	 -0.73362	 30.02415	707.36902	 23.70	
 20.400	-58.396	 23.23984	 19.01628	  1.51473	 -3.80953	 26.59602	 -0.77117	 29.98160	707.33698	 23.60	
 20.410	-53.489	 23.27201	 20.47805	  0.33696	 -3.17257	 25.72939	 -0.76579	 30.00562	707.34900	 23.70	
 20.408	-48.628	 23.29769	 21.79851	 -0.57340	 -2.45577	 24.74223	 -0.81359	 29.99871	707.29999	 23.60	
 20.396	-43.773	 23.37669	 23.06194	 -1.28030	 -1.59308	 23.63744	 -0.82523	 30.00505	707.46198	 23.60	
 20.392	-38.938	 23.47995	 24.29337	 -1.96321	 -0.52667	 22.39058	 -0.82856	 30.01598	707.43903	 23.70	
 20.397	-34.097	 23.50666	 25.33507	 -2.62111	  0.49344	 21.08640	 -0.84789	 30.01455	707.22699	 23.60	
 20.405	-29.165	 23.51851	 26.25332	 -3.13132	  1.62107	 19.79450	 -0.86095	 29.99337	707.31201	 23.60	
 20.401	-24.295	 23.58532	 27.05609	 -3.53003	  2.80123	 18.45084	 -0.84936	 30.01887	707.42102	 23.60	
 20.392	-19.504	 23.62325	 27.72191	 -3.88077	  4.03350	 16.92993	 -0.86084	 30.02262	707.47998	 23.60	
 20.410	-14.577	 23.61267	 28.23635	 -4.11539	  5.33396	 15.36914	 -0.81917	 30.00938	707.38202	 23.60	
 20.407	 -9.736	 23.66071	 28.56731	 -4.21464	  6.70956	 13.79885	 -0.78803	 29.97813	707.42499	 23.60	
 20.401	 -4.847	 23.72762	 28.85274	 -4.34131	  8.19319	 12.24414	 -0.76814	 30.02392	707.21002	 23.60	
 20.400	  0.000	 23.75901	 28.94173	 -4.32142	  9.64528	 10.67495	 -0.78472	 30.01591	707.24200	 23.60	
 20.401	  4.847	 23.74465	 28.91638	 -4.40814	 11.24687	  9.13428	 -0.75028	 29.99426	707.25201	 23.60	
 20.407	  9.736	 23.75930	 28.76784	 -4.28935	 12.86547	  7.68792	 -0.73842	 29.98857	707.37598	 23.60	
 20.410	 14.577	 23.81446	 28.52903	 -3.99013	 14.42841	  6.34891	 -0.76818	 30.02370	707.32001	 23.60	
 20.392	 19.504	 23.85303	 28.08474	 -3.60153	 15.95477	  5.04877	 -0.76416	 30.00127	707.27301	 23.60	
 20.401	 24.295	 23.87683	 27.55209	 -3.15392	 17.38860	  3.82192	 -0.79202	 30.02038	707.31799	 23.60	
 20.405	 29.165	 23.88616	 26.85338	 -2.60508	 18.83546	  2.66573	 -0.82711	 29.99472	707.28900	 23.60	
 20.397	 34.097	 23.92335	 26.02011	 -1.94392	 20.26852	  1.52208	 -0.90960	 30.01366	707.33502	 23.60	
 20.392	 38.938	 23.97475	 25.08795	 -1.17646	 21.60499	  0.56551	 -0.96938	 30.02821	707.29498	 23.60	
 20.396	 43.773	 23.96502	 24.01747	 -0.40464	 22.82563	 -0.37248	 -1.05852	 30.00919	707.38000	 23.60	
 20.408	 48.628	 23.97707	 22.82790	  0.50661	 23.97763	 -1.19304	 -1.11974	 29.99808	707.30603	 23.60	
 20.410	 53.489	 23.97208	 21.54833	  1.49443	 25.05646	 -1.98582	 -1.16461	 29.99673	707.18903	 23.60	
 20.400	 58.396	 23.99309	 20.19460	  2.58599	 26.00196	 -2.60979	 -1.19258	 29.99984	707.21002	 23.60	
 20.403	 63.259	 23.98534	 18.77306	  3.72468	 26.82468	 -3.18210	 -1.21779	 29.99425	707.32898	 23.60	
 20.413	 68.100	 23.97917	 17.31984	  4.92338	 27.50299	 -3.70954	 -1.22695	 30.00136	707.24799	 23.50	
 20.398	 72.996	 23.97323	 15.81416	  6.20491	 28.05606	 -4.16875	 -1.18218	 29.99865	707.28900	 23.60	
 20.394	 77.868	 23.97384	 14.37278	  7.55174	 28.49964	 -4.60219	 -1.09056	 30.02102	707.18903	 23.60	
 20.403	 82.668	 23.92072	 12.87227	  8.84526	 28.75292	 -4.85820	 -0.99697	 29.99429	707.11499	 23.50	
 20.392	 87.560	 23.93734	 11.27928	 10.31446	 28.89568	 -4.93953	 -0.91116	 30.00163	707.09900	 23.50	
 20.392	 92.440	 23.93349	  9.69852	 11.78981	 28.90517	 -4.83841	 -0.88006	 29.99328	707.21600	 23.50	
 20.403	 97.332	 23.95652	  8.21559	 13.30005	 28.80840	 -4.71772	 -0.87190	 30.01998	707.22699	 23.50	
 20.394	102.132	 23.92792	  6.81878	 14.76035	 28.54381	 -4.54698	 -0.87400	 30.00836	707.18799	 23.50	
 20.398	107.004	 23.93462	  5.43417	 16.23168	 28.15570	 -4.24009	 -0.87811	 30.00379	707.15503	 23.50	
 20.413	111.900	 23.90859	  4.14575	 17.61116	 27.60225	 -3.83715	 -0.93133	 29.97630	707.08398	 23.50	
 20.403	116.741	 23.96150	  2.95866	 19.04342	 26.99221	 -3.35875	 -0.98910	 30.02689	707.20203	 23.50	
 20.400	121.604	 23.97098	  1.82321	 20.39816	 26.18831	 -2.78152	 -1.04797	 30.02388	707.16901	 23.50	
 20.410	126.511	 23.94912	  0.72873	 21.69655	 25.24016	 -2.16428	 -1.13825	 30.02074	707.20801	 23.50	
 20.408	131.372	 23.96437	 -0.19769	 22.90394	 24.17921	 -1.45651	 -1.20488	 30.00048	707.08197	 23.50	
 20.396	136.227	 24.00249	 -1.07944	 24.05505	 23.03584	 -0.65407	 -1.26081	 30.01014	707.07202	 23.50	
 20.392	141.062	 24.00310	 -1.88752	 25.09629	 21.80357	  0.17938	 -1.28231	 30.01217	707.24799	 23.50	
 20.397	145.903	 24.01443	 -2.63887	 26.04315	 20.47896	  1.12629	 -1.31462	 30.02678	707.26501	 23.50	
 20.405	150.835	 23.96819	 -3.42533	 26.88230	 19.02139	  2.21387	 -1.35105	 30.01393	707.14398	 23.50	
 20.401	155.705	 23.95463	 -3.96476	 27.57732	 17.58147	  3.41043	 -1.37076	 29.99320	707.18597	 23.50	
 20.392	160.496	 23.90049	 -4.39802	 28.11391	 16.08121	  4.52032	 -1.35960	 29.99017	707.10999	 23.50	
 20.410	165.423	 23.84170	 -4.78566	 28.57561	 14.50814	  5.80114	 -1.34713	 29.99394	707.04401	 23.50	
 20.407	170.264	 23.81177	 -4.98129	 28.88153	 12.98944	  7.17372	 -1.31991	 30.01274	707.17200	 23.50	
 20.401	175.153	 23.75825	 -5.11558	 29.05591	 11.41685	  8.61036	 -1.30702	 30.02238	707.26703	 23.50	
  0.141	 45.000	 30.04891	 15.82357	 16.18601	 15.78697	 16.27431	  0.23445	 30.01514	707.25000	 23.50	
  4.001	128.691	 29.95918	 13.26916	 18.39433	 18.28617	 13.22931	  0.14183	 29.98364	707.16199	 23.50	
  4.002	 76.995	 29.96193	 16.38687	 15.32156	 18.88890	 12.66029	  0.14796	 29.97426	707.14398	 23.50	
  4.002	 25.892	 29.98217	 18.76605	 12.88210	 17.04542	 14.53216	  0.12985	 30.01886	707.06702	 23.50	
  4.002	-25.892	 29.92894	 18.69401	 12.73749	 13.76500	 17.76012	  0.10169	 30.01674	707.17999	 23.50	
  4.002	-76.995	 29.89877	 16.21820	 15.05520	 11.89902	 19.54083	  0.07715	 30.01386	707.17200	 23.50	
  4.001	-128.691	 29.89609	 13.11085	 18.20687	 12.55561	 18.89475	  0.10895	 30.00411	707.14099	 23.50	
  4.000	180.000	 29.94581	 11.92989	 19.71954	 15.49836	 16.03207	  0.14164	 30.02415	707.22400	 23.50	
  8.000	180.000	 29.29769	  7.61215	 22.81341	 14.75129	 15.30074	 -0.31778	 30.00016	707.16498	 23.50	
  7.991	-152.370	 29.19285	  8.33115	 21.84456	 11.29731	 18.68270	 -0.32772	 29.98745	707.28101	 23.50	
  7.997	-124.550	 29.15793	 10.48960	 19.32853	  8.68186	 21.35406	 -0.35933	 30.00630	707.21002	 23.50	
  8.006	-96.837	 29.16613	 13.66326	 15.91817	  7.44047	 22.64978	 -0.45838	 29.99858	707.22803	 23.50	
  7.988	-69.228	 29.21388	 17.09106	 12.49735	  7.96150	 22.30227	 -0.48354	 30.03115	707.37402	 23.50	
  7.997	-41.563	 29.22132	 20.16752	  9.84318	  9.86933	 20.26442	 -0.42025	 29.99133	707.28998	 23.50	
  8.008	-13.821	 29.33122	 21.97829	  8.54088	 12.93958	 17.28071	 -0.34291	 30.02295	707.42200	 23.50	
  8.008	 13.821	 29.38085	 22.09008	  8.66487	 16.55560	 13.69082	 -0.32729	 30.00556	707.20502	 23.50	
  7.997	 41.563	 29.45445	 20.48565	 10.26014	 19.60978	 10.77455	 -0.25964	 30.01872	707.32800	 23.40	
  7.988	 69.228	 29.52784	 17.58718	 13.03729	 21.69265	  8.85771	 -0.27540	 30.04986	707.29303	 23.50	
  8.006	 96.837	 29.50306	 14.10188	 16.44834	 22.17139	  8.38387	 -0.33180	 30.03806	707.15399	 23.50	
  7.997	124.550	 29.43338	 10.90666	 19.70001	 20.85496	  9.52596	 -0.32513	 30.00462	707.27899	 23.40	
  7.991	152.370	 29.41626	  8.57426	 22.06383	 18.16493	 12.04727	 -0.26758	 30.02169	707.24402	 23.50	
 12.009	161.059	 28.19823	  3.82577	 24.95378	 17.26637	 10.68426	 -0.81941	 30.02706	707.13397	 23.50	
 12.013	142.081	 28.21389	  5.35369	 23.22488	 20.47150	  7.38130	 -0.84366	 29.98990	707.10602	 23.40	
 12.006	123.113	 28.23900	  7.93050	 20.56008	 23.04611	  5.13326	 -0.90571	 29.97227	707.12402	 23.50	
 12.007	104.200	 28.28271	 11.33161	 17.23815	 24.61366	  4.02376	 -0.98277	 29.98883	707.11700	 23.50	
 11.989	 85.301	 28.32541	 14.81791	 13.70405	 24.90369	  3.93664	 -0.93849	 29.99065	707.17102	 23.50	
 12.013	 66.294	 28.30074	 18.41013	 10.25951	 23.91321	  4.65971	 -0.78573	 29.98960	707.15399	 23.40	
 12.012	 47.388	 28.28711	 21.51222	  7.47650	 21.73967	  6.38254	 -0.78646	 29.99384	707.13397	 23.40	
 11.990	 28.440	 28.24051	 23.80041	  5.36946	 18.80511	  9.04054	 -0.85982	 30.01785	707.00000	 23.40	
 11.991	  9.464	 28.15350	 24.93305	  4.23877	 15.48083	 12.58283	 -0.89791	 30.00003	707.03101	 23.40	
 11.991	 -9.464	 28.04873	 24.78146	  4.12322	 11.71291	 16.20667	 -0.86972	 29.96849	707.02698	 23.40	
 11.990	-28.440	 27.97790	 23.45784	  4.95166	  8.17685	 19.56422	 -0.84964	 29.98251	707.13397	 23.40	
 12.012	-47.388	 27.91496	 20.99687	  6.76651	  5.52309	 22.47611	 -0.94016	 29.99325	707.14398	 23.40	
 12.013	-66.294	 27.87749	 17.75340	  9.55680	  3.77172	 24.56534	 -1.03515	 30.01869	707.20001	 23.40	
 11.989	-85.301	 27.84328	 14.13691	 12.92582	  3.01684	 25.44139	 -1.05178	 30.00191	707.14099	 23.40	
 12.007	-104.200	 27.79489	 10.62269	 16.53600	  3.26717	 25.02288	 -1.01851	 29.98354	707.21002	 23.40	
 12.006	-123.113	 27.82969	  7.30353	 19.99734	  4.53618	 23.46009	 -0.85686	 30.01443	707.23297	 23.40	
 12.013	-142.081	 27.85984	  5.05307	 22.85683	  6.75509	 20.83761	 -0.87263	 29.99699	707.22498	 23.40	
 12.009	-161.059	 27.95227	  3.68697	 24.76059	  9.93130	 17.68977	 -0.90751	 30.01764	707.12903	 23.40	
 16.000	180.000	 26.23034	 -0.97861	 27.49137	 11.92377	 12.41494	 -1.33959	 29.97560	707.16302	 23.40	
 15.990	-165.604	 26.09254	 -0.59611	 26.99006	  8.27658	 16.01650	 -1.34528	 29.99604	707.12598	 23.40	
 16.002	-151.165	 26.02743	  0.37567	 25.58137	  5.20576	 19.44833	 -1.31942	 30.02355	707.14398	 23.40	
 16.002	-136.836	 25.91022	  1.96582	 23.25928	  2.60214	 22.52465	 -1.24826	 29.99554	707.14899	 23.40	
 15.995	-122.439	 25.88478	  4.23184	 20.26842	  0.60395	 25.02678	 -1.19413	 30.00940	707.19299	 23.40	
 15.993	-107.966	 25.87706	  7.11039	 16.77560	 -0.65218	 26.71024	 -1.22328	 29.99932	706.95398	 23.40	
 16.005	-93.629	 25.82885	 10.56543	 13.13457	 -1.34807	 27.47473	 -1.15195	 29.97792	707.01300	 23.40	
 15.992	-79.234	 25.90930	 14.27398	  9.58472	 -1.16824	 27.35005	 -1.03437	 30.01472	707.09900	 23.40	
 16.009	-64.774	 25.94816	 17.86601	  6.34554	 -0.21220	 26.26016	 -1.06231	 30.01124	707.11298	 23.40	
 15.997	-50.364	 26.01507	 21.25598	  3.68973	  1.41807	 24.24521	 -1.07315	 29.99293	707.10999	 23.40	
 15.997	-36.045	 26.08411	 24.02053	  1.68920	  3.67820	 21.45769	 -1.03979	 29.98888	707.09198	 23.40	
 16.000	-21.597	 26.19354	 26.02284	  0.44097	  6.55676	 18.28231	 -1.02395	 30.00950	707.11499	 23.40	
 16.003	 -7.169	 26.25572	 27.05631	 -0.15633	  9.99582	 14.66286	 -1.03586	 29.97548	707.04999	 23.40	
 16.003	  7.169	 26.33549	 27.15870	 -0.05487	 13.79110	 10.85096	 -1.04489	 29.97715	707.07898	 23.40	
 16.000	 21.597	 26.42874	 26.35965	  0.72519	 17.46210	  7.47626	 -1.08743	 30.01546	707.12299	 23.40	
 15.997	 36.045	 26.49664	 24.60117	  2.28516	 20.71328	  4.64191	 -1.13528	 30.01601	707.14001	 23.40	
 15.997	 50.364	 26.51085	 22.00777	  4.45490	 23.52099	  2.38824	 -1.10290	 29.99895	707.11798	 23.40	
 16.009	 64.774	 26.54319	 18.76898	  7.26851	 25.66615	  0.81916	 -1.13895	 29.98969	707.16498	 23.40	
 15.992	 79.234	 26.55391	 15.21431	 10.51478	 26.93049	 -0.13557	 -1.25355	 30.02387	707.18903	 23.40	
 16.005	 93.629	 26.51013	 11.68886	 13.96738	 27.19642	 -0.40945	 -1.22666	 29.99788	707.14899	 23.40	
 15.993	107.966	 26.52611	  8.02299	 17.48042	 26.49677	  0.22445	 -1.21108	 30.01433	707.07501	 23.40	
 15.995	122.439	 26.49751	  4.97214	 20.81218	 24.81136	  1.32914	 -1.24652	 29.97915	707.07501	 23.30	
 16.002	136.836	 26.48486	  2.42907	 23.68974	 22.29848	  3.15478	 -1.22708	 30.00242	707.15503	 23.30	
 16.002	151.165	 26.52905	  0.67339	 25.85412	 19.23492	  5.60927	 -1.21666	 30.04013	707.14801	 23.30	
 15.990	165.604	 26.38331	 -0.47550	 27.12162	 15.70965	  8.78264	 -1.26886	 29.98625	707.12097	 23.30	
 20.003	168.362	 24.07491	 -4.53887	 28.66509	 13.69334	  6.87549	 -1.33507	 29.98262	707.09497	 23.30	
 20.008	156.764	 24.21391	 -3.72404	 27.67792	 17.35280	  3.91765	 -1.36078	 30.04551	707.08398	 23.30	
 20.000	145.147	 24.20783	 -2.19820	 25.82922	 20.66325	  1.27019	 -1.31313	 29.96709	707.05603	 23.30	
 19.995	133.545	 24.24391	 -0.28254	 23.45795	 23.61882	 -0.73619	 -1.24080	 30.00142	707.17102	 23.30	
 20.009	121.926	 24.20533	  2.04807	 20.52564	 26.01778	 -2.36103	 -1.07715	 29.98935	707.23602	 23.30	
 20.005	110.327	 24.21183	  4.81203	 17.36093	 27.71566	 -3.60444	 -0.89769	 30.01707	707.08398	 23.30	
 19.989	 98.733	 24.21372	  8.03012	 13.90096	 28.58880	 -4.22999	 -0.86731	 29.98088	707.02197	 23.30	
 19.999	 87.075	 24.19165	 11.61637	 10.38546	 28.74715	 -4.52200	 -0.93884	 29.98483	707.05103	 23.30	
 19.992	 75.457	 24.23464	 15.13815	  7.18143	 28.15484	 -3.99063	 -1.12975	 29.98611	706.99103	 23.30	
 20.009	 63.844	 24.28199	 18.68898	  4.17527	 26.83187	 -2.86181	 -1.21199	 30.01000	707.09900	 23.30	
 19.989	 52.269	 24.27857	 21.88155	  1.60067	 24.76451	 -1.45568	 -1.15221	 30.02089	707.03900	 23.30	
 19.999	 40.602	 24.24163	 24.66154	 -0.54515	 22.01842	  0.55373	 -1.01504	 30.01472	706.89301	 23.30	
 20.004	 29.051	 24.15097	 26.77765	 -2.25554	 18.86563	  2.95746	 -0.84170	 29.99124	706.94897	 23.30	
 20.005	 17.433	 24.08236	 28.15102	 -3.40985	 15.41576	  5.80196	 -0.75300	 29.98310	707.01398	 23.30	
 20.006	  5.780	 24.01400	 28.79258	 -4.02676	 11.78422	  9.04420	 -0.73877	 30.00113	707.04199	 23.30	
 20.006	 -5.780	 23.95696	 28.69018	 -3.98440	  8.14698	 12.64927	 -0.76079	 29.99870	706.99701	 23.30	
 20.005	-17.433	 23.85857	 27.83117	 -3.61921	  4.84074	 16.34422	 -0.81484	 29.98109	707.02802	 23.30	
 20.004	-29.051	 23.78952	 26.22471	 -2.78125	  1.97356	 19.77218	 -0.86719	 29.99844	707.12598	 23.30	
 19.999	-40.602	 23.73544	 23.90699	 -1.36681	 -0.51953	 22.78393	 -0.84356	 30.01761	706.98199	 23.30	
 19.989	-52.269	 23.58090	 20.88615	  0.48009	 -2.65187	 25.43751	 -0.79545	 30.02424	706.94897	 23.30	
 20.009	-63.844	 23.50108	 17.48096	  3.14664	 -4.09014	 27.35103	 -0.72310	 30.00652	706.96002	 23.30	
 19.992	-75.457	 23.40001	 13.99211	  6.02269	 -5.09033	 28.50470	 -0.67604	 29.97283	707.06702	 23.30	
 19.999	-87.075	 23.37090	 10.32638	  9.34313	 -5.25982	 28.95953	 -0.68853	 29.97909	707.03101	 23.30	
 19.989	-98.733	 23.37259	  6.92857	 12.86457	 -5.07203	 28.73628	 -0.80410	 29.99649	706.88501	 23.30	
 20.005	-110.327	 23.38156	  3.94100	 16.42926	 -4.41655	 27.80089	 -1.12019	 30.01125	706.92902	 23.30	
 20.009	-121.926	 23.38401	  1.24522	 19.86788	 -3.17100	 26.06927	 -1.25651	 29.99396	706.97699	 23.30	
 19.995	-133.545	 23.42873	 -1.03046	 22.99440	 -1.49074	 23.67524	 -1.24274	 30.01032	707.02002	 23.30	
 20.000	-145.147	 23.56527	 -2.61882	 25.58510	  0.87191	 20.73428	 -1.28765	 30.00180	707.16803	 23.30	
 20.008	-156.764	 23.65541	 -3.90751	 27.51063	  3.51357	 17.49281	 -1.20712	 30.05206	706.88702	 23.30	
 20.003	-168.362	 23.75232	 -4.56971	 28.58161	  6.62945	 13.92008	 -1.18539	 29.98445	706.90997	 23.30	
 20.000	180.000	 23.89874	 -4.81093	 28.95403	 10.02142	 10.29944	 -1.24745	 29.96593	706.96503	 23.30	
