FileType=PCF
NHL=14
Date=08/29/17	18:52:49
Facility=APL
Serial=16328-16
Customer=NASA
NP=6
Mach=0.250000
Calibration=1:1
CalPts=490
TstPts=95
PortNumbering=AP Standard
Units=Torr C m/s kg/m^3 deg mm 
Theta[deg]	Phi[deg]	P1[Torr]	P2[Torr]	P3[Torr]	P4[Torr]	P5[Torr]	P6[Torr]	Pt[Torr]	Ps[Abs,Torr]	Ts[C]	
  0.000	  0.000	 30.75834	 16.57089	 16.46235	 16.44192	 17.19542	  0.28802	 30.71476	706.20001	 25.10	
  1.691	128.401	 30.72462	 15.67239	 17.44122	 17.60098	 15.92689	  0.28363	 30.67389	706.78003	 25.10	
  1.692	 77.194	 30.68371	 16.84577	 16.01121	 17.89145	 15.59084	  0.28200	 30.64100	706.42902	 25.00	
  1.699	 26.182	 30.71039	 17.91016	 15.00163	 17.09063	 16.37728	  0.26342	 30.66342	705.28003	 25.00	
  1.699	-26.182	 30.70773	 17.86922	 15.01154	 15.68229	 17.77268	  0.26385	 30.66237	704.61603	 25.00	
  1.692	-77.194	 30.73322	 16.79928	 16.07273	 14.84018	 18.59647	  0.26496	 30.69711	706.69202	 25.00	
  1.691	-128.401	 30.72584	 15.59862	 17.47541	 15.10733	 18.33770	  0.27253	 30.68298	704.65802	 25.00	
  1.700	180.000	 30.68142	 15.04213	 18.03390	 16.34066	 17.12883	  0.28843	 30.63955	704.63599	 25.00	
  3.400	180.000	 30.64589	 13.39610	 19.41311	 16.19724	 17.00836	  0.22674	 30.64771	706.71802	 25.00	
  3.388	-152.325	 30.65539	 13.70330	 19.15216	 14.74590	 18.42364	  0.23023	 30.67717	704.62402	 25.00	
  3.397	-124.529	 30.62866	 14.63348	 18.17305	 13.56277	 19.46873	  0.20801	 30.64636	706.15503	 25.00	
  3.399	-96.763	 30.62674	 15.94326	 16.71378	 12.96854	 19.93751	  0.15399	 30.65197	704.64697	 25.00	
  3.394	-69.283	 30.57551	 17.30395	 15.15210	 13.16027	 19.72490	  0.18318	 30.60122	705.13098	 25.00	
  3.400	-41.398	 30.62864	 18.62263	 13.95318	 14.13457	 18.91733	  0.19011	 30.64709	705.75800	 25.00	
  3.401	-14.021	 30.65238	 19.37338	 13.27332	 15.48659	 17.66506	  0.20216	 30.66794	705.16498	 25.00	
  3.401	 14.021	 30.66057	 19.40855	 13.24279	 17.02705	 16.16206	  0.20723	 30.66663	705.57501	 25.00	
  3.400	 41.398	 30.65132	 18.73490	 13.89788	 18.34671	 14.92169	  0.21549	 30.65039	706.72101	 25.00	
  3.394	 69.283	 30.65372	 17.51088	 15.14875	 19.21000	 14.11775	  0.22597	 30.64956	706.76300	 25.00	
  3.399	 96.763	 30.66937	 16.15017	 16.74761	 19.37278	 13.97487	  0.22851	 30.66340	706.82599	 25.00	
  3.397	124.529	 30.62348	 14.77082	 18.12873	 18.82929	 14.48059	  0.22219	 30.62040	706.75500	 25.00	
  3.388	152.325	 30.66892	 13.79713	 19.12054	 17.68140	 15.61008	  0.23112	 30.65976	704.78497	 25.00	
  5.099	161.165	 30.50998	 11.88963	 20.57620	 17.51671	 15.35593	  0.09921	 30.64433	704.98102	 25.00	
  5.109	142.013	 30.52872	 12.67733	 19.86073	 18.91897	 14.03439	  0.11006	 30.65814	706.74902	 25.00	
  5.095	123.033	 30.53565	 13.83033	 18.70913	 19.98495	 13.03117	  0.07192	 30.65939	704.54498	 25.00	
  5.105	104.191	 30.45777	 15.17056	 17.28389	 20.56245	 12.36812	  0.10382	 30.57824	704.56799	 25.00	
  5.093	 85.207	 30.51282	 16.63938	 15.64602	 20.73613	 12.21735	  0.12324	 30.64456	704.65198	 25.00	
  5.104	 66.290	 30.52621	 18.09195	 14.20969	 20.38896	 12.57675	  0.09173	 30.66364	704.84399	 25.00	
  5.094	 47.331	 30.47670	 19.36585	 12.90497	 19.50240	 13.37737	  0.10008	 30.61508	704.51801	 25.00	
  5.089	 28.397	 30.46835	 20.32800	 11.88974	 18.23509	 14.51206	  0.07936	 30.62156	706.69501	 25.10	
  5.096	  9.576	 30.46212	 20.83722	 11.31540	 16.80757	 15.86022	  0.06336	 30.62274	704.65002	 25.00	
  5.096	 -9.576	 30.45455	 20.79478	 11.33731	 15.21272	 17.41522	  0.03018	 30.62676	704.67200	 25.00	
  5.089	-28.397	 30.44067	 20.24248	 11.84326	 13.71536	 18.81637	  0.06821	 30.62204	704.70398	 25.00	
  5.094	-47.331	 30.42156	 19.19068	 12.88483	 12.43435	 19.96848	 -0.02235	 30.61913	704.62500	 25.10	
  5.104	-66.290	 30.42089	 17.83885	 14.18551	 11.66335	 20.89024	 -0.04519	 30.62591	704.67798	 25.00	
  5.093	-85.207	 30.45662	 16.40604	 15.65152	 11.33664	 21.32309	  0.03410	 30.66299	704.60999	 25.00	
  5.105	-104.191	 30.42193	 14.93469	 17.25210	 11.42595	 21.18619	 -0.02345	 30.62900	705.43701	 25.00	
  5.095	-123.033	 30.38068	 13.58713	 18.64872	 11.95755	 20.50789	  0.08187	 30.57270	706.82501	 25.00	
  5.109	-142.013	 30.41978	 12.49474	 19.76795	 12.89807	 19.54698	  0.03926	 30.59541	704.60199	 25.00	
  5.099	-161.165	 30.46129	 11.80501	 20.51593	 14.44155	 18.26509	  0.05626	 30.62030	706.72601	 25.00	
  5.100	180.000	 30.45192	 11.57804	 20.72600	 15.95479	 16.75753	  0.12886	 30.59946	706.73999	 25.00	
  6.800	180.000	 30.20895	  9.79887	 22.05750	 15.65022	 16.47160	 -0.02017	 30.61636	704.62500	 25.00	
  6.796	-166.229	 30.17230	  9.91261	 21.84000	 14.09978	 17.93908	 -0.11968	 30.60077	706.69000	 25.00	
  6.808	-152.311	 30.17498	 10.35145	 21.26708	 12.55122	 19.31210	 -0.13078	 30.61857	704.63501	 25.00	
  6.795	-138.383	 30.15519	 11.11958	 20.45444	 11.47025	 20.49042	 -0.14594	 30.61416	706.78302	 25.00	
  6.792	-124.591	 30.13543	 12.22152	 19.33901	 10.62468	 21.53659	 -0.16707	 30.61676	706.59497	 25.00	
  6.787	-110.754	 30.11951	 13.50475	 17.99463	  9.97082	 22.22314	 -0.20571	 30.61946	705.76703	 25.00	
  6.800	-96.985	 30.10688	 14.89843	 16.43398	  9.66065	 22.55801	 -0.25290	 30.61486	706.65698	 25.00	
  6.800	-83.015	 30.15522	 16.38001	 14.96111	  9.66357	 22.58205	 -0.26913	 30.66183	706.07397	 25.00	
  6.787	-69.246	 30.14580	 17.82476	 13.50486	  9.99742	 22.18709	 -0.26753	 30.64105	704.51099	 25.00	
  6.792	-55.409	 30.13086	 19.22100	 12.08286	 10.58559	 21.44192	 -0.25890	 30.62695	704.48602	 25.00	
  6.795	-41.617	 30.13805	 20.43160	 11.03407	 11.51787	 20.32053	 -0.22236	 30.61254	704.55200	 25.00	
  6.808	-27.689	 30.15570	 21.40040	 10.26672	 12.60516	 19.14981	 -0.18402	 30.61797	704.53699	 25.00	
  6.796	-13.771	 30.15943	 21.97873	  9.76591	 14.10384	 17.75090	 -0.15576	 30.61435	704.69800	 25.00	
  6.800	  0.000	 30.19923	 22.21761	  9.60204	 15.67571	 16.29825	 -0.15157	 30.63374	704.62799	 25.00	
  6.796	 13.771	 30.15386	 22.04296	  9.71211	 17.15488	 14.84145	 -0.08375	 30.58299	704.63599	 25.00	
  6.808	 27.689	 30.20805	 21.55465	 10.21531	 18.63008	 13.49952	 -0.09636	 30.63002	704.66400	 25.00	
  6.795	 41.617	 30.21395	 20.68019	 10.97306	 19.90072	 12.31272	 -0.04519	 30.62177	704.59998	 25.00	
  6.792	 55.409	 30.17372	 19.43549	 12.16476	 20.88841	 11.26393	 -0.07947	 30.56473	704.63300	 25.00	
  6.787	 69.246	 30.27540	 18.13450	 13.55318	 21.66680	 10.71661	 -0.08538	 30.66058	706.59698	 25.00	
  6.800	 83.015	 30.25265	 16.70013	 14.97658	 21.97582	 10.40775	 -0.10499	 30.62402	704.62701	 25.00	
  6.800	 96.985	 30.26420	 15.32149	 16.45143	 21.98622	 10.41105	 -0.06034	 30.63246	704.72803	 25.00	
  6.787	110.754	 30.24395	 13.87886	 18.02911	 21.54807	 10.73005	 -0.13330	 30.61469	704.63501	 25.00	
  6.792	124.591	 30.26957	 12.56385	 19.38650	 20.91065	 11.38974	 -0.12127	 30.62692	704.51801	 25.00	
  6.795	138.383	 30.28774	 11.44537	 20.50683	 19.90720	 12.49764	 -0.09689	 30.65003	704.85303	 25.00	
  6.808	152.311	 30.26068	 10.52828	 21.31628	 18.60644	 13.70910	 -0.07260	 30.62968	704.78003	 25.00	
  6.796	166.229	 30.25749	 10.02486	 21.87612	 17.17916	 15.08145	 -0.09982	 30.64537	705.69299	 25.00	
  8.491	168.704	 29.85224	  8.33029	 23.13203	 16.81009	 14.62920	 -0.33032	 30.60941	704.64899	 25.00	
  8.502	157.493	 29.86757	  8.73704	 22.69915	 18.23407	 13.18562	 -0.32135	 30.62483	705.39001	 25.00	
  8.494	146.194	 29.91417	  9.40799	 21.95490	 19.70193	 11.80231	 -0.32051	 30.63807	704.74500	 25.00	
  8.495	135.039	 29.88704	 10.19208	 20.97519	 20.89301	 10.67217	 -0.33746	 30.61656	704.58301	 25.00	
  8.487	123.723	 29.90090	 11.39554	 19.81241	 21.85409	  9.88459	 -0.36128	 30.62129	704.53699	 25.00	
  8.492	112.575	 29.91848	 12.71165	 18.48400	 22.64245	  9.30464	 -0.39302	 30.63240	704.53998	 25.00	
  8.510	101.220	 29.87019	 14.16963	 16.95957	 23.08022	  8.88345	 -0.37578	 30.58709	705.08801	 25.00	
  8.500	 90.000	 29.91966	 15.67001	 15.35928	 23.26811	  8.75052	 -0.36177	 30.64045	704.75201	 25.00	
  8.510	 78.780	 29.87094	 17.07333	 13.78403	 23.10215	  8.82231	 -0.33904	 30.60466	704.67499	 25.00	
  8.492	 67.425	 29.84300	 18.53409	 12.23720	 22.60871	  9.19691	 -0.31224	 30.58667	704.68903	 25.00	
  8.487	 56.277	 29.91358	 19.96305	 10.92878	 21.89801	  9.81672	 -0.28554	 30.68083	704.60199	 25.00	
  8.495	 44.961	 29.85379	 21.20493	  9.86582	 20.89075	 10.56634	 -0.30075	 30.63515	704.62799	 25.00	
  8.494	 33.806	 29.82433	 22.16381	  9.01566	 19.67954	 11.51041	 -0.30946	 30.62320	704.59100	 25.00	
  8.502	 22.507	 29.81116	 22.91001	  8.36714	 18.25429	 12.91599	 -0.34339	 30.61562	704.61102	 25.00	
  8.491	 11.296	 29.79176	 23.32999	  7.95487	 16.80517	 14.35703	 -0.37245	 30.59868	704.61102	 25.00	
  8.500	  0.000	 29.79067	 23.47048	  7.84454	 15.22835	 15.87374	 -0.38310	 30.61345	704.63202	 25.00	
  8.491	-11.296	 29.79800	 23.29024	  7.99988	 13.61566	 17.29663	 -0.39025	 30.63296	704.65198	 25.00	
  8.502	-22.507	 29.73596	 22.75985	  8.40912	 12.17179	 18.79904	 -0.40690	 30.58564	704.65900	 25.00	
  8.494	-33.806	 29.76370	 21.98900	  9.00220	 10.91117	 20.11420	 -0.43541	 30.63346	705.39801	 25.00	
  8.495	-44.961	 29.73919	 20.93114	  9.84936	  9.85566	 21.41269	 -0.48985	 30.62428	704.68701	 25.00	
  8.487	-56.277	 29.72000	 19.63396	 10.89541	  8.99724	 22.39973	 -0.52796	 30.61142	704.73700	 25.00	
  8.492	-67.425	 29.72048	 18.22080	 12.08758	  8.41556	 23.13292	 -0.53912	 30.62045	704.58002	 25.00	
  8.510	-78.780	 29.72561	 16.69676	 13.74987	  8.00378	 23.65553	 -0.54785	 30.63247	704.67297	 25.00	
  8.500	-90.000	 29.69204	 15.22122	 15.25949	  7.87999	 23.79945	 -0.52848	 30.59415	704.51099	 25.00	
  8.510	-101.220	 29.70348	 13.73804	 16.79597	  8.00709	 23.67299	 -0.50590	 30.61029	704.67999	 25.00	
  8.492	-112.575	 29.72135	 12.28298	 18.39020	  8.40394	 23.21911	 -0.43590	 30.61582	704.54901	 25.00	
  8.487	-123.723	 29.72288	 10.97333	 19.72034	  9.00257	 22.50234	 -0.38956	 30.60404	704.78198	 25.00	
  8.495	-135.039	 29.76595	  9.90137	 20.91507	  9.88153	 21.57557	 -0.35288	 30.63450	704.71198	 25.00	
  8.494	-146.194	 29.77497	  9.11918	 21.88228	 10.94475	 20.28541	 -0.35425	 30.61926	706.90399	 25.00	
  8.502	-157.493	 29.81613	  8.56547	 22.66963	 12.12876	 19.04569	 -0.34777	 30.63745	704.75098	 25.00	
  8.491	-168.704	 29.82668	  8.24996	 23.12187	 13.54946	 17.62287	 -0.33452	 30.62454	706.73999	 25.00	
  8.500	180.000	 29.86235	  8.15825	 23.31248	 15.23825	 16.12852	 -0.33393	 30.63456	704.72803	 25.00	
 10.200	180.000	 29.31768	  6.41651	 24.44502	 14.68752	 15.63906	 -0.58152	 30.58995	704.59601	 25.00	
 10.191	-170.497	 29.34186	  6.53839	 24.32540	 13.02685	 17.10738	 -0.59889	 30.63014	704.59998	 25.00	
 10.210	-161.034	 29.27944	  6.76435	 23.88567	 11.66460	 18.61978	 -0.59837	 30.59469	704.61798	 25.00	
 10.194	-151.526	 29.25275	  7.21226	 23.21198	 10.38523	 19.93532	 -0.58289	 30.58216	704.76801	 25.00	
 10.190	-142.105	 29.25179	  7.87178	 22.35052	  9.21068	 21.31243	 -0.57918	 30.61758	704.72803	 25.00	
 10.215	-132.646	 29.19669	  8.67697	 21.22094	  8.16193	 22.43819	 -0.57515	 30.58125	704.68298	 25.00	
 10.203	-123.092	 29.17633	  9.72083	 20.03461	  7.31394	 23.42931	 -0.61927	 30.57949	705.44098	 25.00	
 10.192	-113.678	 29.19662	 10.99674	 18.68462	  6.70602	 24.20809	 -0.67476	 30.61841	704.68298	 25.00	
 10.208	-104.249	 29.15231	 12.38188	 17.16455	  6.23169	 24.70913	 -0.75401	 30.59500	704.63300	 25.00	
 10.210	-94.801	 29.15413	 13.95402	 15.56375	  5.98978	 24.97356	 -0.81275	 30.60256	704.71100	 25.00	
 10.210	-85.199	 29.13506	 15.45866	 13.93358	  6.00056	 24.94265	 -0.83938	 30.58406	704.59998	 25.00	
 10.208	-75.751	 29.16081	 16.95471	 12.24128	  6.22676	 24.66252	 -0.83862	 30.60769	704.71399	 25.00	
 10.192	-66.322	 29.16780	 18.47681	 10.92120	  6.67897	 24.09500	 -0.81693	 30.59206	704.74298	 25.00	
 10.203	-56.908	 29.19494	 19.94351	  9.70844	  7.27594	 23.32186	 -0.78925	 30.61950	704.68701	 25.00	
 10.215	-47.354	 29.14700	 21.25058	  8.57181	  8.12178	 22.26706	 -0.75079	 30.55505	704.74902	 25.00	
 10.190	-37.895	 29.21826	 22.42135	  7.70504	  9.16754	 21.09736	 -0.71147	 30.61329	704.69397	 25.00	
 10.194	-28.474	 29.23491	 23.35126	  7.00540	 10.33639	 19.76062	 -0.67393	 30.60191	704.85498	 24.90	
 10.210	-18.966	 29.25099	 24.05902	  6.50377	 11.63906	 18.37250	 -0.66434	 30.60132	705.46600	 25.00	
 10.191	 -9.503	 29.27337	 24.47856	  6.17690	 12.98666	 16.83447	 -0.64826	 30.59820	704.75098	 25.00	
 10.200	  0.000	 29.29406	 24.66032	  5.99735	 14.68725	 15.36810	 -0.63855	 30.60823	704.72601	 24.90	
 10.191	  9.503	 29.30573	 24.55944	  6.08005	 16.33668	 13.80298	 -0.63948	 30.61399	704.74597	 25.00	
 10.210	 18.966	 29.31878	 24.21613	  6.39085	 17.84310	 12.23028	 -0.62938	 30.62481	704.62402	 25.00	
 10.194	 28.474	 29.28803	 23.52846	  7.01251	 19.25569	 10.91912	 -0.59100	 30.58581	704.80701	 25.00	
 10.190	 37.895	 29.32773	 22.67582	  7.75010	 20.62968	  9.90313	 -0.55151	 30.61460	704.78198	 25.00	
 10.215	 47.354	 29.31643	 21.58786	  8.63380	 21.76765	  8.91583	 -0.54694	 30.59975	704.76501	 25.00	
 10.203	 56.908	 29.34730	 20.31152	  9.72450	 22.78904	  8.11616	 -0.53935	 30.60117	704.64899	 25.00	
 10.192	 66.322	 29.37625	 18.89929	 10.94884	 23.56168	  7.53278	 -0.54847	 30.60647	704.75201	 25.00	
 10.208	 75.751	 29.36028	 17.39235	 12.35415	 24.09482	  7.11445	 -0.56858	 30.57879	704.57599	 25.00	
 10.210	 85.199	 29.35201	 15.94383	 13.99445	 24.36464	  6.90452	 -0.62290	 30.56452	704.73401	 25.00	
 10.210	 94.801	 29.41234	 14.46583	 15.62598	 24.39690	  6.96378	 -0.66754	 30.61606	704.69702	 25.00	
 10.208	104.249	 29.42639	 12.95757	 17.26003	 24.12448	  7.21363	 -0.68932	 30.61946	704.64398	 25.00	
 10.192	113.678	 29.44391	 11.44933	 18.73950	 23.58240	  7.68908	 -0.66195	 30.62159	704.82098	 25.00	
 10.203	123.092	 29.40281	 10.14347	 20.09773	 22.81079	  8.28005	 -0.63129	 30.58936	704.81299	 25.00	
 10.215	132.646	 29.40857	  9.09410	 21.31262	 21.81818	  9.08798	 -0.59513	 30.60283	704.82202	 25.00	
 10.190	142.105	 29.41298	  8.19717	 22.41851	 20.65479	 10.08287	 -0.56962	 30.61324	704.80499	 25.00	
 10.194	151.526	 29.37787	  7.48045	 23.29021	 19.29843	 11.14340	 -0.56655	 30.58946	704.69397	 25.00	
 10.210	161.034	 29.38539	  6.91752	 23.97433	 17.84557	 12.61245	 -0.56548	 30.61638	704.67999	 25.00	
 10.191	170.497	 29.36447	  6.58905	 24.33664	 16.35262	 14.12113	 -0.56402	 30.60773	704.56897	 25.00	
 11.899	171.783	 28.75785	  4.76377	 25.46342	 15.77900	 13.52232	 -0.80889	 30.60342	704.75201	 25.00	
 11.890	163.610	 28.76379	  5.08857	 25.10750	 17.32137	 11.91742	 -0.80128	 30.57926	704.78400	 25.00	
 11.889	155.445	 28.79670	  5.55083	 24.55462	 18.78325	 10.61243	 -0.79953	 30.58499	704.70898	 25.00	
 11.909	147.299	 28.84493	  6.14107	 23.80670	 20.26947	  9.45833	 -0.80806	 30.63040	704.77698	 25.00	
 11.902	139.148	 28.82230	  6.93278	 22.78041	 21.51394	  8.32962	 -0.81133	 30.60496	704.82397	 25.00	
 11.894	130.867	 28.86255	  7.94492	 21.59814	 22.70685	  7.39811	 -0.84177	 30.62657	704.97400	 25.00	
 11.897	122.732	 28.84022	  9.01911	 20.35613	 23.68360	  6.59911	 -0.89206	 30.60251	704.72101	 25.00	
 11.903	114.597	 28.85110	 10.17648	 18.94316	 24.51239	  5.97795	 -0.94394	 30.62839	704.86298	 25.00	
 11.893	106.346	 28.87601	 11.59313	 17.47998	 25.10513	  5.53355	 -0.97774	 30.64424	704.72101	 25.00	
 11.892	 98.155	 28.83285	 13.17223	 15.86452	 25.41857	  5.22668	 -0.96901	 30.61232	704.82703	 24.90	
 11.900	 90.000	 28.83226	 14.69873	 14.24162	 25.54128	  5.10337	 -0.93161	 30.61524	704.75098	 25.00	
 11.892	 81.845	 28.79319	 16.17565	 12.58363	 25.37960	  5.21130	 -0.86168	 30.57773	704.93201	 25.00	
 11.893	 73.654	 28.82129	 17.67241	 11.11298	 25.04705	  5.46128	 -0.79850	 30.62293	704.83899	 25.00	
 11.903	 65.403	 28.79270	 19.18990	  9.72490	 24.44784	  5.85024	 -0.75934	 30.62287	704.80701	 25.00	
 11.897	 57.268	 28.72874	 20.57806	  8.51749	 23.57922	  6.43611	 -0.76069	 30.56698	704.66998	 25.00	
 11.894	 49.133	 28.69997	 21.86741	  7.44758	 22.57427	  7.20551	 -0.76488	 30.56253	704.95599	 25.00	
 11.902	 40.852	 28.68538	 23.03374	  6.48475	 21.45693	  8.12293	 -0.79481	 30.56997	704.89398	 25.00	
 11.909	 32.701	 28.70664	 24.02755	  5.69648	 20.20875	  9.21767	 -0.83222	 30.60390	704.75098	 25.00	
 11.889	 24.555	 28.70694	 24.78010	  5.07201	 18.71849	 10.38256	 -0.86677	 30.60094	704.92902	 25.00	
 11.890	 16.390	 28.69986	 25.32425	  4.62215	 17.29714	 11.60642	 -0.90218	 30.60546	704.92297	 25.00	
 11.899	  8.217	 28.69122	 25.65775	  4.20462	 15.75682	 13.14976	 -0.90929	 30.61388	704.89801	 25.00	
 11.900	  0.000	 28.67995	 25.72945	  4.19957	 13.95786	 14.74635	 -0.89322	 30.59556	704.79700	 25.00	
 11.899	 -8.217	 28.65666	 25.57779	  4.30782	 12.47939	 16.28712	 -0.88239	 30.58134	704.81598	 25.00	
 11.890	-16.390	 28.66172	 25.21423	  4.61794	 11.10521	 17.80054	 -0.88231	 30.60139	704.91101	 25.00	
 11.889	-24.555	 28.61050	 24.58462	  5.00928	  9.74643	 19.23879	 -0.89025	 30.58652	704.88702	 25.00	
 11.909	-32.701	 28.58933	 23.76785	  5.60427	  8.49217	 20.61538	 -0.91420	 30.58709	704.89398	 25.00	
 11.902	-40.852	 28.59940	 22.76010	  6.40115	  7.38737	 21.96267	 -0.94295	 30.61185	704.86700	 25.00	
 11.894	-49.133	 28.56344	 21.52306	  7.36089	  6.39430	 23.11118	 -0.98854	 30.59847	704.93402	 25.00	
 11.897	-57.268	 28.55544	 20.17797	  8.48028	  5.57835	 24.13623	 -1.03208	 30.60461	704.84601	 25.00	
 11.903	-65.403	 28.55845	 18.71889	  9.71508	  4.95974	 24.95894	 -1.06073	 30.62349	704.94501	 25.00	
 11.893	-73.654	 28.52919	 17.16039	 11.01981	  4.53927	 25.51943	 -1.06768	 30.58355	704.94800	 25.00	
 11.892	-81.845	 28.54165	 15.64558	 12.43981	  4.28620	 25.88509	 -1.06079	 30.59611	704.93402	 25.00	
 11.900	-90.000	 28.53345	 14.14608	 14.10587	  4.16601	 26.03104	 -1.04375	 30.60344	704.83002	 25.00	
 11.892	-98.155	 28.52840	 12.54096	 15.72797	  4.28512	 25.92997	 -1.01712	 30.59598	704.85199	 25.00	
 11.893	-106.346	 28.56585	 11.09809	 17.34500	  4.58587	 25.63756	 -0.97380	 30.62593	704.82898	 25.00	
 11.903	-114.597	 28.56439	  9.71571	 18.89854	  5.00968	 25.08915	 -0.90648	 30.62560	704.88397	 25.00	
 11.897	-122.732	 28.55088	  8.53390	 20.23539	  5.63085	 24.27861	 -0.83298	 30.58341	704.82098	 25.00	
 11.894	-130.867	 28.62581	  7.52599	 21.50947	  6.47701	 23.34298	 -0.79362	 30.64047	704.77301	 24.90	
 11.902	-139.148	 28.65483	  6.66349	 22.69988	  7.45060	 22.19361	 -0.79421	 30.63856	704.91101	 25.00	
 11.909	-147.299	 28.63614	  5.90946	 23.67120	  8.54137	 20.89668	 -0.82372	 30.59842	704.84698	 25.00	
 11.889	-155.445	 28.70738	  5.36567	 24.49967	  9.80326	 19.56995	 -0.84463	 30.63604	704.93701	 24.90	
 11.890	-163.610	 28.72298	  4.97040	 25.07273	 11.17696	 18.06723	 -0.87081	 30.62767	704.80798	 24.90	
 11.899	-171.783	 28.79048	  4.73289	 25.49128	 12.52486	 16.64144	 -0.86266	 30.67737	704.91498	 25.00	
 11.900	180.000	 28.73334	  4.64816	 25.55854	 14.01283	 15.09102	 -0.84108	 30.59838	704.83197	 25.00	
 13.600	180.000	 28.05482	  2.86691	 26.58036	 13.39756	 14.45788	 -1.08509	 30.61507	704.90100	 25.00	
 13.608	-172.853	 28.03100	  2.88550	 26.48056	 11.97723	 15.98644	 -1.10676	 30.62510	704.94800	 25.00	
 13.611	-165.583	 28.01840	  3.09414	 26.15861	 10.55644	 17.42990	 -1.12009	 30.63405	704.77002	 25.00	
 13.601	-158.353	 27.97331	  3.43769	 25.61853	  9.15895	 18.96811	 -1.11139	 30.61542	704.93103	 25.00	
 13.609	-151.210	 27.95795	  3.91769	 24.91065	  7.87977	 20.33679	 -1.06714	 30.62830	704.96198	 25.00	
 13.611	-143.999	 27.92826	  4.57818	 23.99300	  6.71733	 21.69642	 -1.03123	 30.62336	704.91101	 25.00	
 13.601	-136.825	 27.89836	  5.37658	 22.90040	  5.65321	 22.96134	 -0.99265	 30.62201	704.94800	 25.00	
 13.596	-129.640	 27.87376	  6.30470	 21.65020	  4.73336	 24.09010	 -0.98704	 30.61903	704.95300	 25.00	
 13.611	-122.431	 27.83845	  7.32136	 20.34497	  3.94831	 25.04112	 -1.01379	 30.60931	704.94501	 25.00	
 13.604	-115.211	 27.84499	  8.46082	 18.98288	  3.36111	 25.82536	 -1.07791	 30.63129	704.74902	 25.00	
 13.595	-108.042	 27.82215	  9.69997	 17.41768	  3.02422	 26.41413	 -1.14992	 30.62385	704.98199	 25.00	
 13.607	-100.793	 27.80775	 11.11726	 15.84632	  2.73873	 26.81504	 -1.20560	 30.63095	704.94598	 25.00	
 13.601	-93.617	 27.79673	 12.60695	 14.22590	  2.60078	 26.98964	 -1.19803	 30.61526	704.74500	 25.00	
 13.601	-86.383	 27.77343	 14.19727	 12.53962	  2.58174	 26.95458	 -1.18338	 30.58911	704.89502	 25.00	
 13.607	-79.207	 27.80235	 15.74356	 11.09299	  2.74154	 26.75585	 -1.17469	 30.61971	704.85199	 25.00	
 13.595	-71.958	 27.82707	 17.30800	  9.76293	  3.03045	 26.33325	 -1.19051	 30.62734	704.93103	 25.00	
 13.604	-64.789	 27.82648	 18.84296	  8.44342	  3.28977	 25.70776	 -1.20355	 30.62252	704.90900	 25.00	
 13.611	-57.569	 27.80945	 20.29817	  7.19867	  3.84527	 24.87814	 -1.18608	 30.60681	704.96301	 25.00	
 13.596	-50.360	 27.87480	 21.70787	  6.10822	  4.59908	 23.92272	 -1.17011	 30.64511	705.04700	 25.00	
 13.601	-43.175	 27.88634	 22.94857	  5.12446	  5.54105	 22.74977	 -1.13735	 30.63201	704.99597	 24.90	
 13.611	-36.001	 27.92253	 24.07494	  4.27086	  6.62647	 21.47003	 -1.10916	 30.64986	705.00500	 25.00	
 13.609	-28.790	 27.95076	 25.00945	  3.64518	  7.81933	 20.12313	 -1.09756	 30.65952	705.12903	 25.00	
 13.601	-21.647	 27.93379	 25.72809	  3.09692	  9.08756	 18.67254	 -1.08218	 30.62265	704.99799	 24.90	
 13.611	-14.417	 27.94035	 26.29064	  2.71827	 10.46253	 17.11559	 -1.07613	 30.61832	704.93701	 24.90	
 13.608	 -7.147	 27.94022	 26.61047	  2.48978	 11.87590	 15.62437	 -1.07929	 30.60283	704.86401	 25.00	
 13.600	  0.000	 27.96663	 26.74540	  2.42802	 13.30459	 14.05942	 -1.07794	 30.61463	704.90601	 25.00	
 13.608	  7.147	 27.96523	 26.67044	  2.49254	 14.93486	 12.38317	 -1.10304	 30.60862	704.84698	 25.00	
 13.611	 14.417	 27.95528	 26.38593	  2.68568	 16.61639	 10.96437	 -1.10261	 30.60406	704.95300	 25.00	
 13.601	 21.647	 27.98380	 25.88468	  3.13582	 18.16050	  9.77334	 -1.09334	 30.59237	704.89502	 25.00	
 13.609	 28.790	 27.97313	 25.21136	  3.64496	 19.63280	  8.51099	 -1.05776	 30.58797	704.95697	 25.00	
 13.611	 36.001	 28.00913	 24.37342	  4.34063	 21.03804	  7.36676	 -1.03350	 30.62287	704.75098	 25.00	
 13.601	 43.175	 28.02041	 23.32589	  5.20711	 22.19935	  6.37361	 -1.00024	 30.61578	704.87201	 25.00	
 13.596	 50.360	 28.02198	 22.12186	  6.17368	 23.36435	  5.48988	 -0.96575	 30.60074	704.91803	 25.00	
 13.611	 57.569	 28.06224	 20.81935	  7.25244	 24.41705	  4.76204	 -0.93981	 30.63436	704.91101	 25.00	
 13.604	 64.789	 28.06664	 19.37379	  8.43605	 25.23404	  4.17694	 -0.95227	 30.60457	704.92297	 25.00	
 13.595	 71.958	 28.05362	 17.84515	  9.75826	 25.82526	  3.76470	 -0.99564	 30.56668	704.87799	 25.00	
 13.607	 79.207	 28.13434	 16.37082	 11.21149	 26.32025	  3.49161	 -1.07112	 30.64456	704.86902	 25.00	
 13.601	 86.383	 28.16861	 14.90921	 12.73942	 26.54210	  3.36679	 -1.14404	 30.65007	704.88599	 25.00	
 13.601	 93.617	 28.15099	 13.29192	 14.38249	 26.52179	  3.34917	 -1.19454	 30.61529	704.98499	 25.00	
 13.607	100.793	 28.15921	 11.72888	 16.01392	 26.33146	  3.54389	 -1.21054	 30.62460	704.95001	 25.00	
 13.595	108.042	 28.17330	 10.29353	 17.55572	 25.91285	  3.87944	 -1.20854	 30.62723	704.86401	 25.00	
 13.604	115.211	 28.15097	  9.03694	 19.05582	 25.31400	  4.31014	 -1.18554	 30.61729	704.98499	 25.00	
 13.611	122.431	 28.16869	  7.82177	 20.49578	 24.51919	  4.91322	 -1.13733	 30.63332	704.91498	 25.00	
 13.596	129.640	 28.16315	  6.70707	 21.78818	 23.50196	  5.66934	 -1.07538	 30.61485	704.97101	 25.00	
 13.601	136.825	 28.19250	  5.72355	 23.04468	 22.35728	  6.59239	 -1.05052	 30.65065	705.01300	 25.00	
 13.611	143.999	 28.14459	  4.86653	 24.09171	 21.13306	  7.59192	 -1.03787	 30.61024	704.78802	 25.00	
 13.609	151.210	 28.17248	  4.16823	 25.03399	 19.77699	  8.78485	 -1.03655	 30.66831	704.90002	 25.00	
 13.601	158.353	 28.11584	  3.63814	 25.69471	 18.24913	 10.04497	 -1.03380	 30.60520	704.84998	 25.00	
 13.611	165.583	 28.10912	  3.23942	 26.22147	 16.74194	 11.31389	 -1.03867	 30.63446	704.92200	 25.00	
 13.608	172.853	 28.12673	  2.96880	 26.54686	 15.12676	 12.80492	 -1.05321	 30.67325	704.90802	 25.00	
 15.298	173.587	 27.32802	  1.15067	 27.43184	 14.30187	 12.10963	 -1.26617	 30.65382	705.00500	 25.00	
 15.291	167.167	 27.32623	  1.33486	 27.15538	 16.01433	 10.73055	 -1.24147	 30.63650	705.11200	 25.00	
 15.307	160.676	 27.34143	  1.69842	 26.72086	 17.62134	  9.40166	 -1.22998	 30.64549	705.01599	 25.00	
 15.300	154.261	 27.36325	  2.19929	 26.09416	 19.05087	  8.08058	 -1.23167	 30.64113	704.96198	 25.00	
 15.288	147.854	 27.40203	  2.83862	 25.29490	 20.55210	  6.88969	 -1.23028	 30.66350	704.95001	 25.00	
 15.293	141.428	 27.40153	  3.59121	 24.31263	 21.80154	  5.80136	 -1.22786	 30.64780	704.92297	 25.00	
 15.299	134.985	 27.39797	  4.45172	 23.18209	 23.07541	  4.80898	 -1.25409	 30.65097	704.83899	 25.00	
 15.305	128.583	 27.39688	  5.44203	 21.91388	 24.22713	  3.99020	 -1.28231	 30.64783	704.91498	 25.00	
 15.309	122.142	 27.37199	  6.55800	 20.52003	 25.20026	  3.26973	 -1.31235	 30.61972	704.81097	 25.00	
 15.304	115.711	 27.40418	  7.78583	 19.16969	 26.02662	  2.70369	 -1.32169	 30.65075	704.81097	 25.00	
 15.297	109.291	 27.39310	  9.05061	 17.65520	 26.64124	  2.24391	 -1.33873	 30.62869	704.96198	 25.00	
 15.293	102.897	 27.37441	 10.34428	 16.00902	 27.07385	  1.88314	 -1.33140	 30.61323	704.85199	 25.00	
 15.293	 96.458	 27.35957	 11.80884	 14.40283	 27.32894	  1.69674	 -1.33170	 30.59834	705.00403	 25.00	
 15.300	 90.000	 27.35479	 13.34851	 12.85835	 27.43329	  1.59196	 -1.30953	 30.61316	705.00800	 25.00	
 15.293	 83.542	 27.37499	 14.99189	 11.31841	 27.34906	  1.65228	 -1.27403	 30.63766	704.92297	 25.00	
 15.293	 77.103	 27.34137	 16.47734	  9.84331	 27.03038	  1.84204	 -1.22409	 30.62000	704.99799	 25.00	
 15.297	 70.709	 27.35108	 18.00527	  8.48779	 26.58944	  2.16046	 -1.17500	 30.64754	704.84399	 25.00	
 15.304	 64.289	 27.31306	 19.51348	  7.17008	 25.92176	  2.59012	 -1.13363	 30.63698	704.96503	 25.00	
 15.309	 57.858	 27.26376	 20.93011	  5.96251	 25.08485	  3.14010	 -1.12385	 30.62904	704.91400	 25.00	
 15.305	 51.417	 27.26832	 22.28690	  4.88862	 24.11236	  3.83343	 -1.12755	 30.66518	704.88000	 25.00	
 15.299	 45.015	 27.22380	 23.49377	  3.89896	 22.93676	  4.62500	 -1.16698	 30.62825	704.92200	 25.00	
 15.293	 38.572	 27.21113	 24.56098	  3.02770	 21.73560	  5.58842	 -1.17681	 30.61705	704.86298	 25.00	
 15.288	 32.146	 27.20098	 25.52476	  2.32215	 20.38200	  6.61892	 -1.18972	 30.62609	704.82397	 25.00	
 15.300	 25.739	 27.16558	 26.28697	  1.72366	 18.92085	  7.76992	 -1.19899	 30.61587	705.00800	 25.00	
 15.307	 19.324	 27.13623	 26.88203	  1.30025	 17.43163	  9.03743	 -1.19290	 30.59209	704.94501	 25.00	
 15.291	 12.833	 27.20317	 27.36554	  1.00620	 15.87920	 10.39542	 -1.19040	 30.66311	705.00098	 25.00	
 15.298	  6.413	 27.17456	 27.57992	  0.81017	 14.15705	 11.68415	 -1.17314	 30.64023	704.92297	 25.00	
 15.300	  0.000	 27.19132	 27.66464	  0.73540	 12.70255	 13.23923	 -1.18288	 30.65781	704.94202	 25.00	
 15.298	 -6.413	 27.14692	 27.51342	  0.78922	 11.21041	 14.86686	 -1.16919	 30.62469	704.92499	 25.00	
 15.291	-12.833	 27.17063	 27.25171	  0.99285	  9.81881	 16.44548	 -1.17923	 30.65510	704.87500	 25.00	
 15.307	-19.324	 27.14931	 26.77171	  1.29493	  8.38811	 17.93178	 -1.17500	 30.67253	704.82202	 25.00	
 15.300	-25.739	 27.13045	 26.08031	  1.73236	  7.06125	 19.46575	 -1.18339	 30.65804	704.84198	 25.00	
 15.288	-32.146	 27.12297	 25.23183	  2.32867	  5.84938	 20.83088	 -1.18363	 30.65689	705.02399	 25.00	
 15.293	-38.572	 27.05351	 24.18251	  3.00666	  4.70448	 22.17268	 -1.18048	 30.61230	704.93903	 25.00	
 15.299	-45.015	 27.06082	 23.03393	  3.82062	  3.76152	 23.46561	 -1.21145	 30.62961	704.94800	 25.00	
 15.305	-51.417	 27.03554	 21.75510	  4.77437	  3.10659	 24.57833	 -1.19710	 30.64138	705.01001	 25.00	
 15.309	-57.858	 27.02721	 20.37023	  5.87689	  2.41663	 25.55733	 -1.19834	 30.65200	705.06299	 25.00	
 15.304	-64.289	 27.01089	 18.88349	  7.09877	  1.84939	 26.37289	 -1.17810	 30.65096	705.06299	 25.00	
 15.297	-70.709	 27.00002	 17.33874	  8.41107	  1.40926	 27.02054	 -1.16332	 30.65176	705.00201	 25.00	
 15.293	-77.103	 26.96642	 15.80069	  9.77012	  1.12166	 27.45020	 -1.14932	 30.61387	705.01001	 25.00	
 15.293	-83.542	 26.98858	 14.25151	 11.15066	  0.96400	 27.76948	 -1.14972	 30.64603	705.18500	 25.00	
 15.300	-90.000	 27.00570	 12.67129	 12.63511	  0.90834	 27.91047	 -1.20705	 30.67947	705.15002	 25.00	
 15.293	-96.458	 26.99015	 11.14105	 14.19544	  0.95438	 27.82440	 -1.24443	 30.65975	704.96802	 25.00	
 15.293	-102.897	 26.96512	  9.67153	 15.80285	  1.08447	 27.55376	 -1.27183	 30.64301	705.03900	 25.00	
 15.297	-109.291	 26.98139	  8.40175	 17.42282	  1.41046	 27.12592	 -1.26045	 30.63862	704.91400	 25.00	
 15.304	-115.711	 26.98470	  7.18776	 18.96816	  1.84760	 26.49862	 -1.22910	 30.62746	705.15698	 25.00	
 15.309	-122.142	 27.04591	  6.03535	 20.39014	  2.42263	 25.74621	 -1.18085	 30.67061	704.99298	 25.00	
 15.305	-128.583	 27.01336	  4.97860	 21.68015	  3.10702	 24.73266	 -1.15856	 30.59674	705.03601	 25.00	
 15.299	-134.985	 27.05595	  4.06419	 22.96436	  3.85425	 23.65805	 -1.17289	 30.60756	704.99298	 25.00	
 15.293	-141.428	 27.09842	  3.20433	 24.13552	  4.86858	 22.42719	 -1.19460	 30.62026	705.15100	 25.00	
 15.288	-147.854	 27.15944	  2.50525	 25.16478	  6.00273	 21.10016	 -1.25763	 30.65661	704.95599	 25.00	
 15.300	-154.261	 27.16125	  1.92333	 25.98167	  7.19660	 19.68215	 -1.28742	 30.63725	705.03900	 25.00	
 15.307	-160.676	 27.16402	  1.47995	 26.60484	  8.48118	 18.26950	 -1.30987	 30.61497	705.01898	 24.90	
 15.291	-167.167	 27.21575	  1.17272	 27.09240	  9.90075	 16.74524	 -1.32110	 30.63327	705.04999	 25.00	
 15.298	-173.587	 27.22817	  0.94987	 27.38404	 11.29398	 15.26745	 -1.31454	 30.62692	705.06702	 25.00	
 15.300	180.000	 27.25664	  0.97734	 27.47502	 12.75013	 13.65389	 -1.29391	 30.61699	705.11102	 24.90	
 17.000	180.000	 26.38907	 -0.79099	 28.28924	 12.03136	 12.86159	 -1.41227	 30.65317	705.09497	 25.00	
 16.990	-174.179	 26.34639	 -0.78717	 28.18639	 10.57874	 14.43748	 -1.41745	 30.64101	705.00403	 24.90	
 17.009	-168.383	 26.30525	 -0.69391	 27.93646	  9.13723	 15.97297	 -1.40221	 30.63398	705.06598	 25.00	
 17.000	-162.596	 26.29477	 -0.45560	 27.52359	  7.79005	 17.49376	 -1.40376	 30.64822	705.04901	 25.00	
 16.990	-156.759	 26.26591	 -0.06893	 26.90449	  6.51361	 18.94617	 -1.38393	 30.62165	705.01599	 25.00	
 16.995	-150.919	 26.24919	  0.44681	 26.16997	  5.26437	 20.38085	 -1.37650	 30.64906	705.00800	 25.00	
 16.988	-145.161	 26.20410	  1.04889	 25.23547	  4.07552	 21.73705	 -1.33733	 30.62306	704.95398	 25.00	
 17.014	-139.343	 26.16887	  1.73418	 24.19324	  3.13174	 23.08033	 -1.29405	 30.66055	705.10303	 25.00	
 17.007	-133.546	 26.11481	  2.63724	 22.97518	  2.27130	 24.22817	 -1.29466	 30.61462	705.12598	 25.00	
 17.001	-127.699	 26.10252	  3.61377	 21.66904	  1.46104	 25.32977	 -1.28505	 30.63589	704.95599	 24.90	
 17.006	-121.937	 26.08527	  4.68984	 20.42445	  0.77494	 26.27858	 -1.29905	 30.64915	705.12201	 25.00	
 17.002	-116.134	 26.04662	  5.81487	 18.95682	  0.20707	 27.06251	 -1.32276	 30.63236	705.16199	 25.00	
 17.001	-110.310	 26.00650	  7.02345	 17.32391	 -0.23692	 27.67558	 -1.29412	 30.61436	705.01898	 25.00	
 16.988	-104.517	 26.01010	  8.33156	 15.74126	 -0.54577	 28.13109	 -1.24994	 30.61620	705.02600	 25.00	
 17.008	-98.662	 26.04182	  9.63031	 14.14562	 -0.72246	 28.48027	 -1.18262	 30.65179	704.96802	 25.00	
 16.996	-92.909	 26.01371	 11.07300	 12.60415	 -0.79084	 28.56464	 -1.13375	 30.59564	704.92902	 25.00	
 16.996	-87.091	 26.00735	 12.60058	 11.10181	 -0.76965	 28.54375	 -1.07452	 30.59822	704.98700	 25.00	
 17.012	-81.253	 26.00395	 14.15243	  9.72626	 -0.70354	 28.38860	 -1.03557	 30.60748	705.07001	 25.00	
 16.988	-75.483	 26.04280	 15.69533	  8.36984	 -0.50837	 28.07783	 -1.00954	 30.63724	704.92499	 25.00	
 17.001	-69.690	 26.03888	 17.23575	  7.02097	 -0.24011	 27.58790	 -1.04413	 30.63651	705.06403	 24.90	
 17.002	-63.866	 26.04199	 18.76591	  5.75382	  0.20461	 26.91795	 -1.06058	 30.62240	705.10498	 24.90	
 17.006	-58.063	 26.08265	 20.26859	  4.55078	  0.75086	 26.11924	 -1.10661	 30.65011	704.97900	 24.90	
 17.001	-52.301	 26.05896	 21.66002	  3.54134	  1.38614	 25.13058	 -1.11991	 30.61437	705.06000	 24.90	
 17.007	-46.454	 26.08878	 22.99798	  2.59933	  2.17048	 24.03024	 -1.13253	 30.62321	705.05200	 24.90	
 17.014	-40.657	 26.10681	 24.21613	  1.75722	  3.06821	 22.81258	 -1.15713	 30.62255	705.16998	 24.90	
 16.988	-34.839	 26.16997	 25.29255	  1.00275	  4.02617	 21.48649	 -1.16130	 30.63146	705.01898	 24.90	
 16.995	-29.081	 26.19345	 26.18866	  0.43314	  5.06258	 20.06359	 -1.16865	 30.61207	705.09100	 24.90	
 16.990	-23.241	 26.22415	 26.97284	 -0.02637	  6.31856	 18.65861	 -1.16457	 30.63154	704.98700	 24.90	
 17.000	-17.404	 26.23399	 27.58354	 -0.39311	  7.64280	 17.13979	 -1.16288	 30.63218	705.10602	 24.90	
 17.009	-11.617	 26.23028	 28.02330	 -0.68542	  9.04963	 15.59477	 -1.15308	 30.61838	705.07800	 24.90	
 16.990	 -5.821	 26.26322	 28.28319	 -0.79672	 10.49555	 14.01375	 -1.15087	 30.62335	705.14697	 24.90	
 17.000	  0.000	 26.24508	 28.37891	 -0.91396	 11.95089	 12.45367	 -1.14694	 30.60204	705.10797	 24.90	
 16.990	  5.821	 26.27448	 28.35839	 -0.85104	 13.48025	 11.00461	 -1.13599	 30.64246	705.08801	 24.90	
 17.009	 11.617	 26.28258	 28.15883	 -0.66947	 14.94428	  9.67063	 -1.13450	 30.65114	705.03198	 24.90	
 17.000	 17.404	 26.27559	 27.77278	 -0.40544	 16.63058	  8.33390	 -1.15793	 30.64359	705.29901	 25.00	
 16.990	 23.241	 26.25830	 27.21298	 -0.07913	 18.16548	  7.05298	 -1.15883	 30.62038	705.21198	 24.90	
 16.995	 29.081	 26.25927	 26.51586	  0.42430	 19.53365	  5.86821	 -1.18477	 30.61323	705.09698	 25.00	
 16.988	 34.839	 26.26208	 25.65066	  1.04080	 20.99006	  4.79488	 -1.22231	 30.59625	705.23297	 25.00	
 17.014	 40.657	 26.28086	 24.70182	  1.78247	 22.27503	  3.77186	 -1.24675	 30.63885	705.17603	 24.90	
 17.007	 46.454	 26.30009	 23.55865	  2.63601	 23.53434	  2.88730	 -1.25377	 30.63593	705.07001	 25.00	
 17.001	 52.301	 26.34468	 22.28088	  3.54717	 24.66655	  2.13501	 -1.25279	 30.61762	705.04901	 25.00	
 17.006	 58.063	 26.34791	 20.92393	  4.59341	 25.64751	  1.44845	 -1.25231	 30.60463	705.11499	 25.00	
 17.002	 63.866	 26.35966	 19.48278	  5.76731	 26.50635	  0.85481	 -1.28188	 30.61608	705.14203	 25.00	
 17.001	 69.690	 26.35794	 17.97244	  7.04633	 27.17833	  0.43088	 -1.31260	 30.60420	705.15997	 24.90	
 16.988	 75.483	 26.38682	 16.45816	  8.43792	 27.69490	  0.14206	 -1.33021	 30.60827	705.08600	 25.00	
 17.012	 81.253	 26.38081	 14.96374	  9.78357	 28.03987	 -0.10021	 -1.31404	 30.59917	705.13599	 24.90	
 16.996	 87.091	 26.45362	 13.35537	 11.27807	 28.23895	 -0.13951	 -1.31932	 30.64628	705.11499	 25.00	
 16.996	 92.909	 26.45575	 11.81802	 12.81118	 28.23413	 -0.12591	 -1.28972	 30.62739	705.12299	 25.00	
 17.008	 98.662	 26.46827	 10.35954	 14.35995	 28.10295	 -0.01352	 -1.28653	 30.64195	705.12903	 25.00	
 16.988	104.517	 26.46666	  9.05327	 15.94302	 27.75404	  0.21469	 -1.29638	 30.62538	705.14697	 25.00	
 17.001	110.310	 26.46081	  7.72303	 17.58206	 27.28078	  0.56363	 -1.33679	 30.62942	705.14502	 25.00	
 17.002	116.134	 26.51631	  6.47313	 19.15207	 26.61648	  1.04152	 -1.35807	 30.64705	705.09802	 25.00	
 17.006	121.937	 26.48726	  5.27571	 20.50129	 25.74328	  1.63713	 -1.37696	 30.59324	705.13397	 25.00	
 17.001	127.699	 26.52490	  4.22550	 21.88153	 24.81195	  2.32566	 -1.38985	 30.63131	705.06000	 25.00	
 17.007	133.546	 26.47266	  3.21087	 23.14896	 23.66902	  3.11531	 -1.40044	 30.59264	705.23602	 25.00	
 17.014	139.343	 26.51904	  2.28651	 24.37726	 22.47980	  3.98955	 -1.39941	 30.66068	705.08301	 25.00	
 16.988	145.161	 26.51983	  1.56416	 25.40098	 21.11048	  5.05715	 -1.39412	 30.63817	705.18500	 25.00	
 16.995	150.919	 26.49765	  0.90451	 26.28226	 19.69741	  6.15497	 -1.40724	 30.64603	705.25500	 25.00	
 16.990	156.759	 26.45413	  0.29849	 26.99403	 18.38940	  7.36063	 -1.39517	 30.62470	705.11902	 25.00	
 17.000	162.596	 26.43317	 -0.18806	 27.58529	 16.81841	  8.65835	 -1.39763	 30.62788	705.12000	 25.00	
 17.009	168.383	 26.39878	 -0.45964	 27.96169	 15.08164	  9.99081	 -1.40278	 30.61184	705.19897	 25.00	
 16.990	174.179	 26.39415	 -0.65210	 28.17302	 13.53621	 11.34351	 -1.40946	 30.61053	705.18500	 25.00	
 18.709	174.675	 25.38829	 -2.12798	 28.85804	 12.75859	 10.59219	 -1.42872	 30.59823	705.06000	 25.00	
 18.703	169.441	 25.44069	 -1.93200	 28.69088	 14.23952	  9.23790	 -1.46084	 30.62870	705.03198	 25.00	
 18.691	164.085	 25.47251	 -1.66655	 28.34604	 15.82952	  7.89573	 -1.48369	 30.64057	705.15698	 25.00	
 18.706	158.818	 25.46488	 -1.42723	 27.82615	 17.51065	  6.61041	 -1.49046	 30.62680	705.08002	 24.90	
 18.695	153.537	 25.52248	 -0.99580	 27.18241	 18.97298	  5.44069	 -1.50770	 30.64679	705.09998	 25.00	
 18.704	148.255	 25.55553	 -0.48259	 26.39050	 20.31739	  4.27882	 -1.49225	 30.67588	705.11401	 25.00	
 18.698	142.952	 25.54250	  0.16082	 25.40792	 21.70791	  3.21053	 -1.49872	 30.64072	705.15302	 25.00	
 18.699	137.625	 25.56020	  0.95865	 24.32679	 23.01984	  2.26772	 -1.47512	 30.64942	705.10498	 25.00	
 18.705	132.343	 25.52042	  1.80565	 23.10384	 24.21122	  1.38131	 -1.42536	 30.62376	705.18402	 25.00	
 18.713	127.067	 25.52563	  2.81289	 21.81173	 25.32764	  0.60285	 -1.39206	 30.64898	705.19897	 24.90	
 18.700	121.794	 25.51506	  3.91491	 20.40300	 26.27871	 -0.03202	 -1.34662	 30.63234	705.11499	 25.00	
 18.698	116.504	 25.50038	  5.10998	 19.03290	 27.10555	 -0.53663	 -1.27763	 30.63185	705.22998	 25.00	
 18.707	111.165	 25.48618	  6.36680	 17.48960	 27.78898	 -0.93651	 -1.21120	 30.63598	705.14502	 25.00	
 18.690	105.863	 25.47308	  7.67051	 15.93734	 28.27043	 -1.25277	 -1.16129	 30.59716	705.21802	 25.00	
 18.696	100.583	 25.48648	  8.99901	 14.32958	 28.65580	 -1.46588	 -1.14597	 30.62108	705.20099	 25.00	
 18.700	 95.309	 25.50151	 10.31780	 12.79597	 28.87056	 -1.59812	 -1.14351	 30.63870	705.25403	 25.00	
 18.700	 90.000	 25.47363	 11.79880	 11.25207	 28.91443	 -1.65101	 -1.21541	 30.61443	705.06403	 25.00	
 18.700	 84.691	 25.46766	 13.34245	  9.76282	 28.84456	 -1.63004	 -1.26690	 30.63396	705.20502	 25.00	
 18.696	 79.417	 25.40733	 14.86740	  8.40491	 28.58381	 -1.54409	 -1.32526	 30.59332	705.21802	 25.00	
 18.690	 74.137	 25.41948	 16.38964	  7.04456	 28.22608	 -1.31207	 -1.38649	 30.61456	705.06702	 25.00	
 18.707	 68.835	 25.40907	 17.91559	  5.71310	 27.70735	 -1.02031	 -1.39096	 30.63998	705.24597	 25.00	
 18.698	 63.496	 25.37507	 19.39176	  4.42721	 26.97867	 -0.62799	 -1.38633	 30.60999	705.22601	 25.00	
 18.700	 58.206	 25.38220	 20.87734	  3.38543	 26.17364	 -0.15966	 -1.32142	 30.67761	705.20697	 25.00	
 18.713	 52.933	 25.32935	 22.23548	  2.36093	 25.17730	  0.39263	 -1.28168	 30.65088	705.27502	 25.00	
 18.705	 47.657	 25.24641	 23.44320	  1.40725	 23.98190	  1.12564	 -1.24104	 30.56087	705.13098	 25.00	
 18.699	 42.375	 25.26510	 24.64377	  0.49294	 22.82798	  2.01104	 -1.21914	 30.61273	705.23297	 25.00	
 18.698	 37.048	 25.29251	 25.71720	 -0.31185	 21.55818	  2.95062	 -1.19497	 30.62833	705.12201	 25.00	
 18.704	 31.745	 25.29704	 26.64949	 -0.92111	 20.09336	  4.04461	 -1.13978	 30.63452	705.22302	 25.00	
 18.695	 26.463	 25.26925	 27.39010	 -1.39302	 18.76829	  5.15015	 -1.08583	 30.60268	705.31097	 25.00	
 18.706	 21.182	 25.22685	 27.98281	 -1.82608	 17.24623	  6.27895	 -1.02626	 30.58064	705.34998	 24.90	
 18.691	 15.915	 25.25326	 28.47878	 -2.08226	 15.57289	  7.55251	 -1.00124	 30.60835	705.37299	 24.90	
 18.703	 10.559	 25.26828	 28.84724	 -2.35526	 14.05309	  8.88217	 -0.98701	 30.63323	705.28302	 24.90	
 18.709	  5.325	 25.21564	 28.99755	 -2.55489	 12.63163	 10.20178	 -1.00307	 30.58930	705.17798	 25.00	
 18.700	  0.000	 25.25228	 29.06050	 -2.57476	 11.15278	 11.61458	 -1.02633	 30.62035	705.21600	 24.90	
 18.709	 -5.325	 25.25298	 28.97046	 -2.46090	  9.69801	 13.12020	 -1.04851	 30.62243	705.25403	 24.90	
 18.703	-10.559	 25.25074	 28.72919	 -2.30591	  8.27905	 14.62444	 -1.04925	 30.62987	705.14697	 25.00	
 18.691	-15.915	 25.25974	 28.34080	 -2.09500	  6.88026	 16.25482	 -1.06803	 30.63903	705.15997	 25.00	
 18.706	-21.182	 25.20674	 27.76460	 -1.76793	  5.54040	 17.68914	 -1.07527	 30.61257	705.14697	 25.00	
 18.695	-26.463	 25.17021	 27.05186	 -1.40487	  4.35168	 19.15183	 -1.05887	 30.59175	705.15002	 25.00	
 18.704	-31.745	 25.13037	 26.21562	 -0.95780	  3.32369	 20.60577	 -1.05562	 30.59462	705.24103	 25.00	
 18.698	-37.048	 25.13173	 25.24423	 -0.34855	  2.30905	 22.00881	 -1.02720	 30.63180	705.22601	 25.00	
 18.699	-42.375	 25.09294	 24.10711	  0.38237	  1.35634	 23.29268	 -1.03127	 30.61050	705.11401	 25.00	
 18.705	-47.657	 25.06703	 22.89150	  1.23864	  0.45366	 24.50817	 -0.99090	 30.63883	705.12903	 25.00	
 18.713	-52.933	 25.03236	 21.55565	  2.24722	 -0.30778	 25.57737	 -0.96917	 30.61912	705.22900	 24.90	
 18.700	-58.206	 25.01030	 20.12890	  3.34286	 -0.91816	 26.52293	 -0.94966	 30.61222	705.15900	 24.90	
 18.698	-63.496	 25.01894	 18.67114	  4.46147	 -1.41092	 27.33375	 -0.92989	 30.62402	705.14203	 24.90	
 18.707	-68.835	 25.02847	 17.13448	  5.61662	 -1.78021	 28.00791	 -0.92313	 30.62871	705.17798	 24.90	
 18.690	-74.137	 25.02857	 15.58870	  6.93588	 -2.07939	 28.52121	 -0.89201	 30.60942	705.09399	 24.90	
 18.696	-79.417	 25.03328	 14.05433	  8.28255	 -2.26631	 28.90899	 -0.89237	 30.63363	705.10602	 25.00	
 18.700	-84.691	 25.00854	 12.51680	  9.68537	 -2.40082	 29.13046	 -0.90831	 30.62455	705.23999	 24.90	
 18.700	-90.000	 24.98439	 10.97776	 11.02699	 -2.47119	 29.19021	 -0.91910	 30.60118	705.18402	 25.00	
 18.700	-95.309	 24.97497	  9.51515	 12.50741	 -2.45407	 29.13997	 -1.00248	 30.59616	705.18799	 25.00	
 18.696	-100.583	 24.97597	  8.22767	 14.04261	 -2.33952	 28.95511	 -1.08995	 30.61031	705.20398	 24.90	
 18.690	-105.863	 25.00194	  6.92195	 15.62804	 -2.14026	 28.63097	 -1.19773	 30.63504	705.15997	 24.90	
 18.707	-111.165	 24.98379	  5.63836	 17.16459	 -1.83669	 28.12578	 -1.30319	 30.61418	705.14697	 25.00	
 18.698	-116.504	 24.96880	  4.44997	 18.75586	 -1.37910	 27.43448	 -1.34451	 30.56121	705.17401	 25.00	
 18.700	-121.794	 25.02939	  3.31121	 20.23268	 -0.85137	 26.71312	 -1.35352	 30.62515	705.20398	 25.00	
 18.713	-127.067	 25.04887	  2.18475	 21.52038	 -0.18756	 25.79445	 -1.33620	 30.61183	705.35699	 25.00	
 18.705	-132.343	 25.06461	  1.19039	 22.82834	  0.58741	 24.72674	 -1.33441	 30.58985	705.23199	 25.00	
 18.699	-137.625	 25.10204	  0.34274	 24.04151	  1.40489	 23.56909	 -1.35875	 30.58744	705.33099	 25.00	
 18.698	-142.952	 25.17407	 -0.35640	 25.18284	  2.36113	 22.35472	 -1.35978	 30.62889	705.32501	 25.00	
 18.704	-148.255	 25.21818	 -0.93725	 26.19184	  3.40416	 21.00068	 -1.35794	 30.65160	705.26001	 25.00	
 18.695	-153.537	 25.27462	 -1.36302	 27.04977	  4.47050	 19.56902	 -1.37191	 30.65064	705.16199	 25.00	
 18.706	-158.818	 25.25975	 -1.73955	 27.71402	  5.69339	 18.10110	 -1.33509	 30.61797	705.32599	 25.00	
 18.691	-164.085	 25.28660	 -1.95569	 28.24377	  6.99985	 16.65235	 -1.33485	 30.61612	705.28802	 25.00	
 18.703	-169.441	 25.30626	 -2.09869	 28.63392	  8.40910	 15.09361	 -1.35998	 30.62224	705.20398	 25.00	
 18.709	-174.675	 25.33543	 -2.15773	 28.84408	  9.80451	 13.55399	 -1.38427	 30.60636	705.40399	 25.00	
 18.700	180.000	 25.38133	 -2.21220	 28.95428	 11.28454	 12.03678	 -1.41506	 30.63228	705.31897	 25.00	
 20.400	180.000	 24.28990	 -3.77246	 29.49142	 10.48772	 11.22463	 -1.31764	 30.60729	705.34802	 25.00	
 20.401	-175.153	 24.28586	 -3.75138	 29.45480	  9.05250	 12.63833	 -1.29281	 30.64519	705.28302	 25.00	
 20.407	-170.264	 24.23032	 -3.63095	 29.21723	  7.61598	 14.12719	 -1.25404	 30.60492	705.27802	 24.90	
 20.410	-165.423	 24.20039	 -3.50407	 28.88576	  6.19939	 15.69949	 -1.22901	 30.61772	705.28802	 25.00	
 20.392	-160.496	 24.17039	 -3.26694	 28.37096	  4.87747	 17.22344	 -1.22925	 30.60290	705.37299	 24.90	
 20.401	-155.705	 24.15406	 -2.94232	 27.76803	  3.75886	 18.62750	 -1.24057	 30.62618	705.29401	 24.90	
 20.405	-150.835	 24.07741	 -2.61110	 26.95714	  2.62544	 20.04930	 -1.26180	 30.59459	705.27100	 24.90	
 20.397	-145.903	 24.06713	 -2.13750	 26.05071	  1.55947	 21.45700	 -1.30502	 30.60715	705.17798	 24.90	
 20.392	-141.062	 24.06871	 -1.55688	 25.05139	  0.59023	 22.78820	 -1.32971	 30.63899	705.33301	 24.90	
 20.396	-136.227	 24.02306	 -0.90129	 23.90335	 -0.31033	 24.01822	 -1.36047	 30.63297	705.34198	 24.90	
 20.408	-131.372	 23.96685	 -0.13266	 22.63535	 -1.07796	 25.13347	 -1.35564	 30.61198	705.31097	 24.90	
 20.410	-126.511	 23.98976	  0.75957	 21.36115	 -1.73157	 26.19229	 -1.37102	 30.66313	705.40399	 24.90	
 20.400	-121.604	 23.93785	  1.77531	 20.04524	 -2.37095	 27.06249	 -1.37673	 30.61873	705.41803	 24.90	
 20.403	-116.741	 23.92840	  3.01256	 18.55795	 -2.91019	 27.84964	 -1.34470	 30.63792	705.38098	 24.90	
 20.413	-111.900	 23.88110	  4.19188	 16.99156	 -3.41272	 28.49307	 -1.24259	 30.62820	705.28302	 24.90	
 20.398	-107.004	 23.87399	  5.42444	 15.43441	 -3.71734	 29.01147	 -1.13336	 30.63577	705.29999	 24.90	
 20.394	-102.132	 23.85449	  6.69249	 13.86914	 -3.94579	 29.37223	 -1.00037	 30.62057	705.33398	 24.90	
 20.403	-97.332	 23.85162	  8.00436	 12.36820	 -4.09227	 29.60837	 -0.90098	 30.61430	705.33899	 24.90	
 20.392	-92.440	 23.88032	  9.37537	 10.92763	 -4.16776	 29.73901	 -0.88509	 30.63536	705.41998	 24.90	
 20.392	-87.560	 23.85700	 10.77005	  9.46252	 -4.16720	 29.69672	 -0.84475	 30.60882	705.40601	 24.90	
 20.403	-82.668	 23.85393	 12.26759	  8.04813	 -4.07679	 29.56214	 -0.82582	 30.60478	705.38098	 24.90	
 20.394	-77.868	 23.89249	 13.77638	  6.71394	 -3.92466	 29.32917	 -0.81265	 30.63086	705.36499	 24.90	
 20.398	-72.996	 23.89517	 15.33481	  5.54720	 -3.72926	 28.92189	 -0.82691	 30.63903	705.30200	 24.90	
 20.413	-68.100	 23.87128	 16.86169	  4.25637	 -3.45015	 28.36060	 -0.79493	 30.62048	705.20099	 24.90	
 20.403	-63.259	 23.92262	 18.38890	  3.06450	 -3.05154	 27.71356	 -0.83352	 30.64898	705.30298	 24.90	
 20.400	-58.396	 23.92688	 19.86294	  1.92307	 -2.53146	 26.88748	 -0.83932	 30.62865	705.24701	 24.90	
 20.410	-53.489	 23.93396	 21.27615	  0.82150	 -1.95236	 25.95943	 -0.87046	 30.62591	705.31097	 24.90	
 20.408	-48.628	 23.96318	 22.63185	 -0.08286	 -1.27830	 24.92226	 -0.89221	 30.64934	705.19299	 25.00	
 20.396	-43.773	 23.98870	 23.87874	 -0.88886	 -0.44841	 23.72594	 -0.92048	 30.62828	705.31897	 24.90	
 20.392	-38.938	 24.02222	 25.07022	 -1.63820	  0.44640	 22.46452	 -0.91651	 30.63706	705.25702	 24.90	
 20.397	-34.097	 24.06908	 26.12732	 -2.27700	  1.41884	 21.14129	 -0.92031	 30.66468	705.22101	 24.90	
 20.405	-29.165	 24.07751	 27.03752	 -2.78398	  2.49262	 19.70779	 -0.93092	 30.64092	705.35101	 24.90	
 20.401	-24.295	 24.13705	 27.84289	 -3.16845	  3.67321	 18.25117	 -0.96262	 30.66368	705.29498	 25.00	
 20.392	-19.504	 24.22984	 28.53922	 -3.48799	  4.82482	 16.85561	 -0.99306	 30.72900	705.21600	 24.90	
 20.410	-14.577	 24.21463	 29.03659	 -3.76156	  6.04913	 15.26416	 -0.98703	 30.71978	705.33301	 24.90	
 20.407	 -9.736	 24.26576	 29.43498	 -3.96678	  7.46324	 13.73610	 -0.96849	 30.74275	705.28601	 25.00	
 20.401	 -4.847	 24.30422	 29.69288	 -4.11313	  8.90189	 12.24282	 -0.95704	 30.79130	705.36700	 24.90	
 20.400	  0.000	 24.25714	 29.73161	 -4.23403	 10.29159	 10.83807	 -0.94038	 30.73922	705.27802	 25.00	
 20.401	  4.847	 24.22732	 29.67740	 -4.21332	 11.74596	  9.43528	 -0.90183	 30.71126	705.24402	 25.00	
 20.407	  9.736	 24.21928	 29.51262	 -4.11076	 13.21048	  8.06351	 -0.88536	 30.71750	705.29401	 25.00	
 20.410	 14.577	 24.24101	 29.22635	 -3.81686	 14.64436	  6.76974	 -0.89888	 30.72695	705.25702	 25.00	
 20.392	 19.504	 24.25695	 28.80114	 -3.52826	 16.19643	  5.51875	 -0.91133	 30.73288	705.18103	 25.00	
 20.401	 24.295	 24.25364	 28.23195	 -3.20190	 17.82568	  4.34308	 -0.96123	 30.72147	705.29102	 25.00	
 20.405	 29.165	 24.25864	 27.51345	 -2.73447	 19.35540	  3.14740	 -1.00010	 30.72539	705.22101	 25.00	
 20.397	 34.097	 24.24438	 26.63495	 -2.17722	 20.70724	  2.05056	 -1.06137	 30.70689	705.20697	 25.00	
 20.392	 38.938	 24.24486	 25.66961	 -1.59119	 22.06249	  1.07609	 -1.14506	 30.71401	705.24902	 25.00	
 20.396	 43.773	 24.25595	 24.57878	 -0.85922	 23.33242	  0.26039	 -1.19891	 30.70076	705.20898	 25.00	
 20.408	 48.628	 24.25157	 23.38979	 -0.05767	 24.54222	 -0.52372	 -1.23661	 30.70974	705.21503	 25.00	
 20.410	 53.489	 24.28602	 22.11140	  0.93516	 25.66023	 -1.20396	 -1.26695	 30.73285	705.25702	 25.00	
 20.400	 58.396	 24.33049	 20.73971	  1.95581	 26.63629	 -1.73428	 -1.32914	 30.74244	705.29102	 25.00	
 20.403	 63.259	 24.36355	 19.31481	  3.11816	 27.45991	 -2.18871	 -1.38117	 30.72672	705.22400	 25.00	
 20.413	 68.100	 24.39048	 17.85168	  4.28758	 28.17070	 -2.58335	 -1.40101	 30.73200	705.24701	 25.00	
 20.398	 72.996	 24.40508	 16.30993	  5.56306	 28.74222	 -2.87576	 -1.39758	 30.72058	705.29401	 25.00	
 20.394	 77.868	 24.45506	 14.80253	  6.93987	 29.21569	 -3.13634	 -1.29963	 30.77277	705.15002	 25.00	
 20.403	 82.668	 24.43372	 13.28964	  8.28855	 29.45525	 -3.27861	 -1.18544	 30.73453	705.19598	 25.00	
 20.392	 87.560	 24.47713	 11.78129	  9.76348	 29.59507	 -3.29149	 -1.10135	 30.74325	705.24402	 25.00	
 20.392	 92.440	 24.50380	 10.30363	 11.16605	 29.60834	 -3.25399	 -1.04756	 30.73581	705.17401	 25.00	
 20.403	 97.332	 24.53738	  8.94721	 12.71432	 29.53547	 -3.21143	 -0.99730	 30.79465	705.12000	 25.00	
 20.394	102.132	 24.60975	  7.63936	 14.26838	 29.33952	 -3.03715	 -1.00640	 30.85368	705.32501	 25.00	
 20.398	107.004	 24.62660	  6.32863	 15.86213	 28.96248	 -2.83584	 -1.03702	 30.87500	705.28302	 25.00	
 20.413	111.900	 24.61797	  5.07145	 17.41905	 28.41794	 -2.52678	 -1.10746	 30.87416	705.24103	 25.00	
 20.403	116.741	 24.63482	  3.83894	 18.85502	 27.75821	 -2.13125	 -1.17970	 30.89930	705.19000	 25.00	
 20.400	121.604	 24.64911	  2.56165	 20.32391	 26.96616	 -1.63814	 -1.26930	 30.90307	705.23297	 25.00	
 20.410	126.511	 24.64192	  1.40217	 21.75356	 26.00623	 -1.02606	 -1.36008	 30.88774	705.13397	 25.00	
 20.408	131.372	 24.64796	  0.49913	 23.07952	 24.91208	 -0.31253	 -1.41686	 30.86549	705.16699	 25.00	
 20.396	136.227	 24.66788	 -0.29020	 24.33952	 23.71855	  0.47791	 -1.42399	 30.87733	705.31403	 25.00	
 20.392	141.062	 24.67724	 -1.00806	 25.49361	 22.44887	  1.35911	 -1.42753	 30.89861	705.13098	 24.90	
 20.397	145.903	 24.62903	 -1.61695	 26.48067	 21.06609	  2.38760	 -1.44832	 30.86742	705.31598	 25.00	
 20.405	150.835	 24.63923	 -2.11579	 27.40222	 19.62816	  3.49481	 -1.49104	 30.87601	705.20398	 25.00	
 20.401	155.705	 24.65506	 -2.59118	 28.18535	 18.23623	  4.65103	 -1.49969	 30.92410	705.20898	 25.00	
 20.392	160.496	 24.59112	 -2.97324	 28.71918	 16.62179	  5.81211	 -1.51161	 30.86888	705.30200	 25.00	
 20.410	165.423	 24.56184	 -3.35181	 29.20609	 15.02433	  7.13280	 -1.48269	 30.87034	705.20099	 25.00	
 20.407	170.264	 24.57286	 -3.59215	 29.54471	 13.48537	  8.49721	 -1.44475	 30.90475	705.21802	 25.00	
 20.401	175.153	 24.51549	 -3.76446	 29.68226	 12.03201	  9.86732	 -1.37209	 30.86552	705.23798	 25.00	
  0.141	 45.000	 30.93973	 16.74946	 16.44550	 16.62785	 17.20963	  0.30838	 30.88503	705.16199	 25.00	
  4.001	128.691	 30.83722	 14.31073	 18.72179	 19.20013	 14.26409	  0.20684	 30.86418	705.18103	 25.00	
  4.002	 76.995	 30.85241	 17.32215	 15.46134	 19.93652	 13.53579	  0.20566	 30.87682	705.19800	 25.00	
  4.002	 25.892	 30.83170	 19.79963	 12.93657	 17.93830	 15.38087	  0.19880	 30.87768	705.15997	 25.00	
  4.002	-25.892	 30.83177	 19.72832	 12.95995	 14.66091	 18.55187	  0.16596	 30.89727	705.26300	 25.00	
  4.002	-76.995	 30.80917	 17.13709	 15.46062	 12.53282	 20.47575	  0.15326	 30.89277	705.24103	 25.00	
  4.001	-128.691	 30.85000	 14.17683	 18.74299	 13.22605	 19.87213	  0.19374	 30.91389	705.17603	 25.00	
  4.000	180.000	 30.86083	 12.87343	 20.02337	 16.26526	 17.07388	  0.20848	 30.90300	705.20099	 25.00	
  8.000	180.000	 30.22926	  8.74968	 23.12632	 15.48898	 16.37779	 -0.25327	 30.90603	705.18201	 25.00	
  7.991	-152.370	 30.17252	  9.34996	 22.20611	 11.98303	 19.72140	 -0.28310	 30.89331	705.07397	 25.00	
  7.997	-124.550	 30.15773	 11.37791	 19.80652	  9.61382	 22.41892	 -0.30344	 30.91654	705.13098	 25.00	
  8.006	-96.837	 30.11795	 14.63122	 16.39797	  8.50807	 23.65772	 -0.43749	 30.91478	705.19598	 25.00	
  7.988	-69.228	 30.14333	 18.11365	 12.82536	  8.89323	 23.18025	 -0.45592	 30.92574	705.23199	 25.00	
  7.997	-41.563	 30.19843	 21.27283	 10.09390	 10.66892	 21.07369	 -0.38814	 30.96248	705.35602	 25.00	
  8.008	-13.821	 30.21478	 23.08955	  8.62266	 13.63256	 17.90488	 -0.32994	 30.94212	705.19098	 25.00	
  8.008	 13.821	 30.23593	 23.16944	  8.57383	 17.35241	 14.41084	 -0.27760	 30.93695	705.21503	 25.00	
  7.997	 41.563	 30.25188	 21.49917	 10.08689	 20.56764	 11.31188	 -0.22553	 30.92542	705.29999	 25.00	
  7.988	 69.228	 30.28211	 18.45435	 12.89537	 22.63644	  9.70037	 -0.23207	 30.92851	705.27100	 25.00	
  8.006	 96.837	 30.28844	 15.08943	 16.52685	 23.09923	  9.35920	 -0.24275	 30.91629	705.27698	 25.00	
  7.997	124.550	 30.29777	 11.77187	 19.89830	 21.75933	 10.45047	 -0.28573	 30.91024	705.30798	 25.00	
  7.991	152.370	 30.29660	  9.58681	 22.26772	 19.00670	 13.03679	 -0.24134	 30.92368	705.31598	 25.00	
 12.009	161.059	 29.04235	  5.16378	 25.28578	 17.96690	 11.54700	 -0.80893	 30.91237	705.29999	 25.00	
 12.013	142.081	 29.07054	  6.60570	 23.44142	 21.30147	  8.70626	 -0.82680	 30.92742	705.31403	 25.00	
 12.006	123.113	 29.08502	  9.02601	 20.60672	 23.93396	  6.59849	 -0.90660	 30.92486	705.18402	 25.00	
 12.007	104.200	 29.07236	 12.02047	 17.24074	 25.49690	  5.37312	 -0.98754	 30.91348	705.21301	 25.00	
 11.989	 85.301	 29.08937	 15.74114	 13.34086	 25.82036	  5.09128	 -0.89439	 30.93830	705.23798	 25.00	
 12.013	 66.294	 29.06210	 19.23884	  9.90950	 24.83892	  5.77256	 -0.76101	 30.94964	705.20398	 25.00	
 12.012	 47.388	 28.99528	 22.43137	  7.23234	 22.61537	  7.38575	 -0.78630	 30.92621	705.29498	 25.00	
 11.990	 28.440	 28.94723	 24.74228	  5.27755	 19.66688	  9.87749	 -0.85324	 30.90675	705.29498	 25.00	
 11.991	  9.464	 28.99909	 25.97738	  4.17248	 16.16651	 12.93058	 -0.90879	 30.96869	705.26398	 25.00	
 11.991	 -9.464	 28.96278	 25.90171	  4.21632	 12.39771	 16.70263	 -0.90290	 30.95570	705.24701	 25.00	
 11.990	-28.440	 28.86450	 24.53187	  5.17770	  9.16091	 20.14676	 -0.91327	 30.91012	705.28497	 25.00	
 12.012	-47.388	 28.83573	 22.07528	  7.08541	  6.53424	 23.17120	 -0.99485	 30.94204	705.32300	 25.00	
 12.013	-66.294	 28.83461	 18.76923	  9.85139	  4.83030	 25.37334	 -1.07458	 30.96679	705.28302	 25.00	
 11.989	-85.301	 28.84184	 15.20436	 13.22239	  4.15560	 26.33577	 -1.06279	 30.96875	705.21802	 25.00	
 12.007	-104.200	 28.82328	 11.54398	 17.01945	  4.44430	 26.05550	 -1.00127	 30.94779	705.34198	 25.00	
 12.006	-123.113	 28.82634	  8.51772	 20.52814	  5.63433	 24.54868	 -0.83690	 30.93184	705.32501	 25.00	
 12.013	-142.081	 28.89665	  6.34422	 23.33640	  7.81529	 21.98516	 -0.81578	 30.94102	705.31097	 25.00	
 12.009	-161.059	 28.92341	  4.99669	 25.18823	 10.74401	 18.69899	 -0.87659	 30.90028	705.31598	 25.00	
 16.000	180.000	 27.17158	  0.18409	 28.09296	 12.57569	 13.42715	 -1.35894	 30.93319	705.20099	 25.00	
 15.990	-165.604	 27.12370	  0.43204	 27.58816	  9.21068	 17.12500	 -1.36846	 30.94843	705.14301	 25.00	
 16.002	-151.165	 27.06072	  1.45575	 26.12283	  6.12695	 20.54949	 -1.33115	 30.95826	705.25500	 25.00	
 16.002	-136.836	 26.94184	  3.10242	 23.69853	  3.57846	 23.65428	 -1.24017	 30.91294	705.21198	 25.00	
 15.995	-122.439	 26.90534	  5.48021	 20.70848	  1.79064	 26.14430	 -1.23130	 30.93192	705.21198	 25.00	
 15.993	-107.966	 26.86817	  8.33270	 17.10385	  0.61076	 27.80414	 -1.29265	 30.95486	705.23798	 25.00	
 16.005	-93.629	 26.83648	 11.53056	 13.32824	  0.16823	 28.44529	 -1.21562	 30.93216	705.27197	 25.00	
 15.992	-79.234	 26.84025	 15.18757	  9.90255	  0.30076	 28.17809	 -1.11289	 30.92855	705.21503	 24.90	
 16.009	-64.774	 26.87273	 18.87222	  6.70033	  1.08469	 26.97958	 -1.13245	 30.95527	705.28802	 24.90	
 15.997	-50.364	 26.88046	 22.22693	  3.99847	  2.62111	 24.78756	 -1.19528	 30.89019	705.33698	 24.90	
 15.997	-36.045	 26.96651	 25.06395	  2.04860	  4.55786	 21.92798	 -1.19156	 30.93820	705.28302	 24.90	
 16.000	-21.597	 27.01966	 27.03961	  0.74977	  7.45936	 18.59240	 -1.19846	 30.92126	705.26898	 24.90	
 16.003	 -7.169	 27.05643	 28.08885	  0.10512	 10.81414	 14.93450	 -1.18244	 30.92523	705.25201	 24.90	
 16.003	  7.169	 27.07295	 28.14824	  0.11155	 14.27773	 11.31208	 -1.17039	 30.92223	705.24402	 24.90	
 16.000	 21.597	 27.06569	 27.27680	  0.75195	 18.08222	  8.16198	 -1.20004	 30.92920	705.26398	 24.90	
 15.997	 36.045	 27.07319	 25.42719	  2.08262	 21.45889	  5.42635	 -1.21313	 30.89834	705.29401	 24.90	
 15.997	 50.364	 27.14528	 22.80836	  4.14094	 24.34032	  3.34357	 -1.19366	 30.93406	705.30200	 24.90	
 16.009	 64.774	 27.16669	 19.54398	  6.81438	 26.49017	  1.82256	 -1.20563	 30.89289	705.27100	 24.90	
 15.992	 79.234	 27.20499	 15.93764	  9.96597	 27.79257	  0.95279	 -1.28841	 30.93727	705.28802	 24.90	
 16.005	 93.629	 27.20771	 12.22457	 13.49419	 28.03054	  0.83520	 -1.33602	 30.89021	705.26099	 24.90	
 15.993	107.966	 27.25921	  9.01077	 17.34107	 27.29579	  1.40777	 -1.34832	 30.88953	705.25702	 24.90	
 15.995	122.439	 27.27400	  6.04542	 20.79496	 25.60154	  2.66691	 -1.35352	 30.88947	705.43500	 24.90	
 16.002	136.836	 27.27087	  3.61596	 23.86275	 23.04950	  4.49577	 -1.32035	 30.90783	705.41803	 24.90	
 16.002	151.165	 27.23445	  1.85638	 26.17933	 19.83866	  6.99887	 -1.31134	 30.88910	705.28802	 24.90	
 15.990	165.604	 27.18636	  0.64997	 27.59882	 16.33978	 10.08126	 -1.30892	 30.88670	705.29999	 24.90	
 20.003	168.362	 24.86050	 -3.09387	 29.32967	 14.21260	  8.23621	 -1.46398	 30.91873	705.26801	 25.00	
 20.008	156.764	 24.89158	 -2.36912	 28.21898	 17.99193	  5.18277	 -1.50331	 30.92047	705.25403	 25.00	
 20.000	145.147	 24.94983	 -1.22197	 26.33066	 21.33542	  2.58580	 -1.47919	 30.94195	705.37799	 24.90	
 19.995	133.545	 25.00438	  0.43612	 23.72985	 24.42550	  0.40511	 -1.43598	 30.96490	705.40100	 24.90	
 20.009	121.926	 24.93108	  2.79071	 20.51890	 26.82578	 -1.23339	 -1.27626	 30.93984	705.27698	 24.90	
 20.005	110.327	 24.89271	  5.74556	 17.06283	 28.50778	 -2.25460	 -1.10184	 30.88681	705.42700	 24.90	
 19.989	 98.733	 24.92278	  8.84428	 13.40196	 29.45317	 -2.76201	 -1.01708	 30.91413	705.25500	 25.00	
 19.999	 87.075	 24.88412	 12.18882	  9.90429	 29.61433	 -2.89992	 -1.12833	 30.90905	705.30902	 25.00	
 19.992	 75.457	 24.86045	 15.76822	  6.61091	 29.03443	 -2.61185	 -1.36341	 30.91850	705.40399	 24.90	
 20.009	 63.844	 24.77320	 19.30250	  3.61817	 27.60510	 -1.83585	 -1.41628	 30.87862	705.41998	 24.90	
 19.989	 52.269	 24.73500	 22.60455	  1.09969	 25.49111	 -0.61677	 -1.28011	 30.93510	705.36499	 24.90	
 19.999	 40.602	 24.67067	 25.42729	 -1.09087	 22.65598	  1.15372	 -1.18170	 30.90621	705.27502	 24.90	
 20.004	 29.051	 24.68799	 27.62233	 -2.43577	 19.50285	  3.55232	 -1.04604	 30.92466	705.35101	 25.00	
 20.005	 17.433	 24.68670	 29.06732	 -3.32993	 15.80301	  6.34638	 -0.94805	 30.93999	705.31702	 24.90	
 20.006	  5.780	 24.65320	 29.74203	 -3.97685	 12.30277	  9.46066	 -0.91651	 30.93740	705.33899	 24.90	
 20.006	 -5.780	 24.66211	 29.66978	 -3.84898	  8.91441	 12.75583	 -0.99401	 30.92229	705.27802	 24.90	
 20.005	-17.433	 24.63018	 28.83197	 -3.35415	  5.60359	 16.44634	 -1.03273	 30.91591	705.33002	 24.90	
 20.004	-29.051	 24.55968	 27.22827	 -2.52513	  2.90339	 19.90536	 -0.99564	 30.91404	705.30603	 24.90	
 19.999	-40.602	 24.52130	 24.90935	 -1.13972	  0.50524	 23.12799	 -0.96187	 30.94127	705.36401	 24.90	
 19.989	-52.269	 24.46112	 21.89682	  0.88614	 -1.40867	 25.90174	 -0.92981	 30.93541	705.31897	 24.90	
 20.009	-63.844	 24.43357	 18.52713	  3.53433	 -2.73850	 27.98475	 -0.85639	 30.94960	705.38800	 24.90	
 19.992	-75.457	 24.40563	 14.88764	  6.44637	 -3.42496	 29.27230	 -0.85509	 30.90356	705.34399	 24.90	
 19.999	-87.075	 24.38931	 11.28934	  9.71895	 -3.78197	 29.85932	 -0.89567	 30.90966	705.35699	 24.90	
 19.989	-98.733	 24.42001	  8.00937	 13.11044	 -3.71534	 29.75338	 -0.99859	 30.95541	705.38202	 24.90	
 20.005	-110.327	 24.37275	  4.95173	 16.74174	 -3.21954	 28.83707	 -1.25746	 30.90505	705.45203	 24.90	
 20.009	-121.926	 24.44122	  2.08351	 20.34747	 -2.05451	 27.20424	 -1.39436	 30.90830	705.46899	 24.90	
 19.995	-133.545	 24.49023	 -0.12968	 23.40352	 -0.44017	 24.85031	 -1.39228	 30.89629	705.33002	 24.90	
 20.000	-145.147	 24.55242	 -1.71028	 26.06406	  1.71993	 21.89585	 -1.33086	 30.89411	705.54498	 24.90	
 20.008	-156.764	 24.66193	 -2.67307	 28.09747	  4.31133	 18.59298	 -1.29817	 30.93376	705.30298	 24.90	
 20.003	-168.362	 24.71414	 -3.21719	 29.24596	  7.35658	 15.02025	 -1.29589	 30.89885	705.36200	 24.90	
 20.000	180.000	 24.81061	 -3.41457	 29.67293	 10.78103	 11.57143	 -1.36647	 30.93219	705.42102	 24.90	
