FileType=PCF
NHL=14
Date=10/25/18	14:30:44
Facility=APL
Serial=16328-17
Customer=NASA
NP=6
Mach=0.250000
Calibration=1:1
CalPts=490
TstPts=95
PortNumbering=AP Standard
Units=Torr C m/s kg/m^3 deg mm 
Theta[deg]	Phi[deg]	P1[Torr]	P2[Torr]	P3[Torr]	P4[Torr]	P5[Torr]	P6[Torr]	Pt[Torr]	Ps[Abs,Torr]	Ts[C]	
  0.000	  0.000	 30.06437	 15.97080	 15.03132	 15.79990	 15.21232	  0.20435	 30.04277	709.48499	 18.30	
  1.691	128.401	 29.77037	 14.74992	 15.77194	 16.86577	 13.80001	  0.19408	 29.75831	708.60400	 22.40	
  1.692	 77.194	 29.77576	 16.10563	 14.50343	 17.14526	 13.50920	  0.18892	 29.76850	708.60602	 22.40	
  1.699	 26.182	 29.83341	 17.22572	 13.50817	 16.29135	 14.37156	  0.18409	 29.82956	708.60699	 22.40	
  1.699	-26.182	 29.75230	 17.20387	 13.45770	 14.86529	 15.72241	  0.16637	 29.75237	708.62097	 22.40	
  1.692	-77.194	 29.73924	 16.07192	 14.53454	 14.07551	 16.55859	  0.16784	 29.73053	708.64502	 22.40	
  1.691	-128.401	 29.79821	 14.75839	 15.79393	 14.42387	 16.28113	  0.18363	 29.78135	708.66400	 22.40	
  1.700	180.000	 29.78639	 14.18808	 16.37374	 15.65332	 15.01989	  0.19272	 29.77303	708.62903	 22.40	
  3.400	180.000	 29.77113	 12.61477	 17.96511	 15.57487	 14.91971	  0.15357	 29.77904	708.64801	 22.40	
  3.388	-152.325	 29.76012	 12.90176	 17.60666	 14.13079	 16.38450	  0.15210	 29.76699	708.72601	 22.40	
  3.397	-124.529	 29.77244	 13.85728	 16.53948	 12.99835	 17.59000	  0.13407	 29.78264	708.65601	 22.40	
  3.399	-96.763	 29.77825	 15.22058	 15.18185	 12.52858	 18.11838	  0.11585	 29.81388	708.57898	 22.40	
  3.394	-69.283	 29.70677	 16.67449	 13.70869	 12.61791	 17.87914	  0.09530	 29.76011	708.61700	 22.40	
  3.400	-41.398	 29.66352	 17.96338	 12.52449	 13.34648	 16.94897	  0.08227	 29.73077	708.65302	 22.40	
  3.401	-14.021	 29.68442	 18.69332	 11.89877	 14.62862	 15.59540	  0.08854	 29.76867	708.64801	 22.40	
  3.401	 14.021	 29.69209	 18.74501	 11.86134	 16.14512	 14.06667	  0.11628	 29.78274	708.62299	 22.40	
  3.400	 41.398	 29.70195	 18.05277	 12.45924	 17.50960	 12.80563	  0.12489	 29.78941	708.67700	 22.40	
  3.394	 69.283	 29.67482	 16.73667	 13.61622	 18.41638	 12.00916	  0.13442	 29.73912	708.66302	 22.40	
  3.399	 96.763	 29.71176	 15.24638	 15.04114	 18.65714	 11.84920	  0.13409	 29.75542	708.63300	 22.50	
  3.397	124.529	 29.76475	 13.89060	 16.43757	 18.18225	 12.37445	  0.14801	 29.79080	708.68701	 22.50	
  3.388	152.325	 29.76125	 12.92694	 17.56931	 17.02274	 13.47191	  0.15108	 29.77308	708.64801	 22.50	
  5.099	161.165	 29.65211	 11.22308	 19.11606	 16.93773	 13.22185	  0.05864	 29.78188	708.77399	 22.50	
  5.109	142.013	 29.63138	 11.88684	 18.29665	 18.35529	 11.85339	 -0.02819	 29.77202	708.63300	 22.50	
  5.095	123.033	 29.64156	 12.94931	 17.12215	 19.39338	 10.87097	 -0.04895	 29.79922	708.76501	 22.50	
  5.105	104.191	 29.63187	 14.29194	 15.60510	 20.01846	 10.31658	  0.01335	 29.82137	708.70398	 22.50	
  5.093	 85.207	 29.52115	 15.79129	 14.09721	 20.01126	 10.19086	 -0.06060	 29.73650	708.69897	 22.40	
  5.104	 66.290	 29.51167	 17.33741	 12.67438	 19.61390	 10.50967	 -0.01276	 29.75884	708.71802	 22.40	
  5.094	 47.331	 29.51549	 18.67687	 11.48823	 18.69443	 11.23445	 -0.03586	 29.78407	708.67603	 22.40	
  5.089	 28.397	 29.48817	 19.59418	 10.64254	 17.38916	 12.40688	 -0.03659	 29.76611	708.71503	 22.40	
  5.096	  9.576	 29.48770	 20.10660	 10.18663	 15.90712	 13.80213	 -0.02512	 29.76259	708.65302	 22.40	
  5.096	 -9.576	 29.48301	 20.07024	 10.24803	 14.34675	 15.35855	 -0.07630	 29.75520	708.62799	 22.40	
  5.089	-28.397	 29.50602	 19.57612	 10.68968	 12.96784	 16.88358	 -0.09728	 29.76846	708.62799	 22.40	
  5.094	-47.331	 29.54684	 18.62394	 11.60359	 11.87206	 18.16002	 -0.11355	 29.79004	708.59802	 22.40	
  5.104	-66.290	 29.55586	 17.24305	 12.85004	 11.11459	 19.08870	 -0.09687	 29.76950	708.63098	 22.40	
  5.093	-85.207	 29.58304	 15.72048	 14.27670	 10.85940	 19.50103	 -0.04024	 29.76875	708.69299	 22.40	
  5.105	-104.191	 29.61947	 14.18584	 15.74760	 11.01479	 19.38198	 -0.06044	 29.77307	708.65601	 22.40	
  5.095	-123.033	 29.66630	 12.86028	 17.26959	 11.61839	 18.75906	  0.04193	 29.80099	708.68500	 22.40	
  5.109	-142.013	 29.61888	 11.79425	 18.39964	 12.56883	 17.66322	  0.06016	 29.73553	708.60199	 22.40	
  5.099	-161.165	 29.65773	 11.20407	 19.13798	 13.90284	 16.28334	  0.06273	 29.77622	708.66302	 22.40	
  5.100	180.000	 29.64522	 10.98494	 19.37383	 15.40289	 14.72644	 -0.01664	 29.75824	708.67102	 22.40	
  6.800	180.000	 29.44293	  9.31999	 20.69493	 15.20319	 14.41604	 -0.18105	 29.77529	708.59003	 22.40	
  6.796	-166.229	 29.45571	  9.43202	 20.54773	 13.73363	 15.95631	 -0.15722	 29.78957	708.65601	 22.40	
  6.808	-152.311	 29.40917	  9.84264	 20.01804	 12.32188	 17.39862	 -0.15779	 29.74841	708.65997	 22.40	
  6.795	-138.383	 29.41037	 10.60186	 19.15890	 11.15669	 18.70040	 -0.11911	 29.76065	708.66400	 22.40	
  6.792	-124.591	 29.41114	 11.62232	 18.01270	 10.20731	 19.74781	 -0.18714	 29.77932	708.61200	 22.40	
  6.787	-110.754	 29.41813	 12.87293	 16.62121	  9.55077	 20.48683	 -0.21666	 29.81029	708.62500	 22.40	
  6.800	-96.985	 29.37954	 14.26759	 15.10396	  9.19725	 20.86510	 -0.26294	 29.80247	708.61499	 22.40	
  6.800	-83.015	 29.35390	 15.78081	 13.67291	  9.15588	 20.85164	 -0.30732	 29.80950	708.67999	 22.40	
  6.787	-69.246	 29.28116	 17.26878	 12.26482	  9.37345	 20.42971	 -0.33575	 29.76538	708.62299	 22.40	
  6.792	-55.409	 29.27905	 18.66759	 10.98840	  9.94516	 19.68427	 -0.32710	 29.79385	708.60400	 22.40	
  6.795	-41.617	 29.24437	 19.84709	  9.87633	 10.80687	 18.62355	 -0.32008	 29.79849	708.66400	 22.40	
  6.808	-27.689	 29.18725	 20.75408	  9.01470	 11.92710	 17.29126	 -0.30574	 29.75690	708.73901	 22.40	
  6.796	-13.771	 29.22135	 21.32156	  8.61095	 13.33284	 15.80610	 -0.26219	 29.79780	708.70398	 22.40	
  6.800	  0.000	 29.19855	 21.52740	  8.40067	 14.76753	 14.27806	 -0.23656	 29.79218	708.62799	 22.40	
  6.796	 13.771	 29.15058	 21.30877	  8.51763	 16.25367	 12.76624	 -0.22195	 29.74129	708.62500	 22.30	
  6.808	 27.689	 29.17684	 20.77064	  8.98105	 17.74167	 11.40013	 -0.21088	 29.76831	708.67902	 22.30	
  6.795	 41.617	 29.16228	 19.84211	  9.76322	 19.05813	 10.21311	 -0.17671	 29.73762	708.58801	 22.40	
  6.792	 55.409	 29.18041	 18.74280	 10.77467	 20.12716	  9.30512	 -0.19992	 29.74219	708.54199	 22.40	
  6.787	 69.246	 29.25678	 17.41420	 12.06802	 20.92221	  8.77020	 -0.22242	 29.78296	708.60602	 22.40	
  6.800	 83.015	 29.28176	 15.87259	 13.42584	 21.35973	  8.49652	 -0.23250	 29.77567	708.60602	 22.40	
  6.800	 96.985	 29.32868	 14.36369	 14.94714	 21.45415	  8.46913	 -0.25612	 29.80075	708.57501	 22.40	
  6.787	110.754	 29.34794	 12.96474	 16.37974	 21.09583	  8.80482	 -0.25219	 29.77484	708.67200	 22.40	
  6.792	124.591	 29.38222	 11.73373	 17.82626	 20.41527	  9.42319	 -0.22986	 29.78238	708.59601	 22.40	
  6.795	138.383	 29.41352	 10.70370	 19.01987	 19.42092	 10.36106	 -0.20451	 29.79013	708.59601	 22.40	
  6.808	152.311	 29.43398	  9.94323	 19.93241	 18.14818	 11.55311	 -0.20092	 29.78870	708.67102	 22.40	
  6.796	166.229	 29.46696	  9.48886	 20.51671	 16.70415	 12.96741	 -0.16793	 29.80844	708.64502	 22.40	
  8.491	168.704	 29.11324	  7.65755	 21.83388	 16.45210	 12.51276	 -0.40047	 29.78778	708.59802	 22.40	
  8.502	157.493	 29.10370	  8.00112	 21.34732	 17.95693	 11.07674	 -0.40914	 29.79758	708.64801	 22.40	
  8.494	146.194	 29.08215	  8.66884	 20.50196	 19.34182	  9.77988	 -0.43095	 29.79215	708.65997	 22.40	
  8.495	135.039	 29.07441	  9.53793	 19.53286	 20.54298	  8.68851	 -0.45217	 29.81307	708.70398	 22.40	
  8.487	123.723	 29.03734	 10.62934	 18.28535	 21.52883	  7.79571	 -0.48156	 29.80881	708.60901	 22.30	
  8.492	112.575	 28.99413	 11.87148	 16.83001	 22.23108	  7.15086	 -0.51416	 29.80177	708.63702	 22.30	
  8.510	101.220	 28.93071	 13.25021	 15.27634	 22.64668	  6.75299	 -0.52231	 29.77071	708.61700	 22.30	
  8.500	 90.000	 28.88157	 14.75296	 13.77079	 22.71192	  6.66556	 -0.50523	 29.75420	708.70898	 22.30	
  8.510	 78.780	 28.86393	 16.30251	 12.34575	 22.54020	  6.74178	 -0.47155	 29.78401	708.64398	 22.30	
  8.492	 67.425	 28.83204	 17.80474	 10.95491	 21.98795	  7.11852	 -0.44653	 29.78063	708.59100	 22.30	
  8.487	 56.277	 28.82290	 19.17561	  9.70886	 21.16579	  7.69133	 -0.41951	 29.78837	708.65601	 22.30	
  8.495	 44.961	 28.81728	 20.45033	  8.54429	 20.12250	  8.56035	 -0.41198	 29.81328	708.63098	 22.30	
  8.494	 33.806	 28.78065	 21.45519	  7.61941	 18.84154	  9.65054	 -0.41113	 29.80576	708.71802	 22.30	
  8.502	 22.507	 28.73686	 22.17836	  6.97729	 17.39479	 10.91750	 -0.45960	 29.76593	708.65198	 22.30	
  8.491	 11.296	 28.76299	 22.65371	  6.58918	 15.90716	 12.36039	 -0.48047	 29.79889	708.62097	 22.30	
  8.500	  0.000	 28.73751	 22.76860	  6.50834	 14.34497	 13.86965	 -0.48335	 29.76056	708.66302	 22.30	
  8.491	-11.296	 28.75331	 22.61411	  6.64766	 12.86694	 15.42373	 -0.49675	 29.77077	708.66803	 22.30	
  8.502	-22.507	 28.76750	 22.11092	  7.11220	 11.44545	 16.96743	 -0.53770	 29.76164	708.59900	 22.30	
  8.494	-33.806	 28.81268	 21.35963	  7.77907	 10.18445	 18.43413	 -0.56482	 29.79069	708.35400	 22.30	
  8.495	-44.961	 28.79723	 20.30538	  8.68274	  9.09762	 19.68153	 -0.58122	 29.75176	708.62097	 22.30	
  8.487	-56.277	 28.87018	 19.05322	  9.89061	  8.23475	 20.79523	 -0.61125	 29.79360	708.70898	 22.30	
  8.492	-67.425	 28.91697	 17.71697	 11.16916	  7.66519	 21.56757	 -0.62324	 29.81093	708.63599	 22.30	
  8.510	-78.780	 28.93734	 16.16088	 12.59785	  7.32562	 22.07564	 -0.60753	 29.80008	708.62299	 22.30	
  8.500	-90.000	 28.95851	 14.61837	 13.98786	  7.29368	 22.23025	 -0.56961	 29.77467	708.53101	 22.30	
  8.510	-101.220	 29.01105	 13.15027	 15.48864	  7.44325	 22.09162	 -0.50888	 29.79798	708.60602	 22.30	
  8.492	-112.575	 29.00892	 11.72055	 17.07604	  7.85376	 21.60007	 -0.44915	 29.76416	708.64697	 22.30	
  8.487	-123.723	 29.07381	 10.50157	 18.49638	  8.58708	 20.83472	 -0.40381	 29.79769	708.56598	 22.30	
  8.495	-135.039	 29.11367	  9.44348	 19.73100	  9.54485	 19.79099	 -0.37943	 29.81343	708.54199	 22.30	
  8.494	-146.194	 29.06574	  8.56706	 20.64541	 10.65359	 18.51521	 -0.36822	 29.74343	708.58002	 22.30	
  8.502	-157.493	 29.08381	  7.93517	 21.41544	 11.93562	 17.11010	 -0.39789	 29.75764	708.59601	 22.30	
  8.491	-168.704	 29.09564	  7.63279	 21.82997	 13.36277	 15.60132	 -0.40707	 29.74944	708.59100	 22.30	
  8.500	180.000	 29.13657	  7.51027	 22.03277	 14.91063	 14.06604	 -0.41086	 29.80611	708.59003	 22.30	
 10.200	180.000	 28.67845	  5.67039	 23.25893	 14.54390	 13.58355	 -0.66851	 29.79150	708.57898	 22.30	
 10.191	-170.497	 28.71916	  5.76539	 23.15553	 13.02106	 15.19493	 -0.66493	 29.82563	708.64801	 22.30	
 10.210	-161.034	 28.67216	  5.97775	 22.78754	 11.53152	 16.71376	 -0.65382	 29.79450	708.67102	 22.30	
 10.194	-151.526	 28.64988	  6.49054	 22.11758	 10.14845	 18.21315	 -0.61847	 29.78237	708.65302	 22.30	
 10.190	-142.105	 28.66184	  7.25009	 21.22157	  8.92091	 19.60898	 -0.59995	 29.80501	708.76001	 22.30	
 10.215	-132.646	 28.59539	  8.12977	 20.14933	  7.78205	 20.80216	 -0.60428	 29.76629	708.68298	 22.30	
 10.203	-123.092	 28.57602	  9.29758	 18.84954	  6.87568	 21.85271	 -0.62457	 29.77719	708.62799	 22.30	
 10.192	-113.678	 28.57508	 10.53079	 17.49681	  6.18645	 22.63127	 -0.66887	 29.80030	708.65503	 22.30	
 10.208	-104.249	 28.50475	 11.89667	 15.90957	  5.70785	 23.13087	 -0.72757	 29.76186	708.65198	 22.30	
 10.210	-94.801	 28.52814	 13.40635	 14.37826	  5.45273	 23.48638	 -0.81186	 29.83020	708.67999	 22.30	
 10.210	-85.199	 28.47100	 14.93287	 12.92114	  5.43327	 23.42973	 -0.86651	 29.80429	708.66101	 22.30	
 10.208	-75.751	 28.38260	 16.47543	 11.41270	  5.54228	 23.11690	 -0.90538	 29.75785	708.67999	 22.30	
 10.192	-66.322	 28.39178	 17.98761	 10.04203	  5.93522	 22.58227	 -0.90244	 29.79552	708.70099	 22.30	
 10.203	-56.908	 28.36414	 19.38214	  8.73869	  6.48938	 21.82159	 -0.88025	 29.81127	708.71997	 22.20	
 10.215	-47.354	 28.30551	 20.71507	  7.45309	  7.30384	 20.76025	 -0.84795	 29.79328	708.73102	 22.20	
 10.190	-37.895	 28.27594	 21.81027	  6.46639	  8.35452	 19.49304	 -0.82639	 29.77919	708.71802	 22.30	
 10.194	-28.474	 28.27328	 22.75395	  5.60428	  9.55537	 18.12217	 -0.80377	 29.80037	708.61499	 22.30	
 10.210	-18.966	 28.26128	 23.42814	  5.05233	 10.91257	 16.61862	 -0.77629	 29.81309	708.66901	 22.30	
 10.191	 -9.503	 28.25208	 23.80724	  4.76921	 12.35223	 15.06869	 -0.73043	 29.80130	708.64099	 22.30	
 10.200	  0.000	 28.21632	 23.94950	  4.64216	 13.87828	 13.43529	 -0.73135	 29.77024	708.69897	 22.30	
 10.191	  9.503	 28.22424	 23.86126	  4.67913	 15.43156	 11.90802	 -0.72824	 29.79449	708.71503	 22.30	
 10.210	 18.966	 28.24914	 23.46119	  4.97329	 17.00120	 10.45791	 -0.73230	 29.81571	708.66901	 22.30	
 10.194	 28.474	 28.23659	 22.84138	  5.44693	 18.46607	  9.08118	 -0.68551	 29.81069	708.71698	 22.30	
 10.190	 37.895	 28.24525	 21.96624	  6.26818	 19.81544	  7.89652	 -0.62898	 29.79399	708.73901	 22.20	
 10.215	 47.354	 28.26645	 20.88418	  7.23448	 21.06005	  6.86150	 -0.66020	 29.79940	708.66803	 22.20	
 10.203	 56.908	 28.27698	 19.56772	  8.43498	 22.13084	  5.98271	 -0.66600	 29.78927	708.68500	 22.20	
 10.192	 66.322	 28.31697	 18.17913	  9.74099	 22.92747	  5.39865	 -0.67520	 29.77810	708.70697	 22.20	
 10.208	 75.751	 28.35670	 16.69826	 11.12789	 23.55057	  5.04487	 -0.70926	 29.80166	708.75702	 22.20	
 10.210	 85.199	 28.37877	 15.11607	 12.62421	 23.86194	  4.85685	 -0.76282	 29.78256	708.68701	 22.20	
 10.210	 94.801	 28.40326	 13.55396	 14.09867	 23.91185	  4.83444	 -0.80448	 29.76859	708.67200	 22.20	
 10.208	104.249	 28.45039	 12.10586	 15.56002	 23.72093	  5.03362	 -0.80823	 29.78221	708.70300	 22.30	
 10.192	113.678	 28.50955	 10.72189	 17.15401	 23.25219	  5.46226	 -0.78506	 29.80514	708.72601	 22.30	
 10.203	123.092	 28.52245	  9.45112	 18.58741	 22.51548	  6.10527	 -0.73905	 29.77680	708.72302	 22.30	
 10.215	132.646	 28.57797	  8.30909	 19.90536	 21.56881	  6.96516	 -0.69867	 29.79488	708.68799	 22.30	
 10.190	142.105	 28.58648	  7.32382	 21.01406	 20.38922	  8.00794	 -0.67593	 29.77849	708.75000	 22.30	
 10.194	151.526	 28.60775	  6.57587	 21.93233	 19.06220	  9.21246	 -0.65777	 29.76539	708.72302	 22.30	
 10.210	161.034	 28.67510	  6.01978	 22.67502	 17.65213	 10.58292	 -0.65077	 29.81246	708.79199	 22.30	
 10.191	170.497	 28.67505	  5.75555	 23.07285	 16.10194	 12.06108	 -0.64678	 29.78834	708.81702	 22.30	
 11.899	171.783	 28.08076	  3.89522	 24.23335	 15.63263	 11.50649	 -0.87477	 29.76123	708.66101	 22.30	
 11.890	163.610	 28.10008	  4.13639	 23.85479	 17.19133	 10.05870	 -0.86662	 29.78900	708.80402	 22.30	
 11.889	155.445	 28.09034	  4.58736	 23.22899	 18.69711	  8.66757	 -0.86674	 29.79140	708.71997	 22.30	
 11.909	147.299	 28.03471	  5.18260	 22.40878	 20.08517	  7.36962	 -0.87705	 29.78431	708.79999	 22.30	
 11.902	139.148	 27.99636	  6.00085	 21.39027	 21.36067	  6.21168	 -0.89431	 29.77530	708.68799	 22.30	
 11.894	130.867	 28.01162	  7.04294	 20.19763	 22.51164	  5.26403	 -0.93369	 29.81551	708.80603	 22.30	
 11.897	122.732	 27.93410	  8.19783	 18.86564	 23.40397	  4.44247	 -0.99000	 29.76748	708.71198	 22.30	
 11.903	114.597	 27.89760	  9.45092	 17.42231	 24.14758	  3.77509	 -1.04175	 29.78086	708.70099	 22.30	
 11.893	106.346	 27.86792	 10.85773	 15.84510	 24.64968	  3.37016	 -1.07642	 29.78222	708.71997	 22.30	
 11.892	 98.155	 27.83587	 12.32260	 14.31182	 24.95444	  3.09638	 -1.08030	 29.78407	708.80603	 22.30	
 11.900	 90.000	 27.80465	 13.83668	 12.85856	 25.02559	  3.02712	 -1.06214	 29.79781	708.83600	 22.30	
 11.892	 81.845	 27.74776	 15.38801	 11.37767	 24.82029	  3.12539	 -1.00678	 29.77257	708.78003	 22.30	
 11.893	 73.654	 27.73696	 16.96795	  9.88346	 24.46143	  3.36540	 -0.93108	 29.81739	708.78198	 22.30	
 11.903	 65.403	 27.66556	 18.43958	  8.45907	 23.78125	  3.72630	 -0.89328	 29.77204	708.83002	 22.30	
 11.897	 57.268	 27.65927	 19.89563	  7.12418	 22.95973	  4.34911	 -0.88190	 29.80299	708.75299	 22.30	
 11.894	 49.133	 27.61374	 21.16178	  5.90101	 21.92099	  5.16554	 -0.87319	 29.78390	708.75000	 22.30	
 11.902	 40.852	 27.57058	 22.31027	  4.88925	 20.70424	  6.14495	 -0.86635	 29.76318	708.77698	 22.30	
 11.909	 32.701	 27.56679	 23.28652	  4.18448	 19.36692	  7.27334	 -0.90159	 29.77667	708.82202	 22.30	
 11.889	 24.555	 27.57034	 24.04994	  3.63785	 17.94063	  8.52946	 -0.94990	 29.79891	708.76898	 22.30	
 11.890	 16.390	 27.57401	 24.59802	  3.25596	 16.42731	  9.91398	 -0.98721	 29.79788	708.83301	 22.30	
 11.899	  8.217	 27.56320	 24.92103	  3.02723	 14.87440	 11.38921	 -0.98377	 29.78841	708.83301	 22.30	
 11.900	  0.000	 27.57334	 25.01832	  2.99107	 13.32183	 12.92984	 -0.97323	 29.77764	708.85199	 22.30	
 11.899	 -8.217	 27.56139	 24.89810	  3.04839	 11.79515	 14.53090	 -0.96699	 29.77454	708.64398	 22.30	
 11.890	-16.390	 27.56071	 24.52422	  3.32404	 10.29425	 16.12679	 -0.99192	 29.76425	708.84100	 22.30	
 11.889	-24.555	 27.63675	 23.98542	  3.78907	  8.97844	 17.63528	 -1.02341	 29.81025	708.78003	 22.30	
 11.909	-32.701	 27.61645	 23.17112	  4.38714	  7.67597	 19.08313	 -1.04377	 29.77812	708.86902	 22.30	
 11.902	-40.852	 27.64760	 22.18082	  5.12305	  6.55845	 20.43932	 -1.06050	 29.78459	708.90100	 22.30	
 11.894	-49.133	 27.69737	 21.01834	  6.12439	  5.58021	 21.66877	 -1.08538	 29.81166	708.83801	 22.30	
 11.897	-57.268	 27.75048	 19.67978	  7.43013	  4.79577	 22.70736	 -1.11610	 29.81996	708.86499	 22.30	
 11.903	-65.403	 27.76620	 18.27572	  8.74179	  4.22364	 23.51394	 -1.15300	 29.81275	708.89801	 22.30	
 11.893	-73.654	 27.79732	 16.77021	 10.14126	  3.84428	 24.11217	 -1.15606	 29.80949	708.85699	 22.30	
 11.892	-81.845	 27.84282	 15.20167	 11.66051	  3.65483	 24.46700	 -1.12671	 29.80229	708.84100	 22.30	
 11.900	-90.000	 27.88210	 13.65486	 13.14579	  3.63439	 24.59269	 -1.08144	 29.80104	708.81500	 22.30	
 11.892	-98.155	 27.94111	 12.14254	 14.65264	  3.75401	 24.49755	 -1.02567	 29.81902	708.82501	 22.30	
 11.893	-106.346	 27.94190	 10.67376	 16.16602	  4.04299	 24.14350	 -0.94035	 29.78346	708.85999	 22.30	
 11.903	-114.597	 27.96362	  9.32378	 17.72535	  4.52449	 23.53815	 -0.87964	 29.76883	708.82501	 22.30	
 11.897	-122.732	 27.99096	  8.06156	 19.15551	  5.20656	 22.72803	 -0.82554	 29.75220	708.74402	 22.30	
 11.894	-130.867	 28.02839	  6.93440	 20.43439	  6.09188	 21.73270	 -0.81509	 29.76219	708.80701	 22.30	
 11.902	-139.148	 28.04262	  5.87966	 21.64892	  7.11697	 20.55489	 -0.82498	 29.77919	708.81201	 22.30	
 11.909	-147.299	 28.00819	  5.09080	 22.59341	  8.28646	 19.18098	 -0.84621	 29.71946	708.82501	 22.30	
 11.889	-155.445	 28.07555	  4.52776	 23.38240	  9.61787	 17.76052	 -0.88476	 29.75879	708.94098	 22.30	
 11.890	-163.610	 28.06529	  4.12034	 23.92694	 11.02528	 16.22232	 -0.91913	 29.73636	708.81500	 22.40	
 11.899	-171.783	 28.11252	  3.90901	 24.30035	 12.52832	 14.67400	 -0.92481	 29.79017	708.86298	 22.30	
 11.900	180.000	 28.12988	  3.84919	 24.40034	 14.08887	 13.09579	 -0.92465	 29.80278	708.79797	 22.40	
 13.600	180.000	 27.48711	  2.12478	 25.45185	 13.55508	 12.54437	 -1.11140	 29.82380	708.82202	 22.30	
 13.608	-172.853	 27.44774	  2.13469	 25.37304	 12.01598	 14.06076	 -1.12600	 29.78737	708.83801	 22.30	
 13.611	-165.583	 27.41236	  2.30533	 25.06831	 10.48106	 15.65064	 -1.12510	 29.76167	708.85498	 22.30	
 13.601	-158.353	 27.42972	  2.65753	 24.57656	  9.06566	 17.21643	 -1.10752	 29.77467	708.82800	 22.30	
 13.609	-151.210	 27.38289	  3.13148	 23.87903	  7.70664	 18.68549	 -1.06442	 29.76046	708.82800	 22.30	
 13.611	-143.999	 27.38064	  3.81137	 22.97191	  6.46963	 20.11735	 -1.02300	 29.75702	708.85199	 22.30	
 13.601	-136.825	 27.36644	  4.58202	 21.96968	  5.36867	 21.40556	 -0.99347	 29.77543	708.77301	 22.30	
 13.596	-129.640	 27.33868	  5.58575	 20.73314	  4.38059	 22.54855	 -0.98498	 29.76315	708.74902	 22.30	
 13.611	-122.431	 27.31943	  6.72091	 19.42625	  3.56226	 23.54988	 -1.00034	 29.77637	708.76099	 22.30	
 13.604	-115.211	 27.27982	  7.98787	 17.97795	  2.92978	 24.34706	 -1.04644	 29.77238	708.76599	 22.30	
 13.595	-108.042	 27.26825	  9.32927	 16.42071	  2.45511	 24.97683	 -1.09835	 29.79529	708.78802	 22.30	
 13.607	-100.793	 27.21365	 10.75542	 14.84026	  2.09473	 25.38992	 -1.17285	 29.78584	708.78003	 22.40	
 13.601	-93.617	 27.16763	 12.24084	 13.35688	  1.92077	 25.55220	 -1.20343	 29.76200	708.79199	 22.40	
 13.601	-86.383	 27.10188	 13.77862	 11.82087	  1.85019	 25.55988	 -1.23856	 29.75819	708.83600	 22.40	
 13.607	-79.207	 27.09366	 15.36737	 10.29111	  1.92847	 25.37977	 -1.25756	 29.80539	708.86499	 22.40	
 13.595	-71.958	 27.02620	 16.89830	  8.80673	  2.14831	 24.94150	 -1.28787	 29.77870	708.80902	 22.40	
 13.604	-64.789	 26.98677	 18.38342	  7.37336	  2.57574	 24.30276	 -1.29042	 29.77298	708.78003	 22.40	
 13.611	-57.569	 26.94396	 19.81051	  5.97950	  3.13520	 23.46762	 -1.27760	 29.75804	708.84601	 22.40	
 13.596	-50.360	 26.92804	 21.14657	  4.94520	  3.84483	 22.47726	 -1.26421	 29.77211	708.87701	 22.40	
 13.601	-43.175	 26.90175	 22.41039	  3.97254	  4.72058	 21.31563	 -1.24356	 29.78914	708.88397	 22.40	
 13.611	-36.001	 26.88607	 23.47276	  3.12831	  5.77542	 20.00360	 -1.23975	 29.79657	708.84601	 22.40	
 13.609	-28.790	 26.83562	 24.32732	  2.44478	  6.96670	 18.57424	 -1.23767	 29.75675	708.78003	 22.40	
 13.601	-21.647	 26.83654	 25.05903	  1.89819	  8.27502	 17.09711	 -1.22884	 29.78318	708.85400	 22.40	
 13.611	-14.417	 26.79449	 25.57381	  1.50197	  9.65169	 15.52482	 -1.21252	 29.77350	708.76599	 22.40	
 13.608	 -7.147	 26.82309	 25.91634	  1.30159	 11.15332	 13.95968	 -1.20152	 29.80646	708.86499	 22.40	
 13.600	  0.000	 26.78488	 25.99151	  1.24196	 12.67199	 12.34072	 -1.20023	 29.75927	708.87903	 22.40	
 13.608	  7.147	 26.79112	 25.91788	  1.27817	 14.19936	 10.82983	 -1.22787	 29.77704	708.85199	 22.40	
 13.611	 14.417	 26.75386	 25.63824	  1.41235	 15.77333	  9.28486	 -1.24777	 29.76779	708.78003	 22.40	
 13.601	 21.647	 26.76480	 25.13871	  1.78529	 17.27900	  7.93106	 -1.22253	 29.76097	708.77698	 22.40	
 13.609	 28.790	 26.78423	 24.48624	  2.26111	 18.76950	  6.64619	 -1.16695	 29.77974	708.87701	 22.40	
 13.611	 36.001	 26.83494	 23.66164	  2.90588	 20.19312	  5.47392	 -1.12027	 29.80687	708.82202	 22.40	
 13.601	 43.175	 26.87774	 22.63557	  3.71140	 21.53046	  4.38199	 -1.10663	 29.83265	708.78198	 22.40	
 13.596	 50.360	 26.85580	 21.41068	  4.60880	 22.65204	  3.46894	 -1.10042	 29.76876	708.79999	 22.40	
 13.611	 57.569	 26.91112	 20.09528	  5.69477	 23.69813	  2.69912	 -1.09308	 29.79471	708.81201	 22.30	
 13.604	 64.789	 26.91796	 18.64919	  7.06743	 24.51022	  2.09163	 -1.10262	 29.76373	708.71997	 22.30	
 13.595	 71.958	 27.00331	 17.20333	  8.50301	 25.22874	  1.63306	 -1.15093	 29.82209	708.81500	 22.30	
 13.607	 79.207	 27.02913	 15.64826	  9.95528	 25.68728	  1.42178	 -1.23183	 29.81033	708.74200	 22.30	
 13.601	 86.383	 27.02575	 14.05301	 11.45717	 25.92149	  1.23442	 -1.29875	 29.77053	708.79602	 22.30	
 13.601	 93.617	 27.08305	 12.52030	 12.94944	 25.99384	  1.22408	 -1.33292	 29.78226	708.65997	 22.40	
 13.607	100.793	 27.10514	 10.99710	 14.45278	 25.84625	  1.33421	 -1.32381	 29.76645	708.75000	 22.40	
 13.595	108.042	 27.17057	  9.58545	 15.98569	 25.49299	  1.69648	 -1.31654	 29.78825	708.73901	 22.30	
 13.604	115.211	 27.22686	  8.21790	 17.54833	 24.96227	  2.14875	 -1.26777	 29.79623	708.62799	 22.30	
 13.611	122.431	 27.26272	  6.91680	 19.02966	 24.25079	  2.75595	 -1.20751	 29.80041	708.75000	 22.40	
 13.596	129.640	 27.29932	  5.78542	 20.35216	 23.31779	  3.56174	 -1.15679	 29.79106	708.74200	 22.40	
 13.601	136.825	 27.29470	  4.72609	 21.60201	 22.22244	  4.44739	 -1.11139	 29.76687	708.69299	 22.30	
 13.611	143.999	 27.32955	  3.87634	 22.71159	 20.99023	  5.51028	 -1.10899	 29.77106	708.74701	 22.30	
 13.609	151.210	 27.34394	  3.24292	 23.59623	 19.61200	  6.73184	 -1.09123	 29.73677	708.72302	 22.30	
 13.601	158.353	 27.42611	  2.74025	 24.40544	 18.22380	  8.02011	 -1.09766	 29.80779	708.75000	 22.30	
 13.611	165.583	 27.43373	  2.39416	 24.94008	 16.67924	  9.43841	 -1.09216	 29.78518	708.65503	 22.30	
 13.608	172.853	 27.42819	  2.19024	 25.29191	 15.07842	 10.96498	 -1.09909	 29.77696	708.70398	 22.30	
 15.298	173.587	 26.67100	  0.48286	 26.24143	 14.47553	 10.31432	 -1.22624	 29.78429	708.67700	 22.30	
 15.291	167.167	 26.66798	  0.66042	 25.90945	 16.05043	  8.81179	 -1.22731	 29.77549	708.72803	 22.30	
 15.307	160.676	 26.63343	  0.93573	 25.39074	 17.58358	  7.38435	 -1.24147	 29.75334	708.77301	 22.30	
 15.300	154.261	 26.65869	  1.36286	 24.78960	 19.08599	  6.05733	 -1.25625	 29.82460	708.69098	 22.30	
 15.288	147.854	 26.56026	  1.91779	 23.90351	 20.42164	  4.81903	 -1.26610	 29.75698	708.70300	 22.30	
 15.293	141.428	 26.56582	  2.63916	 22.91143	 21.77733	  3.70151	 -1.27690	 29.79535	708.68298	 22.30	
 15.299	134.985	 26.52700	  3.48998	 21.73244	 22.98462	  2.70515	 -1.29143	 29.79564	708.76801	 22.30	
 15.305	128.583	 26.48821	  4.48676	 20.45539	 24.04498	  1.80611	 -1.33562	 29.78514	708.65503	 22.30	
 15.309	122.142	 26.46987	  5.61790	 19.13644	 24.96322	  1.07142	 -1.37924	 29.81159	708.73401	 22.30	
 15.304	115.711	 26.42567	  6.85923	 17.62470	 25.68778	  0.48992	 -1.41176	 29.79898	708.69299	 22.30	
 15.297	109.291	 26.37055	  8.18959	 16.09568	 26.22454	  0.04419	 -1.45476	 29.78072	708.67999	 22.20	
 15.293	102.897	 26.31854	  9.61355	 14.57427	 26.60578	 -0.31265	 -1.46314	 29.76936	708.73901	 22.20	
 15.293	 96.458	 26.27621	 11.09611	 13.08489	 26.82711	 -0.53924	 -1.47802	 29.78300	708.73602	 22.20	
 15.300	 90.000	 26.25819	 12.62555	 11.57583	 26.88899	 -0.55922	 -1.47708	 29.79966	708.78198	 22.20	
 15.293	 83.542	 26.21217	 14.19979	 10.04339	 26.71138	 -0.46346	 -1.45689	 29.78659	708.80701	 22.20	
 15.293	 77.103	 26.20502	 15.77305	  8.52467	 26.42942	 -0.33141	 -1.40168	 29.83555	708.70697	 22.20	
 15.297	 70.709	 26.16303	 17.26440	  7.09633	 25.89552	  0.01098	 -1.33217	 29.81266	708.63599	 22.20	
 15.304	 64.289	 26.12711	 18.75022	  5.68018	 25.23773	  0.44269	 -1.30500	 29.81556	708.60400	 22.20	
 15.309	 57.858	 26.09493	 20.19140	  4.50314	 24.37755	  1.04536	 -1.29757	 29.82048	708.65198	 22.20	
 15.305	 51.417	 26.05465	 21.52915	  3.45979	 23.37282	  1.77861	 -1.28686	 29.81224	708.70898	 22.20	
 15.299	 45.015	 26.02197	 22.70879	  2.52962	 22.20322	  2.66330	 -1.28647	 29.79169	708.71997	 22.20	
 15.293	 38.572	 25.96557	 23.83128	  1.63859	 20.91520	  3.64543	 -1.32426	 29.78601	708.66302	 22.20	
 15.288	 32.146	 25.96468	 24.75912	  0.96898	 19.53843	  4.78505	 -1.36701	 29.78904	708.62299	 22.20	
 15.300	 25.739	 25.93691	 25.54270	  0.40524	 18.08537	  5.99850	 -1.42604	 29.79197	708.68298	 22.20	
 15.307	 19.324	 25.93124	 26.14309	 -0.01622	 16.60079	  7.29345	 -1.46712	 29.79798	708.58801	 22.20	
 15.291	 12.833	 25.94158	 26.55315	 -0.28822	 15.07199	  8.71571	 -1.46770	 29.79775	708.65503	 22.20	
 15.298	  6.413	 25.93351	 26.80244	 -0.44976	 13.49534	 10.19149	 -1.44199	 29.78466	708.68799	 22.20	
 15.300	  0.000	 25.95176	 26.92106	 -0.53092	 11.97120	 11.72623	 -1.40924	 29.81785	708.62500	 22.20	
 15.298	 -6.413	 25.96146	 26.76130	 -0.39418	 10.48738	 13.28329	 -1.39679	 29.78837	708.65302	 22.30	
 15.291	-12.833	 25.95165	 26.46820	 -0.20746	  9.00496	 14.86164	 -1.38722	 29.76999	708.62000	 22.30	
 15.307	-19.324	 25.95899	 26.04884	  0.07703	  7.58147	 16.42249	 -1.40075	 29.78486	708.67200	 22.20	
 15.300	-25.739	 25.98689	 25.39387	  0.56115	  6.27546	 17.93445	 -1.39944	 29.77693	708.66101	 22.20	
 15.288	-32.146	 26.00384	 24.57333	  1.14108	  5.04946	 19.39557	 -1.38232	 29.76869	708.69501	 22.30	
 15.293	-38.572	 26.03140	 23.63314	  1.87060	  3.94183	 20.77670	 -1.35939	 29.78039	708.59802	 22.20	
 15.299	-45.015	 26.03142	 22.51752	  2.71586	  2.95727	 22.06291	 -1.34002	 29.77463	708.66101	 22.30	
 15.305	-51.417	 26.05425	 21.27892	  3.68623	  2.14013	 23.17126	 -1.33182	 29.76461	708.54401	 22.30	
 15.309	-57.858	 26.10124	 19.91179	  4.78851	  1.46101	 24.18037	 -1.32167	 29.76584	708.64801	 22.30	
 15.304	-64.289	 26.15940	 18.46009	  5.95941	  0.93121	 25.01696	 -1.29575	 29.77639	708.58197	 22.30	
 15.297	-70.709	 26.18664	 16.97776	  7.34365	  0.51314	 25.66028	 -1.27392	 29.77570	708.65302	 22.30	
 15.293	-77.103	 26.21217	 15.46611	  8.79002	  0.23943	 26.11949	 -1.24515	 29.76691	708.61200	 22.30	
 15.293	-83.542	 26.25389	 13.88819	 10.37282	  0.12516	 26.38434	 -1.23918	 29.74722	708.63599	 22.30	
 15.300	-90.000	 26.32302	 12.38073	 11.90735	  0.11630	 26.51535	 -1.25201	 29.77996	708.62299	 22.30	
 15.293	-96.458	 26.34927	 10.82734	 13.43205	  0.21058	 26.40936	 -1.24084	 29.75076	708.66101	 22.30	
 15.293	-102.897	 26.45463	  9.39215	 14.96192	  0.45359	 26.23098	 -1.22891	 29.83698	708.62903	 22.30	
 15.297	-109.291	 26.47527	  8.00468	 16.50431	  0.83496	 25.73027	 -1.19323	 29.79969	708.57898	 22.30	
 15.304	-115.711	 26.49467	  6.65826	 18.03528	  1.31499	 25.09465	 -1.15892	 29.79165	708.59601	 22.30	
 15.309	-122.142	 26.51755	  5.43305	 19.52824	  1.93576	 24.25298	 -1.13710	 29.76098	708.55902	 22.30	
 15.305	-128.583	 26.52661	  4.33145	 20.84599	  2.67724	 23.28494	 -1.12916	 29.74585	708.58002	 22.30	
 15.299	-134.985	 26.57448	  3.38092	 22.09324	  3.60872	 22.18286	 -1.11197	 29.74874	708.64099	 22.40	
 15.293	-141.428	 26.60943	  2.54141	 23.24111	  4.70108	 20.91175	 -1.12279	 29.76698	708.63898	 22.40	
 15.288	-147.854	 26.59984	  1.81698	 24.20035	  5.81822	 19.53066	 -1.15973	 29.74922	708.65601	 22.40	
 15.300	-154.261	 26.60241	  1.24059	 24.96299	  7.08505	 18.06996	 -1.17854	 29.74136	708.64502	 22.40	
 15.307	-160.676	 26.65022	  0.84187	 25.60018	  8.45571	 16.56590	 -1.21557	 29.76459	708.65198	 22.50	
 15.291	-167.167	 26.63557	  0.55681	 26.02739	  9.88088	 15.00555	 -1.22689	 29.74965	708.67902	 22.50	
 15.298	-173.587	 26.66040	  0.41031	 26.28978	 11.39176	 13.44252	 -1.21788	 29.76772	708.58801	 22.50	
 15.300	180.000	 26.64245	  0.40236	 26.30917	 12.92657	 11.84283	 -1.21459	 29.74429	708.60602	 22.50	
 17.000	180.000	 25.80515	 -1.30879	 27.15619	 12.26396	 11.15738	 -1.21060	 29.76685	708.75000	 22.50	
 16.990	-174.179	 25.77556	 -1.28708	 27.08521	 10.72963	 12.68930	 -1.19110	 29.73404	708.66302	 22.50	
 17.009	-168.383	 25.75319	 -1.17572	 26.86388	  9.23445	 14.25867	 -1.18296	 29.72867	708.63599	 22.50	
 17.000	-162.596	 25.76035	 -0.95298	 26.49753	  7.83726	 15.80873	 -1.17941	 29.74515	708.65198	 22.50	
 16.990	-156.759	 25.75114	 -0.56808	 25.92239	  6.45396	 17.35424	 -1.16116	 29.73080	708.57898	 22.50	
 16.995	-150.919	 25.69425	 -0.13129	 25.22778	  5.13547	 18.82840	 -1.16039	 29.72064	708.70099	 22.50	
 16.988	-145.161	 25.73872	  0.48419	 24.41861	  3.99349	 20.26989	 -1.17103	 29.78932	708.62000	 22.50	
 17.014	-139.343	 25.68870	  1.22273	 23.37895	  2.85920	 21.58731	 -1.16966	 29.76200	708.69299	 22.50	
 17.007	-133.546	 25.65976	  2.08623	 22.18040	  1.88287	 22.81269	 -1.18720	 29.73411	708.60400	 22.50	
 17.001	-127.699	 25.62212	  3.03645	 20.87305	  1.03742	 23.90926	 -1.19106	 29.72396	708.58801	 22.50	
 17.006	-121.937	 25.56512	  4.09489	 19.49615	  0.30955	 24.85263	 -1.20701	 29.70405	708.61499	 22.60	
 17.002	-116.134	 25.56699	  5.31077	 18.05674	 -0.27005	 25.66458	 -1.22506	 29.73289	708.61200	 22.60	
 17.001	-110.310	 25.52870	  6.56898	 16.55976	 -0.77108	 26.31893	 -1.23908	 29.74115	708.62500	 22.60	
 16.988	-104.517	 25.49114	  7.90899	 15.03943	 -1.14783	 26.76942	 -1.22126	 29.72790	708.62000	 22.60	
 17.008	-98.662	 25.45093	  9.38584	 13.48947	 -1.44295	 27.10852	 -1.18818	 29.72813	708.50897	 22.60	
 16.996	-92.909	 25.40234	 10.85542	 11.98994	 -1.58521	 27.25471	 -1.15066	 29.72593	708.66302	 22.60	
 16.996	-87.091	 25.32742	 12.33898	 10.42842	 -1.61388	 27.20720	 -1.13196	 29.69678	708.57098	 22.60	
 17.012	-81.253	 25.29115	 13.88500	  8.87872	 -1.57565	 27.05890	 -1.12246	 29.71680	708.60199	 22.60	
 16.988	-75.483	 25.26981	 15.41010	  7.39658	 -1.37386	 26.72648	 -1.15501	 29.71951	708.59900	 22.70	
 17.001	-69.690	 25.21867	 16.89077	  5.99278	 -1.08603	 26.23068	 -1.17697	 29.71031	708.55902	 22.70	
 17.002	-63.866	 25.18943	 18.45892	  4.71006	 -0.70669	 25.57090	 -1.21894	 29.75134	708.62299	 22.70	
 17.006	-58.063	 25.13012	 19.86986	  3.55981	 -0.17207	 24.72564	 -1.24743	 29.72096	708.56299	 22.70	
 17.001	-52.301	 25.08307	 21.20842	  2.48229	  0.47066	 23.75178	 -1.29542	 29.70370	708.62903	 22.70	
 17.007	-46.454	 25.02818	 22.46962	  1.45192	  1.24306	 22.64704	 -1.33769	 29.70741	708.61200	 22.70	
 17.014	-40.657	 24.98322	 23.61487	  0.58449	  2.13167	 21.39556	 -1.38413	 29.68465	708.66302	 22.70	
 16.988	-34.839	 24.98282	 24.64618	 -0.15383	  3.14902	 20.07812	 -1.43978	 29.70781	708.54401	 22.80	
 16.995	-29.081	 24.96875	 25.45262	 -0.67376	  4.24571	 18.71414	 -1.49556	 29.67886	708.63898	 22.80	
 16.990	-23.241	 24.93646	 26.18644	 -1.17602	  5.50182	 17.19101	 -1.51658	 29.66402	708.61499	 22.80	
 17.000	-17.404	 24.95193	 26.80491	 -1.60258	  6.82079	 15.69366	 -1.53283	 29.71993	708.59100	 22.80	
 17.009	-11.617	 24.93775	 27.25224	 -1.96375	  8.17377	 14.17429	 -1.54560	 29.73822	708.56299	 22.80	
 16.990	 -5.821	 24.90160	 27.47047	 -2.14380	  9.63255	 12.58879	 -1.55344	 29.70470	708.68500	 22.80	
 17.000	  0.000	 24.88130	 27.54790	 -2.19764	 11.13340	 11.01976	 -1.56680	 29.68278	708.67902	 22.80	
 16.990	  5.821	 24.89430	 27.45527	 -2.09512	 12.66892	  9.51038	 -1.57665	 29.66665	708.67902	 22.80	
 17.009	 11.617	 24.91211	 27.29122	 -1.98715	 14.21500	  8.05483	 -1.60824	 29.71910	708.55603	 22.80	
 17.000	 17.404	 24.92770	 26.90046	 -1.68750	 15.73586	  6.67696	 -1.62097	 29.70764	708.64801	 22.80	
 16.990	 23.241	 24.92799	 26.38294	 -1.34121	 17.24371	  5.35877	 -1.60884	 29.71697	708.59100	 22.80	
 16.995	 29.081	 24.90516	 25.69081	 -0.90525	 18.68686	  4.08691	 -1.57624	 29.69767	708.62000	 22.80	
 16.988	 34.839	 24.92985	 24.82430	 -0.32045	 20.04526	  2.99230	 -1.52211	 29.67842	708.55902	 22.80	
 17.014	 40.657	 24.94164	 23.86132	  0.33713	 21.42315	  1.89001	 -1.48802	 29.70199	708.55103	 22.80	
 17.007	 46.454	 24.97241	 22.72306	  1.20849	 22.65459	  0.97684	 -1.46611	 29.68690	708.62903	 22.80	
 17.001	 52.301	 25.01865	 21.47193	  2.19538	 23.79418	  0.16555	 -1.46435	 29.68811	708.61700	 22.90	
 17.006	 58.063	 25.02906	 20.12980	  3.24714	 24.78158	 -0.55392	 -1.47436	 29.66775	708.65997	 22.90	
 17.002	 63.866	 25.08773	 18.73771	  4.35090	 25.64673	 -1.12124	 -1.48013	 29.69098	708.59802	 22.90	
 17.001	 69.690	 25.10216	 17.23045	  5.56679	 26.31550	 -1.55694	 -1.49829	 29.66103	708.66400	 22.90	
 16.988	 75.483	 25.14604	 15.76730	  7.01355	 26.84228	 -1.89285	 -1.51365	 29.66821	708.58301	 22.90	
 17.012	 81.253	 25.16865	 14.24970	  8.42082	 27.23846	 -2.09102	 -1.52608	 29.67290	708.57898	 22.90	
 16.996	 87.091	 25.18442	 12.68620	  9.96483	 27.43319	 -2.22684	 -1.51520	 29.63999	708.59601	 23.00	
 16.996	 92.909	 25.25010	 11.18187	 11.49228	 27.51933	 -2.27087	 -1.47549	 29.66548	708.50403	 23.00	
 17.008	 98.662	 25.29263	  9.71338	 12.98583	 27.43427	 -2.20303	 -1.45821	 29.66836	708.46198	 23.10	
 16.988	104.517	 25.36642	  8.24449	 14.49752	 27.16459	 -1.88625	 -1.46148	 29.68095	708.50201	 23.10	
 17.001	110.310	 25.40739	  6.87693	 15.97982	 26.78146	 -1.55244	 -1.47258	 29.68936	708.56299	 23.10	
 17.002	116.134	 25.44433	  5.56611	 17.49647	 26.20888	 -1.09988	 -1.46709	 29.68744	708.51501	 23.10	
 17.006	121.937	 25.45855	  4.35238	 18.97424	 25.45993	 -0.56093	 -1.45097	 29.66008	708.51202	 23.10	
 17.001	127.699	 25.53524	  3.28259	 20.33569	 24.59330	  0.16885	 -1.42848	 29.68629	708.47498	 23.10	
 17.007	133.546	 25.55979	  2.28689	 21.66746	 23.54029	  0.98458	 -1.39326	 29.68616	708.55103	 23.10	
 17.014	139.343	 25.56112	  1.41477	 22.83161	 22.38114	  1.86591	 -1.38948	 29.66248	708.53900	 23.10	
 16.988	145.161	 25.62465	  0.66876	 23.92013	 21.13647	  2.90984	 -1.38239	 29.68837	708.45300	 23.10	
 16.995	150.919	 25.66327	  0.01744	 24.87307	 19.81017	  4.03020	 -1.37191	 29.71684	708.46997	 23.10	
 16.990	156.759	 25.72197	 -0.47805	 25.66218	 18.38305	  5.31169	 -1.33451	 29.73067	708.51501	 23.10	
 17.000	162.596	 25.72281	 -0.84060	 26.25815	 16.87041	  6.66415	 -1.30214	 29.71246	708.46600	 23.00	
 17.009	168.383	 25.69670	 -1.06811	 26.67826	 15.32162	  8.06828	 -1.27743	 29.66130	708.40698	 23.00	
 16.990	174.179	 25.73001	 -1.19784	 26.95580	 13.82530	  9.55528	 -1.25313	 29.67505	708.51801	 23.00	
 18.709	174.675	 24.78715	 -2.90540	 27.70470	 13.07748	  8.80985	 -1.18387	 29.70269	708.44202	 23.00	
 18.703	169.441	 24.78592	 -2.76630	 27.45818	 14.60064	  7.35485	 -1.23167	 29.70875	708.59601	 23.00	
 18.691	164.085	 24.75084	 -2.60158	 27.06885	 16.11567	  5.90722	 -1.29990	 29.70606	708.56299	 23.00	
 18.706	158.818	 24.76899	 -2.22039	 26.49812	 17.61563	  4.59654	 -1.26139	 29.70207	708.47998	 23.00	
 18.695	153.537	 24.70040	 -1.79582	 25.74873	 19.03736	  3.32454	 -1.30255	 29.66188	708.50201	 23.00	
 18.704	148.255	 24.69673	 -1.29244	 24.96804	 20.42832	  2.16686	 -1.33781	 29.71748	708.48297	 23.00	
 18.698	142.952	 24.64476	 -0.59197	 23.93703	 21.71440	  1.14302	 -1.35107	 29.66225	708.50403	 23.00	
 18.699	137.625	 24.63010	  0.16443	 22.86716	 22.97702	  0.15603	 -1.35589	 29.70603	708.43701	 23.00	
 18.705	132.343	 24.57503	  1.01412	 21.64569	 24.09476	 -0.73568	 -1.37488	 29.70153	708.46997	 23.00	
 18.713	127.067	 24.52287	  1.97628	 20.32569	 25.08302	 -1.49321	 -1.35957	 29.67573	708.51801	 23.00	
 18.700	121.794	 24.51332	  3.05188	 18.95041	 25.96972	 -2.14435	 -1.36973	 29.69386	708.44501	 23.00	
 18.698	116.504	 24.48760	  4.24420	 17.47814	 26.71076	 -2.68754	 -1.34672	 29.70188	708.46100	 23.00	
 18.707	111.165	 24.44755	  5.48832	 15.98395	 27.33147	 -3.14765	 -1.33493	 29.71265	708.44702	 22.90	
 18.690	105.863	 24.38402	  6.82325	 14.44059	 27.73702	 -3.50013	 -1.32223	 29.69867	708.42700	 22.90	
 18.696	100.583	 24.30697	  8.20729	 13.01437	 28.01292	 -3.83212	 -1.30991	 29.66534	708.43103	 22.90	
 18.700	 95.309	 24.29610	  9.67411	 11.51221	 28.19824	 -3.95798	 -1.30841	 29.70388	708.51001	 22.90	
 18.700	 90.000	 24.25398	 11.15528	  9.99743	 28.20513	 -3.94723	 -1.37581	 29.69098	708.47699	 22.90	
 18.700	 84.691	 24.22705	 12.70836	  8.44365	 28.07616	 -3.84247	 -1.43832	 29.69516	708.41803	 22.90	
 18.696	 79.417	 24.17909	 14.21782	  6.92588	 27.78899	 -3.67093	 -1.50603	 29.68081	708.48297	 22.90	
 18.690	 74.137	 24.14201	 15.68357	  5.57414	 27.37109	 -3.44994	 -1.55319	 29.67406	708.47498	 22.90	
 18.707	 68.835	 24.11415	 17.20281	  4.33304	 26.83006	 -3.11556	 -1.54392	 29.69528	708.43903	 22.90	
 18.698	 63.496	 24.09416	 18.69293	  3.15010	 26.10979	 -2.64584	 -1.54011	 29.69329	708.45099	 22.90	
 18.700	 58.206	 24.02963	 20.07227	  1.99592	 25.23635	 -2.10353	 -1.55371	 29.67113	708.43701	 22.90	
 18.713	 52.933	 23.97675	 21.38918	  0.93590	 24.25109	 -1.45079	 -1.56277	 29.66110	708.48499	 22.90	
 18.705	 47.657	 23.99096	 22.69594	  0.00373	 23.19178	 -0.67696	 -1.57989	 29.71780	708.41199	 22.90	
 18.699	 42.375	 23.95952	 23.80865	 -0.79696	 21.96542	  0.22457	 -1.58917	 29.69143	708.42700	 23.00	
 18.698	 37.048	 23.90951	 24.80669	 -1.46145	 20.65084	  1.17350	 -1.59824	 29.65314	708.47198	 23.00	
 18.704	 31.745	 23.88856	 25.72861	 -2.08542	 19.29157	  2.22994	 -1.60759	 29.66633	708.45801	 23.00	
 18.695	 26.463	 23.88021	 26.50971	 -2.61274	 17.88918	  3.38680	 -1.61739	 29.68905	708.47498	 23.00	
 18.706	 21.182	 23.84701	 27.14427	 -3.06399	 16.38387	  4.62373	 -1.61711	 29.68385	708.50403	 23.00	
 18.691	 15.915	 23.84233	 27.60650	 -3.38536	 14.90067	  5.93742	 -1.59313	 29.67432	708.42700	 23.00	
 18.703	 10.559	 23.81361	 27.95289	 -3.64633	 13.35490	  7.32185	 -1.56226	 29.66423	708.52399	 23.00	
 18.709	  5.325	 23.84087	 28.17963	 -3.79071	 11.85353	  8.76367	 -1.55782	 29.69677	708.46698	 23.00	
 18.700	  0.000	 23.87328	 28.25625	 -3.82534	 10.35165	 10.27910	 -1.55775	 29.71821	708.50098	 23.00	
 18.709	 -5.325	 23.82637	 28.13196	 -3.78031	  8.83890	 11.80758	 -1.55245	 29.67878	708.48602	 23.00	
 18.703	-10.559	 23.87887	 27.92297	 -3.58437	  7.43976	 13.36311	 -1.55059	 29.71385	708.52802	 23.00	
 18.691	-15.915	 23.88046	 27.48731	 -3.27237	  6.01349	 14.93700	 -1.52906	 29.66704	708.48499	 23.00	
 18.706	-21.182	 23.91932	 26.94652	 -2.84544	  4.67324	 16.54004	 -1.50343	 29.68001	708.45099	 23.00	
 18.695	-26.463	 23.93388	 26.29473	 -2.42086	  3.43169	 18.02310	 -1.46860	 29.69358	708.49902	 23.00	
 18.704	-31.745	 23.95104	 25.48862	 -1.85648	  2.30089	 19.46260	 -1.42202	 29.70148	708.46997	 23.00	
 18.698	-37.048	 23.94193	 24.52592	 -1.26425	  1.28496	 20.76888	 -1.33799	 29.65956	708.42297	 23.00	
 18.699	-42.375	 23.97606	 23.47134	 -0.54621	  0.36017	 22.07354	 -1.25691	 29.68867	708.48297	 23.00	
 18.705	-47.657	 24.03485	 22.30978	  0.31732	 -0.47783	 23.29365	 -1.19779	 29.71758	708.46198	 23.00	
 18.713	-52.933	 24.03952	 20.99585	  1.29982	 -1.19737	 24.30857	 -1.13161	 29.67895	708.39697	 23.00	
 18.700	-58.206	 24.08545	 19.66039	  2.34475	 -1.80147	 25.25072	 -1.06348	 29.69148	708.37799	 23.00	
 18.698	-63.496	 24.14100	 18.24608	  3.52233	 -2.33362	 26.10038	 -1.01436	 29.72034	708.36200	 23.00	
 18.707	-68.835	 24.17529	 16.74374	  4.77205	 -2.73104	 26.76619	 -0.98357	 29.70438	708.42102	 23.00	
 18.690	-74.137	 24.19155	 15.19276	  6.05863	 -3.00717	 27.25664	 -0.98096	 29.66232	708.43701	 23.00	
 18.696	-79.417	 24.23520	 13.69831	  7.46127	 -3.20202	 27.62669	 -0.96753	 29.67706	708.35901	 23.00	
 18.700	-84.691	 24.31366	 12.19898	  9.01330	 -3.31647	 27.87248	 -0.96068	 29.71220	708.47998	 23.00	
 18.700	-90.000	 24.31605	 10.66132	 10.55891	 -3.31674	 27.89587	 -0.96670	 29.66285	708.42700	 23.00	
 18.700	-95.309	 24.38187	  9.19450	 12.12549	 -3.24490	 27.84318	 -1.01167	 29.67994	708.49902	 23.00	
 18.696	-100.583	 24.41683	  7.74782	 13.59459	 -3.02407	 27.61297	 -1.07924	 29.67220	708.44202	 23.00	
 18.690	-105.863	 24.45278	  6.39999	 15.08586	 -2.67915	 27.21397	 -1.14925	 29.64202	708.53101	 23.00	
 18.707	-111.165	 24.50975	  5.10795	 16.61794	 -2.30547	 26.72659	 -1.18046	 29.66804	708.45099	 23.00	
 18.698	-116.504	 24.58008	  3.85419	 18.16980	 -1.80471	 26.08881	 -1.19886	 29.71323	708.48602	 23.00	
 18.700	-121.794	 24.60287	  2.74658	 19.57336	 -1.18432	 25.25146	 -1.16808	 29.68628	708.47198	 23.00	
 18.713	-127.067	 24.62634	  1.69725	 20.96150	 -0.47140	 24.28203	 -1.15589	 29.68893	708.45001	 23.00	
 18.705	-132.343	 24.66349	  0.78706	 22.23269	  0.32921	 23.20769	 -1.12596	 29.68317	708.44202	 23.00	
 18.699	-137.625	 24.67183	 -0.05615	 23.38101	  1.23368	 22.00758	 -1.10428	 29.67133	708.47803	 23.00	
 18.698	-142.952	 24.68619	 -0.79964	 24.43467	  2.29317	 20.67937	 -1.07023	 29.64619	708.54401	 23.00	
 18.704	-148.255	 24.69334	 -1.46462	 25.37520	  3.39165	 19.30930	 -1.03944	 29.66066	708.58301	 23.00	
 18.695	-153.537	 24.75487	 -1.96895	 26.17883	  4.61778	 17.89534	 -1.00225	 29.69443	708.46600	 23.00	
 18.706	-158.818	 24.76125	 -2.37629	 26.78005	  5.90562	 16.39300	 -0.99527	 29.68937	708.51202	 23.00	
 18.691	-164.085	 24.78415	 -2.65618	 27.24921	  7.26091	 14.89496	 -1.00982	 29.68793	708.36401	 23.00	
 18.703	-169.441	 24.78833	 -2.88489	 27.60910	  8.69057	 13.31015	 -1.01320	 29.70424	708.46997	 23.00	
 18.709	-174.675	 24.76225	 -3.02729	 27.79766	 10.12968	 11.75335	 -1.04341	 29.69790	708.46899	 23.00	
 18.700	180.000	 24.76467	 -3.01127	 27.81592	 11.63618	 10.20949	 -1.08537	 29.68945	708.43500	 23.00	
 20.400	180.000	 23.72823	 -4.64162	 28.40981	 10.89789	  9.38396	 -0.97957	 29.68781	708.40997	 23.00	
 20.401	-175.153	 23.72322	 -4.65793	 28.38706	  9.40654	 10.89461	 -0.93950	 29.68499	708.46899	 23.00	
 20.407	-170.264	 23.72582	 -4.56098	 28.21492	  7.95051	 12.44876	 -0.90060	 29.67867	708.43701	 23.00	
 20.410	-165.423	 23.70233	 -4.40330	 27.94209	  6.54363	 13.96622	 -0.88388	 29.68255	708.49597	 23.00	
 20.392	-160.496	 23.71561	 -4.09163	 27.49581	  5.20756	 15.51976	 -0.86333	 29.67895	708.46600	 23.00	
 20.401	-155.705	 23.69034	 -3.72708	 26.92825	  3.93033	 17.01426	 -0.88970	 29.67798	708.50201	 23.00	
 20.405	-150.835	 23.66975	 -3.28073	 26.24412	  2.72182	 18.45051	 -0.91259	 29.67690	708.42700	 23.00	
 20.397	-145.903	 23.67577	 -2.67863	 25.38386	  1.56279	 19.90713	 -0.96686	 29.69875	708.47498	 23.00	
 20.392	-141.062	 23.66396	 -2.03056	 24.44674	  0.51987	 21.26559	 -1.01163	 29.72704	708.44299	 23.00	
 20.396	-136.227	 23.64958	 -1.28303	 23.36620	 -0.40319	 22.50833	 -1.06202	 29.71847	708.44702	 23.00	
 20.408	-131.372	 23.62583	 -0.47530	 22.18292	 -1.27135	 23.67479	 -1.07843	 29.72311	708.34998	 23.00	
 20.410	-126.511	 23.56433	  0.40290	 20.89436	 -2.03780	 24.70988	 -1.07087	 29.70054	708.37799	 23.00	
 20.400	-121.604	 23.54202	  1.40340	 19.52701	 -2.72840	 25.66997	 -1.09867	 29.71211	708.40198	 22.90	
 20.403	-116.741	 23.48352	  2.46586	 18.10470	 -3.32460	 26.46193	 -1.12180	 29.68666	708.46100	 22.90	
 20.413	-111.900	 23.46176	  3.65730	 16.61559	 -3.83521	 27.15625	 -1.11392	 29.70454	708.37201	 22.90	
 20.398	-107.004	 23.41907	  4.90047	 15.12621	 -4.23084	 27.67627	 -1.07846	 29.68789	708.42700	 22.90	
 20.394	-102.132	 23.41078	  6.29175	 13.59111	 -4.57145	 28.12817	 -0.96952	 29.73071	708.40997	 22.90	
 20.403	-97.332	 23.30374	  7.61305	 12.09995	 -4.84006	 28.32564	 -0.95864	 29.66199	708.47803	 22.90	
 20.392	-92.440	 23.29830	  9.07027	 10.57004	 -4.93831	 28.49220	 -0.89811	 29.70363	708.45898	 22.90	
 20.392	-87.560	 23.24359	 10.55006	  9.02048	 -4.93875	 28.48321	 -0.85610	 29.68644	708.35901	 22.90	
 20.403	-82.668	 23.19756	 12.04747	  7.48026	 -4.91798	 28.39315	 -0.87369	 29.71485	708.41998	 23.00	
 20.394	-77.868	 23.17541	 13.54765	  6.09575	 -4.77916	 28.13520	 -0.86806	 29.71806	708.33398	 23.00	
 20.398	-72.996	 23.10465	 15.06357	  4.76862	 -4.59157	 27.72192	 -0.89178	 29.70093	708.31299	 22.90	
 20.413	-68.100	 23.00845	 16.54531	  3.45032	 -4.27234	 27.13520	 -0.86718	 29.66149	708.34998	 22.90	
 20.403	-63.259	 23.01200	 18.05393	  2.19749	 -3.88320	 26.50718	 -0.89061	 29.71735	708.46698	 23.00	
 20.400	-58.396	 22.94391	 19.44556	  1.04878	 -3.40433	 25.67760	 -0.97170	 29.67394	708.38599	 23.00	
 20.410	-53.489	 22.92912	 20.79557	  0.06220	 -2.77540	 24.76483	 -1.00426	 29.67735	708.34802	 23.00	
 20.408	-48.628	 22.91443	 22.10070	 -0.84652	 -2.10277	 23.73393	 -1.08661	 29.70308	708.36401	 23.00	
 20.396	-43.773	 22.89441	 23.29478	 -1.64165	 -1.30429	 22.60549	 -1.17523	 29.70578	708.42902	 23.00	
 20.392	-38.938	 22.86257	 24.36867	 -2.36651	 -0.46413	 21.37837	 -1.25032	 29.70104	708.39697	 23.00	
 20.397	-34.097	 22.81877	 25.36596	 -3.08735	  0.45713	 20.03989	 -1.33334	 29.69114	708.41498	 23.00	
 20.405	-29.165	 22.81033	 26.26620	 -3.68316	  1.51017	 18.65156	 -1.36490	 29.70925	708.40503	 23.00	
 20.401	-24.295	 22.80662	 27.03913	 -4.19016	  2.62563	 17.21154	 -1.43532	 29.72713	708.41803	 23.00	
 20.392	-19.504	 22.79016	 27.59095	 -4.54149	  3.84477	 15.75122	 -1.44528	 29.69525	708.34601	 23.00	
 20.410	-14.577	 22.74874	 28.09086	 -4.88914	  5.15767	 14.19584	 -1.46456	 29.69480	708.46100	 23.00	
 20.407	 -9.736	 22.73573	 28.44714	 -5.15770	  6.48337	 12.70372	 -1.48654	 29.70923	708.47198	 22.90	
 20.401	 -4.847	 22.75556	 28.65490	 -5.32061	  7.88199	 11.21626	 -1.47357	 29.71115	708.43103	 22.90	
 20.400	  0.000	 22.72507	 28.76065	 -5.42156	  9.33434	  9.66970	 -1.46511	 29.71426	708.50403	 22.90	
 20.401	  4.847	 22.69178	 28.71640	 -5.44891	 10.77659	  8.16864	 -1.47710	 29.68577	708.53900	 23.00	
 20.407	  9.736	 22.68025	 28.57484	 -5.33793	 12.29574	  6.73220	 -1.44857	 29.70558	708.36200	 23.00	
 20.410	 14.577	 22.68947	 28.29613	 -5.12029	 13.78164	  5.36671	 -1.48026	 29.70623	708.45801	 23.00	
 20.392	 19.504	 22.69113	 27.87607	 -4.84204	 15.27269	  4.05784	 -1.52201	 29.68232	708.43903	 23.00	
 20.401	 24.295	 22.70651	 27.32588	 -4.45328	 16.74488	  2.78669	 -1.57015	 29.68816	708.41998	 23.00	
 20.405	 29.165	 22.77147	 26.65690	 -3.94577	 18.21775	  1.65927	 -1.59315	 29.72065	708.41199	 23.00	
 20.397	 34.097	 22.75480	 25.77982	 -3.36827	 19.62735	  0.54330	 -1.62397	 29.66944	708.37500	 23.00	
 20.392	 38.938	 22.81950	 24.86508	 -2.72421	 20.97321	 -0.39518	 -1.63882	 29.69333	708.36200	 23.00	
 20.396	 43.773	 22.84974	 23.84409	 -2.03133	 22.23007	 -1.28783	 -1.65187	 29.70119	708.35101	 23.00	
 20.408	 48.628	 22.87428	 22.71469	 -1.28756	 23.41369	 -2.13846	 -1.67701	 29.71515	708.51801	 23.00	
 20.410	 53.489	 22.89811	 21.44231	 -0.37525	 24.46367	 -2.84449	 -1.64137	 29.67106	708.34998	 23.00	
 20.400	 58.396	 22.93557	 20.12900	  0.60423	 25.47322	 -3.51311	 -1.61145	 29.69599	708.47699	 23.00	
 20.403	 63.259	 22.92243	 18.70526	  1.66969	 26.30549	 -4.09400	 -1.59695	 29.64211	708.38000	 23.00	
 20.413	 68.100	 22.96996	 17.28904	  2.82651	 27.05290	 -4.52353	 -1.55074	 29.66878	708.36200	 23.00	
 20.398	 72.996	 23.04540	 15.81761	  4.07151	 27.67583	 -4.87451	 -1.51027	 29.69536	708.38300	 23.00	
 20.394	 77.868	 23.08246	 14.33265	  5.30283	 28.13363	 -5.12569	 -1.47605	 29.69238	708.37000	 23.00	
 20.403	 82.668	 23.09977	 12.82199	  6.66420	 28.44065	 -5.28086	 -1.37751	 29.66165	708.39899	 23.00	
 20.392	 87.560	 23.19210	 11.35871	  8.15668	 28.71662	 -5.42775	 -1.26183	 29.74444	708.38599	 23.00	
 20.392	 92.440	 23.21549	  9.87437	  9.67354	 28.75683	 -5.50263	 -1.18758	 29.71896	708.45099	 23.00	
 20.403	 97.332	 23.22162	  8.37358	 11.20846	 28.69942	 -5.50533	 -1.15388	 29.70375	708.37299	 23.00	
 20.394	102.132	 23.28850	  6.97742	 12.73567	 28.54226	 -5.37155	 -1.13477	 29.72469	708.49298	 23.00	
 20.398	107.004	 23.33300	  5.60068	 14.17059	 28.22171	 -5.05408	 -1.12822	 29.71107	708.43903	 22.90	
 20.413	111.900	 23.35647	  4.24749	 15.68006	 27.76018	 -4.67997	 -1.18651	 29.69379	708.43701	 22.90	
 20.403	116.741	 23.44104	  3.07428	 17.14656	 27.18731	 -4.20599	 -1.21963	 29.69698	708.35901	 22.90	
 20.400	121.604	 23.47029	  1.94079	 18.62580	 26.47186	 -3.68725	 -1.23823	 29.71357	708.42902	 22.90	
 20.410	126.511	 23.49273	  0.87671	 20.02227	 25.60920	 -3.08975	 -1.28776	 29.70283	708.43103	 22.90	
 20.408	131.372	 23.55623	 -0.04940	 21.35423	 24.67754	 -2.38141	 -1.30936	 29.72020	708.41803	 22.90	
 20.396	136.227	 23.57415	 -0.92593	 22.59537	 23.58064	 -1.58159	 -1.31484	 29.70861	708.46600	 22.90	
 20.392	141.062	 23.63904	 -1.71471	 23.74960	 22.41209	 -0.69337	 -1.29722	 29.72496	708.39099	 22.90	
 20.397	145.903	 23.63938	 -2.41198	 24.76021	 21.16584	  0.22532	 -1.28540	 29.71523	708.45801	 22.90	
 20.405	150.835	 23.66109	 -3.02238	 25.69892	 19.80802	  1.29036	 -1.24468	 29.70739	708.47998	 22.90	
 20.401	155.705	 23.68598	 -3.52144	 26.48195	 18.39497	  2.44144	 -1.21994	 29.69640	708.42297	 22.90	
 20.392	160.496	 23.71311	 -3.91181	 27.13856	 16.97476	  3.67043	 -1.19737	 29.69700	708.38000	 22.90	
 20.410	165.423	 23.73074	 -4.21808	 27.65466	 15.47955	  5.02146	 -1.18174	 29.68464	708.41302	 23.00	
 20.407	170.264	 23.75200	 -4.43060	 28.06252	 14.00188	  6.39575	 -1.11465	 29.71271	708.40198	 23.00	
 20.401	175.153	 23.72419	 -4.54949	 28.27201	 12.44887	  7.84494	 -1.05550	 29.67310	708.36200	 23.00	
  0.141	 45.000	 29.72063	 15.83340	 14.78208	 15.69893	 14.96636	  0.19860	 29.70372	708.40997	 23.00	
  4.001	128.691	 29.62228	 13.29891	 16.89621	 18.39175	 11.94738	  0.10924	 29.68200	708.33398	 23.00	
  4.002	 76.995	 29.55447	 16.36593	 13.76398	 18.97353	 11.30411	  0.06562	 29.66076	708.28302	 23.00	
  4.002	 25.892	 29.55024	 18.88588	 11.50616	 16.81762	 13.19900	  0.07624	 29.68996	708.43402	 23.00	
  4.002	-25.892	 29.57552	 18.82860	 11.57038	 13.66219	 16.41817	  0.00736	 29.70553	708.43402	 23.00	
  4.002	-76.995	 29.61748	 16.23926	 13.91629	 11.94714	 18.48522	  0.06208	 29.70296	708.37000	 23.00	
  4.001	-128.691	 29.65778	 13.18929	 17.05978	 12.66929	 17.76118	  0.10638	 29.70520	708.46698	 23.00	
  4.000	180.000	 29.68909	 12.01317	 18.45490	 15.53935	 14.80941	  0.13436	 29.72933	708.41803	 23.00	
  8.000	180.000	 29.10931	  8.02319	 21.54549	 15.00599	 14.03599	 -0.33674	 29.66174	708.40503	 23.00	
  7.991	-152.370	 29.09745	  8.62978	 20.74839	 11.67260	 17.51805	 -0.30197	 29.65099	708.44501	 23.00	
  7.997	-124.550	 29.10212	 10.69548	 18.43185	  9.14163	 20.38905	 -0.31558	 29.70756	708.30798	 23.00	
  8.006	-96.837	 29.01299	 13.75042	 15.00090	  7.89269	 21.72421	 -0.43759	 29.68689	708.39099	 23.00	
  7.988	-69.228	 28.92201	 17.23892	 11.72034	  8.06865	 21.27232	 -0.51993	 29.66719	708.47803	 23.00	
  7.997	-41.563	 28.90263	 20.31611	  8.89442	  9.75336	 19.16538	 -0.49004	 29.72693	708.50702	 23.00	
  8.008	-13.821	 28.83478	 22.09337	  7.30661	 12.65487	 15.87218	 -0.41938	 29.69914	708.44202	 23.00	
  8.008	 13.821	 28.77380	 22.15884	  7.16874	 16.09516	 12.29717	 -0.38757	 29.66554	708.34302	 23.00	
  7.997	 41.563	 28.84541	 20.51213	  8.61294	 19.42965	  9.30429	 -0.32523	 29.70770	708.47699	 23.00	
  7.988	 69.228	 28.91940	 17.59010	 11.33170	 21.68688	  7.58447	 -0.36497	 29.73030	708.37299	 23.00	
  8.006	 96.837	 28.94746	 14.04947	 14.63541	 22.25360	  7.21427	 -0.42087	 29.66627	708.37799	 23.00	
  7.997	124.550	 29.03174	 10.93989	 18.05625	 21.11122	  8.27836	 -0.39194	 29.68210	708.43500	 23.00	
  7.991	152.370	 29.13702	  8.80298	 20.56333	 18.50829	 10.71862	 -0.34405	 29.72793	708.42102	 23.00	
 12.009	161.059	 27.96711	  4.14360	 23.64115	 17.74118	  9.38398	 -0.87053	 29.69862	708.35101	 23.00	
 12.013	142.081	 27.90787	  5.64819	 21.68940	 20.98247	  6.44931	 -0.88800	 29.70535	708.32098	 23.00	
 12.006	123.113	 27.83438	  8.14068	 18.79276	 23.43164	  4.31838	 -0.96932	 29.69893	708.38800	 23.00	
 12.007	104.200	 27.74006	 11.27121	 15.26099	 24.77391	  3.14792	 -1.06180	 29.69136	708.35797	 23.00	
 11.989	 85.301	 27.65028	 14.77801	 11.82172	 24.90999	  2.96165	 -1.02471	 29.69336	708.38800	 23.00	
 12.013	 66.294	 27.54888	 18.36467	  8.39069	 23.78505	  3.60356	 -0.88174	 29.68244	708.31500	 23.00	
 12.012	 47.388	 27.49137	 21.49475	  5.45936	 21.56334	  5.32513	 -0.85285	 29.68634	708.43701	 23.00	
 11.990	 28.440	 27.46999	 23.73778	  3.76493	 18.48604	  7.95105	 -0.91922	 29.70292	708.43103	 23.00	
 11.991	  9.464	 27.46717	 24.89111	  2.96583	 14.94310	 11.20714	 -0.97576	 29.70450	708.43103	 23.00	
 11.991	 -9.464	 27.47060	 24.82110	  3.02261	 11.38261	 14.84070	 -0.96455	 29.69682	708.44501	 23.00	
 11.990	-28.440	 27.51708	 23.52877	  4.01485	  8.15073	 18.42252	 -1.00297	 29.70673	708.38800	 23.00	
 12.012	-47.388	 27.53865	 21.13692	  5.84579	  5.58015	 21.47191	 -1.06594	 29.69012	708.30798	 23.00	
 12.013	-66.294	 27.62315	 17.92879	  8.91266	  4.01842	 23.60020	 -1.12875	 29.69062	708.33197	 23.00	
 11.989	-85.301	 27.73236	 14.32791	 12.37139	  3.51520	 24.53298	 -1.09008	 29.69849	708.28900	 23.00	
 12.007	-104.200	 27.79666	 10.83781	 15.84260	  3.84924	 24.19138	 -0.95186	 29.68127	708.27802	 23.00	
 12.006	-123.113	 27.88353	  7.79442	 19.30528	  5.21437	 22.60203	 -0.81235	 29.67361	708.32300	 23.00	
 12.013	-142.081	 27.92540	  5.40281	 22.07401	  7.52279	 19.93149	 -0.82057	 29.67346	708.27802	 23.00	
 12.009	-161.059	 28.02440	  4.09608	 23.87164	 10.63046	 16.58267	 -0.89842	 29.73030	708.28601	 23.00	
 16.000	180.000	 26.26169	 -0.28827	 26.61991	 12.81569	 11.38027	 -1.19432	 29.69588	708.27802	 23.00	
 15.990	-165.604	 26.28956	 -0.08558	 26.28658	  9.30826	 15.06473	 -1.18605	 29.72865	708.32898	 23.00	
 16.002	-151.165	 26.22375	  0.75982	 24.95323	  6.08342	 18.61196	 -1.14974	 29.70530	708.36499	 23.00	
 16.002	-136.836	 26.18702	  2.38965	 22.74475	  3.40778	 21.78357	 -1.12237	 29.70309	708.29901	 23.00	
 15.995	-122.439	 26.14277	  4.70680	 19.74243	  1.42063	 24.33958	 -1.13841	 29.71938	708.33398	 23.00	
 15.993	-107.966	 26.04724	  7.62441	 16.25977	  0.12457	 26.01012	 -1.18454	 29.70996	708.22198	 23.00	
 16.005	-93.629	 25.91215	 10.92956	 12.71532	 -0.54912	 26.73409	 -1.16545	 29.68144	708.33398	 23.00	
 15.992	-79.234	 25.86159	 14.56495	  9.10891	 -0.51656	 26.55557	 -1.15525	 29.72735	708.30798	 23.00	
 16.009	-64.774	 25.72066	 18.08741	  5.71122	  0.14252	 25.37523	 -1.21831	 29.69934	708.30798	 23.00	
 15.997	-50.364	 25.66295	 21.39598	  3.10754	  1.56896	 23.26463	 -1.28386	 29.71919	708.32300	 23.00	
 15.997	-36.045	 25.57643	 24.08377	  0.97721	  3.66421	 20.41856	 -1.36222	 29.70731	708.22998	 23.00	
 16.000	-21.597	 25.54248	 25.96036	 -0.31784	  6.48507	 17.02352	 -1.42530	 29.68717	708.29199	 23.00	
 16.003	 -7.169	 25.49812	 26.96671	 -1.07787	  9.74270	 13.40027	 -1.42957	 29.69249	708.20300	 23.00	
 16.003	  7.169	 25.47338	 27.03672	 -1.12035	 13.24793	  9.80603	 -1.46920	 29.68311	708.18103	 23.00	
 16.000	 21.597	 25.46378	 26.20546	 -0.58019	 16.81981	  6.49659	 -1.49963	 29.68725	708.29102	 23.00	
 15.997	 36.045	 25.50347	 24.46889	  0.63338	 20.21014	  3.61723	 -1.37765	 29.68870	708.18103	 23.00	
 15.997	 50.364	 25.55637	 21.88631	  2.60220	 23.11562	  1.37531	 -1.32045	 29.66568	708.27502	 23.00	
 16.009	 64.774	 25.62043	 18.67541	  5.09777	 25.34534	 -0.22580	 -1.34035	 29.65856	708.19800	 23.00	
 15.992	 79.234	 25.74419	 15.20017	  8.41952	 26.69356	 -1.03974	 -1.42941	 29.69167	708.26801	 23.00	
 16.005	 93.629	 25.82712	 11.60146	 11.95844	 27.12107	 -1.28085	 -1.44813	 29.68968	708.25299	 23.00	
 15.993	107.966	 25.96605	  8.20417	 15.47347	 26.62656	 -0.75487	 -1.43857	 29.72753	708.30499	 23.00	
 15.995	122.439	 26.02918	  5.15869	 19.00395	 25.16772	  0.37923	 -1.37225	 29.69271	708.28601	 23.00	
 16.002	136.836	 26.09274	  2.72820	 22.03542	 22.83557	  2.25771	 -1.29895	 29.67948	708.26202	 23.00	
 16.002	151.165	 26.16347	  0.98791	 24.47489	 19.85795	  4.74386	 -1.26728	 29.68364	708.31299	 23.00	
 15.990	165.604	 26.27142	  0.04131	 26.04805	 16.41107	  7.89457	 -1.22480	 29.70804	708.29901	 23.00	
 20.003	168.362	 23.95445	 -3.97124	 27.76745	 14.65902	  6.08388	 -1.13986	 29.65701	708.25702	 23.00	
 20.008	156.764	 23.91165	 -3.28039	 26.54425	 18.10740	  3.00293	 -1.23743	 29.67853	708.39099	 23.00	
 20.000	145.147	 23.85525	 -1.95050	 24.49907	 21.31900	  0.42083	 -1.28649	 29.65663	708.25897	 23.10	
 19.995	133.545	 23.79998	 -0.15925	 21.92390	 24.13005	 -1.69799	 -1.33101	 29.71057	708.36700	 23.00	
 20.009	121.926	 23.69726	  2.13437	 18.75561	 26.31192	 -3.31224	 -1.27560	 29.68385	708.29901	 23.10	
 20.005	110.327	 23.62696	  4.95988	 15.29608	 27.80993	 -4.40425	 -1.20684	 29.70199	708.29999	 23.00	
 19.989	 98.733	 23.49211	  8.14864	 11.86441	 28.50430	 -5.08366	 -1.19018	 29.66837	708.28400	 23.00	
 19.999	 87.075	 23.40258	 11.61519	  8.24798	 28.52120	 -5.04166	 -1.29950	 29.67298	708.26801	 23.00	
 19.992	 75.457	 23.33405	 15.16120	  4.95937	 27.82089	 -4.64617	 -1.52443	 29.69081	708.27301	 23.00	
 20.009	 63.844	 23.24888	 18.59056	  2.15762	 26.35359	 -3.76948	 -1.58394	 29.68015	708.37500	 23.10	
 19.989	 52.269	 23.17356	 21.74638	 -0.29396	 24.20418	 -2.36372	 -1.65069	 29.69477	708.25299	 23.00	
 19.999	 40.602	 23.08726	 24.44388	 -2.15428	 21.43314	 -0.41664	 -1.64895	 29.68062	708.24500	 23.00	
 20.004	 29.051	 23.01085	 26.53819	 -3.57967	 18.25937	  1.94667	 -1.61486	 29.67439	708.28601	 23.10	
 20.005	 17.433	 22.96899	 27.91261	 -4.54186	 14.78161	  4.86384	 -1.53869	 29.66102	708.31000	 23.10	
 20.006	  5.780	 22.98960	 28.58491	 -5.00840	 11.29867	  8.11188	 -1.48277	 29.69799	708.31500	 23.10	
 20.006	 -5.780	 23.00317	 28.50098	 -4.93590	  7.84749	 11.64157	 -1.50885	 29.68823	708.24597	 23.10	
 20.005	-17.433	 23.03448	 27.69703	 -4.31997	  4.63898	 15.21430	 -1.49843	 29.67571	708.33197	 23.10	
 20.004	-29.051	 23.06733	 26.16531	 -3.30474	  1.81808	 18.67296	 -1.39734	 29.67986	708.21100	 23.10	
 19.999	-40.602	 23.10709	 23.90732	 -1.78675	 -0.45588	 21.78594	 -1.24464	 29.65557	708.25897	 23.10	
 19.989	-52.269	 23.20631	 21.10475	  0.18279	 -2.27710	 24.48257	 -1.05609	 29.68248	708.29401	 23.10	
 20.009	-63.844	 23.24372	 17.86480	  2.67537	 -3.59118	 26.48204	 -0.93137	 29.66011	708.32599	 23.10	
 19.992	-75.457	 23.39314	 14.38215	  5.69609	 -4.30407	 27.80043	 -0.90810	 29.67896	708.22900	 23.10	
 19.999	-87.075	 23.48241	 10.84523	  9.10846	 -4.59695	 28.35122	 -0.89198	 29.67999	708.31299	 23.10	
 19.989	-98.733	 23.59686	  7.44838	 12.70297	 -4.35627	 28.13045	 -0.97857	 29.66576	708.28400	 23.10	
 20.005	-110.327	 23.67253	  4.33536	 16.19726	 -3.59085	 27.19147	 -1.11926	 29.65805	708.29401	 23.10	
 20.009	-121.926	 23.78736	  1.63429	 19.65250	 -2.31191	 25.49132	 -1.13720	 29.68461	708.25702	 23.10	
 19.995	-133.545	 23.84508	 -0.53801	 22.68431	 -0.53290	 23.04081	 -1.11533	 29.66231	708.31500	 23.10	
 20.000	-145.147	 23.90635	 -2.23362	 25.15547	  1.74588	 20.08726	 -0.99448	 29.66774	708.26703	 23.10	
 20.008	-156.764	 23.93690	 -3.46183	 26.96663	  4.52365	 16.70173	 -0.91560	 29.66142	708.18402	 23.10	
 20.003	-168.362	 23.94465	 -4.13562	 27.98097	  7.68236	 13.13390	 -0.91866	 29.66120	708.24902	 23.10	
 20.000	180.000	 23.93406	 -4.23059	 28.21200	 11.13302	  9.49335	 -1.00026	 29.62791	708.24298	 23.20	
