FileType=PCF
NHL=14
Date=10/22/18	15:48:52
Facility=APL
Serial=16328-17
Customer=NASA
NP=6
Mach=0.200000
Calibration=1:1
CalPts=490
TstPts=95
PortNumbering=AP Standard
Units=Torr C m/s kg/m^3 deg mm 
Theta[deg]	Phi[deg]	P1[Torr]	P2[Torr]	P3[Torr]	P4[Torr]	P5[Torr]	P6[Torr]	Pt[Torr]	Ps[Abs,Torr]	Ts[C]	
  0.000	  0.000	 19.52468	 10.33709	  9.71003	  9.99548	 10.12351	  0.13792	 19.50971	709.52802	 31.50	
  1.691	128.401	 19.49666	  9.68003	 10.32450	 10.76510	  9.32716	  0.13645	 19.48909	709.69897	 31.50	
  1.692	 77.194	 19.49348	 10.52000	  9.46768	 10.94964	  9.11002	  0.13648	 19.48571	710.39301	 31.40	
  1.699	 26.182	 19.50534	 11.19293	  8.81777	 10.39711	  9.62557	  0.12454	 19.49312	710.15302	 31.40	
  1.699	-26.182	 19.51778	 11.19478	  8.80863	  9.50240	 10.52643	  0.11025	 19.50321	709.54700	 31.40	
  1.692	-77.194	 19.43513	 10.47015	  9.42513	  8.95702	 11.03346	  0.10407	 19.42370	709.55200	 31.30	
  1.691	-128.401	 19.47291	  9.65222	 10.29930	  9.18183	 10.88884	  0.11654	 19.45784	709.53601	 31.30	
  1.700	180.000	 19.49324	  9.30570	 10.69678	  9.96985	 10.11162	  0.13288	 19.47674	709.52301	 31.40	
  3.400	180.000	 19.48505	  8.27710	 11.67050	  9.92174	 10.07325	  0.09879	 19.48023	710.36700	 31.40	
  3.388	-152.325	 19.45830	  8.46618	 11.41367	  8.99196	 10.98600	  0.09352	 19.46088	709.66803	 31.40	
  3.397	-124.529	 19.44129	  9.04882	 10.76460	  8.28734	 11.68850	  0.05786	 19.45795	710.14301	 31.40	
  3.399	-96.763	 19.43434	  9.94535	  9.80553	  7.93064	 12.01757	  0.02513	 19.46279	709.97900	 31.40	
  3.394	-69.283	 19.42209	 10.87899	  8.87490	  8.02723	 11.89681	  0.02003	 19.46776	709.57703	 31.40	
  3.400	-41.398	 19.45425	 11.71805	  8.15972	  8.55569	 11.31244	  0.03182	 19.50359	710.35901	 31.40	
  3.401	-14.021	 19.40785	 12.14545	  7.73380	  9.34085	 10.43549	  0.04068	 19.45632	710.38000	 31.40	
  3.401	 14.021	 19.43310	 12.17769	  7.74427	 10.34527	  9.45408	  0.06894	 19.47943	710.32898	 31.40	
  3.400	 41.398	 19.41446	 11.71043	  8.15928	 11.17313	  8.64847	  0.08810	 19.44078	710.35602	 31.40	
  3.394	 69.283	 19.42129	 10.92869	  8.88896	 11.74152	  8.15016	  0.11196	 19.44316	710.39301	 31.40	
  3.399	 96.763	 19.43085	  9.96904	  9.84886	 11.87141	  8.08029	  0.09522	 19.43972	709.87402	 31.50	
  3.397	124.529	 19.44429	  9.08804	 10.77594	 11.57044	  8.40836	  0.10341	 19.44664	709.51501	 31.50	
  3.388	152.325	 19.45000	  8.48994	 11.42147	 10.84607	  9.11242	  0.11375	 19.44128	709.69800	 31.50	
  5.099	161.165	 19.37844	  7.34354	 12.42284	 10.77115	  8.93883	  0.01137	 19.44647	710.20398	 31.50	
  5.109	142.013	 19.36467	  7.76429	 11.92775	 11.67239	  8.07957	  0.00923	 19.43424	709.51202	 31.50	
  5.095	123.033	 19.36499	  8.45127	 11.17116	 12.36153	  7.44008	  0.00711	 19.43859	710.44202	 31.50	
  5.105	104.191	 19.37866	  9.35354	 10.21588	 12.78854	  7.07878	  0.03710	 19.45660	709.93201	 31.60	
  5.093	 85.207	 19.35102	 10.32169	  9.22952	 12.82427	  6.98000	  0.00886	 19.44077	710.43402	 31.60	
  5.104	 66.290	 19.32360	 11.29486	  8.28446	 12.55377	  7.15062	  0.01310	 19.43386	710.38300	 31.60	
  5.094	 47.331	 19.30957	 12.15320	  7.49647	 11.95745	  7.64141	  0.01833	 19.44444	710.43201	 31.60	
  5.089	 28.397	 19.27772	 12.75513	  6.92019	 11.13518	  8.36325	 -0.00339	 19.42567	709.58801	 31.60	
  5.096	  9.576	 19.25760	 13.09724	  6.59868	 10.17101	  9.24417	 -0.02609	 19.42029	710.26898	 31.60	
  5.096	 -9.576	 19.26269	 13.08798	  6.60606	  9.15223	 10.26277	 -0.04932	 19.43498	710.39099	 31.60	
  5.089	-28.397	 19.26267	 12.75510	  6.87261	  8.23134	 11.24850	 -0.03216	 19.44465	709.85199	 31.60	
  5.094	-47.331	 19.27736	 12.13239	  7.43284	  7.50144	 12.08104	 -0.09033	 19.45518	710.33502	 31.60	
  5.104	-66.290	 19.28148	 11.24287	  8.22394	  7.00056	 12.68093	 -0.10392	 19.45077	709.51703	 31.60	
  5.093	-85.207	 19.29499	 10.25939	  9.15851	  6.80691	 12.94925	 -0.09077	 19.44460	709.85797	 31.60	
  5.105	-104.191	 19.29229	  9.28460	 10.14142	  6.89555	 12.88369	 -0.06009	 19.42879	709.55603	 31.60	
  5.095	-123.033	 19.33198	  8.41892	 11.11174	  7.29547	 12.49595	 -0.02426	 19.44429	709.55200	 31.60	
  5.109	-142.013	 19.36962	  7.73039	 11.91842	  7.94200	 11.82967	 -0.00859	 19.47129	709.57397	 31.60	
  5.099	-161.165	 19.37761	  7.32525	 12.42883	  8.82922	 10.92139	  0.01729	 19.46612	710.28900	 31.60	
  5.100	180.000	 19.36767	  7.16024	 12.59333	  9.77198	  9.90152	 -0.01202	 19.43284	709.54401	 31.70	
  6.800	180.000	 19.24085	  6.05938	 13.50276	  9.63073	  9.75153	 -0.11253	 19.45873	710.38202	 31.70	
  6.796	-166.229	 19.25552	  6.17115	 13.39708	  8.68424	 10.73955	 -0.10510	 19.48267	709.49597	 31.70	
  6.808	-152.311	 19.21826	  6.44754	 12.99900	  7.76694	 11.66178	 -0.11924	 19.46059	709.51703	 31.60	
  6.795	-138.383	 19.20150	  6.93264	 12.39505	  6.98834	 12.49147	 -0.13856	 19.46013	710.17999	 31.60	
  6.792	-124.591	 19.12946	  7.57022	 11.57704	  6.33931	 13.14536	 -0.16419	 19.40793	709.48798	 31.60	
  6.787	-110.754	 19.12212	  8.40302	 10.66964	  5.91198	 13.62347	 -0.17803	 19.43314	709.47498	 31.60	
  6.800	-96.985	 19.09990	  9.31650	  9.69904	  5.67428	 13.85410	 -0.21506	 19.43484	709.50702	 31.60	
  6.800	-83.015	 19.06556	 10.26425	  8.71401	  5.64177	 13.81801	 -0.25038	 19.41526	709.61798	 31.60	
  6.787	-69.246	 19.07872	 11.26885	  7.81520	  5.83370	 13.57246	 -0.25294	 19.44195	710.30499	 31.60	
  6.792	-55.409	 19.05602	 12.14147	  6.99658	  6.23543	 13.04059	 -0.25888	 19.42209	709.48297	 31.70	
  6.795	-41.617	 19.03056	 12.89399	  6.29908	  6.81912	 12.33907	 -0.24245	 19.41022	709.49298	 31.70	
  6.808	-27.689	 19.04083	 13.49717	  5.77121	  7.59080	 11.49066	 -0.21347	 19.41976	710.10999	 31.70	
  6.796	-13.771	 19.05770	 13.89022	  5.44935	  8.48651	 10.53522	 -0.18634	 19.43616	709.43201	 31.70	
  6.800	  0.000	 19.06292	 14.01972	  5.35962	  9.44671	  9.56345	 -0.15427	 19.43507	709.40900	 31.70	
  6.796	 13.771	 19.06040	 13.89683	  5.47872	 10.41391	  8.59361	 -0.14713	 19.42202	709.87402	 31.80	
  6.808	 27.689	 19.06637	 13.52222	  5.81565	 11.36844	  7.70925	 -0.11790	 19.41010	709.45898	 31.80	
  6.795	 41.617	 19.09488	 12.97409	  6.34205	 12.22943	  6.95813	 -0.08955	 19.42728	709.80402	 31.80	
  6.792	 55.409	 19.09896	 12.21158	  7.03923	 12.90806	  6.38418	 -0.09718	 19.40084	709.40698	 31.80	
  6.787	 69.246	 19.14808	 11.33348	  7.89586	 13.42497	  6.01063	 -0.09565	 19.42123	709.36700	 31.80	
  6.800	 83.015	 19.15810	 10.35805	  8.80793	 13.68717	  5.83730	 -0.10688	 19.41632	709.77301	 31.90	
  6.800	 96.985	 19.18415	  9.40124	  9.79776	 13.72707	  5.86362	 -0.11310	 19.42769	709.69299	 31.90	
  6.787	110.754	 19.22909	  8.50593	 10.76394	 13.50461	  6.11677	 -0.11121	 19.45388	710.34003	 31.90	
  6.792	124.591	 19.25141	  7.68219	 11.67868	 13.03970	  6.53903	 -0.10758	 19.45885	709.41602	 31.90	
  6.795	138.383	 19.22459	  6.99240	 12.41542	 12.36275	  7.12925	 -0.10334	 19.42675	709.42798	 31.90	
  6.808	152.311	 19.23762	  6.47315	 13.03404	 11.53637	  7.87794	 -0.10319	 19.44159	709.33698	 31.80	
  6.796	166.229	 19.20271	  6.15632	 13.36053	 10.58127	  8.77080	 -0.10792	 19.41163	709.40900	 31.80	
  8.491	168.704	 19.03457	  4.98645	 14.28594	 10.42681	  8.54278	 -0.24031	 19.45550	709.31897	 31.80	
  8.502	157.493	 19.04451	  5.24887	 13.98280	 11.38889	  7.63566	 -0.23552	 19.46078	709.37799	 31.80	
  8.494	146.194	 19.04300	  5.67121	 13.47988	 12.32704	  6.76337	 -0.24629	 19.45462	710.00500	 31.80	
  8.495	135.039	 19.02300	  6.22797	 12.81033	 13.09473	  6.05073	 -0.24178	 19.44218	709.42798	 31.70	
  8.487	123.723	 18.99875	  6.94080	 11.98894	 13.73623	  5.46508	 -0.24861	 19.43012	709.38000	 31.70	
  8.492	112.575	 18.97672	  7.74143	 11.07756	 14.21741	  5.03381	 -0.26810	 19.41874	709.37000	 31.70	
  8.510	101.220	 18.93987	  8.67778	 10.06735	 14.50130	  4.74527	 -0.26578	 19.39750	709.39301	 31.70	
  8.500	 90.000	 18.90857	  9.62889	  9.06822	 14.56839	  4.64296	 -0.26156	 19.38389	709.54797	 31.80	
  8.510	 78.780	 18.89407	 10.62858	  8.08936	 14.45539	  4.68907	 -0.24016	 19.40244	710.17603	 31.80	
  8.492	 67.425	 18.89301	 11.62715	  7.14916	 14.11538	  4.93790	 -0.23490	 19.41040	709.42297	 31.90	
  8.487	 56.277	 18.87300	 12.50655	  6.33102	 13.61476	  5.32754	 -0.22355	 19.42052	710.30499	 32.00	
  8.495	 44.961	 18.86286	 13.32699	  5.57517	 12.93479	  5.88937	 -0.22098	 19.43595	709.85498	 32.00	
  8.494	 33.806	 18.85192	 13.98067	  5.00329	 12.13924	  6.57294	 -0.23689	 19.45062	709.47498	 32.00	
  8.502	 22.507	 18.79955	 14.45318	  4.53213	 11.19198	  7.39740	 -0.26695	 19.41618	709.37799	 31.90	
  8.491	 11.296	 18.80257	 14.76354	  4.28776	 10.21288	  8.32853	 -0.28983	 19.43675	710.35901	 31.90	
  8.500	  0.000	 18.77470	 14.84548	  4.18241	  9.18962	  9.30740	 -0.30026	 19.42624	709.42603	 31.90	
  8.491	-11.296	 18.76322	 14.72495	  4.25744	  8.20061	 10.31104	 -0.32880	 19.42063	709.44299	 32.00	
  8.502	-22.507	 18.76226	 14.44905	  4.46665	  7.26838	 11.28828	 -0.36300	 19.43483	709.37201	 32.00	
  8.494	-33.806	 18.74780	 13.91304	  4.89925	  6.43421	 12.22119	 -0.38519	 19.42088	709.38000	 31.90	
  8.495	-44.961	 18.74238	 13.24009	  5.46393	  5.72489	 13.02905	 -0.40842	 19.40514	709.45099	 31.90	
  8.487	-56.277	 18.74566	 12.42679	  6.17433	  5.14442	 13.72382	 -0.43174	 19.40710	709.41199	 31.90	
  8.492	-67.425	 18.74106	 11.52131	  7.00159	  4.71245	 14.23485	 -0.44728	 19.38676	709.44501	 32.00	
  8.510	-78.780	 18.79328	 10.54201	  7.96737	  4.49355	 14.57896	 -0.44472	 19.41951	709.94098	 32.00	
  8.500	-90.000	 18.81694	  9.56415	  8.92670	  4.42355	 14.71372	 -0.42384	 19.42296	709.38800	 32.00	
  8.510	-101.220	 18.82708	  8.58410	  9.94201	  4.52390	 14.63198	 -0.36581	 19.41341	709.35602	 32.00	
  8.492	-112.575	 18.85402	  7.63955	 10.96604	  4.83247	 14.32459	 -0.32145	 19.41390	709.43103	 32.00	
  8.487	-123.723	 18.84928	  6.83906	 11.83265	  5.25266	 13.84644	 -0.29948	 19.37922	709.45001	 32.00	
  8.495	-135.039	 18.90207	  6.13370	 12.69357	  5.87465	 13.19727	 -0.27424	 19.41173	709.47498	 32.00	
  8.494	-146.194	 18.90639	  5.58580	 13.36362	  6.60777	 12.38035	 -0.25980	 19.38809	709.42603	 32.00	
  8.502	-157.493	 18.94560	  5.16487	 13.91808	  7.44753	 11.47889	 -0.27033	 19.41400	709.41803	 32.10	
  8.491	-168.704	 18.99998	  4.95228	 14.25429	  8.41368	 10.53850	 -0.26257	 19.44939	709.38599	 32.10	
  8.500	180.000	 18.99473	  4.87173	 14.36628	  9.39942	  9.51536	 -0.26378	 19.42913	709.44299	 32.10	
 10.200	180.000	 18.69194	  3.69668	 15.14577	  9.13284	  9.24030	 -0.42543	 19.41191	709.58197	 32.10	
 10.191	-170.497	 18.67733	  3.74278	 15.06263	  8.12933	 10.25423	 -0.43551	 19.41667	709.49597	 32.00	
 10.210	-161.034	 18.62893	  3.92827	 14.74823	  7.13921	 11.24619	 -0.43505	 19.37646	709.34802	 32.00	
 10.194	-151.526	 18.61337	  4.26100	 14.32052	  6.27710	 12.19613	 -0.41219	 19.39790	709.82501	 32.10	
 10.190	-142.105	 18.57064	  4.73178	 13.68489	  5.44771	 13.06215	 -0.42623	 19.36704	709.34003	 32.10	
 10.215	-132.646	 18.56611	  5.32771	 12.97298	  4.75791	 13.85724	 -0.42477	 19.39437	709.30798	 32.20	
 10.203	-123.092	 18.49872	  6.04599	 12.08683	  4.17460	 14.46576	 -0.43586	 19.35403	710.06702	 32.20	
 10.192	-113.678	 18.50314	  6.87107	 11.16840	  3.73675	 14.98386	 -0.46540	 19.38376	710.25800	 32.30	
 10.208	-104.249	 18.45424	  7.75991	 10.15969	  3.42763	 15.28565	 -0.51362	 19.36135	709.38599	 32.30	
 10.210	-94.801	 18.42901	  8.71354	  9.14585	  3.25877	 15.44553	 -0.56582	 19.36163	710.25299	 32.40	
 10.210	-85.199	 18.42433	  9.72894	  8.13417	  3.25528	 15.43411	 -0.60541	 19.37741	709.83801	 32.40	
 10.208	-75.751	 18.40671	 10.74134	  7.14289	  3.36266	 15.22534	 -0.63414	 19.37731	709.39301	 32.40	
 10.192	-66.322	 18.34170	 11.68273	  6.21780	  3.63580	 14.81280	 -0.63517	 19.33078	709.38599	 32.40	
 10.203	-56.908	 18.40221	 12.65298	  5.41472	  4.04399	 14.37655	 -0.59970	 19.41244	709.34802	 32.50	
 10.215	-47.354	 18.35804	 13.47125	  4.67725	  4.56615	 13.68126	 -0.58116	 19.38468	709.39899	 32.50	
 10.190	-37.895	 18.41815	 14.24380	  4.08843	  5.29796	 12.91436	 -0.52902	 19.45668	709.35400	 32.40	
 10.194	-28.474	 18.41339	 14.81392	  3.61892	  6.06170	 12.01562	 -0.52054	 19.43803	710.21301	 32.40	
 10.210	-18.966	 18.42954	 15.27502	  3.26118	  6.93687	 11.05020	 -0.50670	 19.45767	710.22302	 32.30	
 10.191	 -9.503	 18.41742	 15.51753	  3.06453	  7.89230	 10.02572	 -0.47452	 19.42970	709.87000	 32.30	
 10.200	  0.000	 18.41031	 15.61455	  2.98735	  8.87300	  8.99164	 -0.46244	 19.41716	710.32599	 32.30	
 10.191	  9.503	 18.44679	 15.53416	  3.11260	  9.92419	  8.00396	 -0.45579	 19.43366	709.46100	 32.20	
 10.210	 18.966	 18.44635	 15.29202	  3.29858	 10.90989	  7.05244	 -0.45158	 19.42132	710.28003	 32.20	
 10.194	 28.474	 18.46311	 14.87159	  3.66896	 11.88375	  6.19131	 -0.40574	 19.42392	710.25098	 32.20	
 10.190	 37.895	 18.49482	 14.30080	  4.17430	 12.77915	  5.42829	 -0.37257	 19.42016	710.23199	 32.20	
 10.215	 47.354	 18.51330	 13.59964	  4.79764	 13.56296	  4.77594	 -0.36670	 19.41283	709.51202	 32.20	
 10.203	 56.908	 18.53616	 12.76828	  5.54281	 14.24232	  4.24060	 -0.37701	 19.40776	710.10199	 32.10	
 10.192	 66.322	 18.52241	 11.83483	  6.36734	 14.73447	  3.84317	 -0.37969	 19.36908	710.21899	 32.10	
 10.208	 75.751	 18.56918	 10.88740	  7.28577	 15.14553	  3.55440	 -0.39925	 19.39816	710.04498	 32.20	
 10.210	 85.199	 18.59821	  9.88909	  8.27495	 15.35357	  3.44274	 -0.42216	 19.39775	710.21301	 32.20	
 10.210	 94.801	 18.63949	  8.87638	  9.29637	 15.37830	  3.46726	 -0.45858	 19.41522	710.24799	 32.20	
 10.208	104.249	 18.69022	  7.92802	 10.33301	 15.24506	  3.64934	 -0.44795	 19.43974	710.09497	 32.20	
 10.192	113.678	 18.73007	  7.02191	 11.34231	 14.92484	  3.95900	 -0.44111	 19.46413	710.21301	 32.20	
 10.203	123.092	 18.70617	  6.18006	 12.24225	 14.40695	  4.38690	 -0.42064	 19.42389	710.27698	 32.20	
 10.215	132.646	 18.72090	  5.45083	 13.08854	 13.76793	  4.94897	 -0.40569	 19.42786	709.75403	 32.10	
 10.190	142.105	 18.71776	  4.83320	 13.80404	 12.99006	  5.62793	 -0.39358	 19.42322	709.96503	 32.10	
 10.194	151.526	 18.73864	  4.33604	 14.42210	 12.13878	  6.40133	 -0.39758	 19.44592	710.25800	 32.10	
 10.210	161.034	 18.73618	  3.99011	 14.83317	 11.17687	  7.29052	 -0.39731	 19.43840	710.21100	 32.10	
 10.191	170.497	 18.73492	  3.79422	 15.08401	 10.16256	  8.27527	 -0.40654	 19.44345	710.26202	 32.10	
 11.899	171.783	 18.35578	  2.58278	 15.83007	  9.85382	  7.94466	 -0.56927	 19.42351	710.26898	 32.10	
 11.890	163.610	 18.40048	  2.76914	 15.64116	 10.90466	  6.96797	 -0.56239	 19.46912	710.14502	 32.00	
 11.889	155.445	 18.40428	  3.07056	 15.27720	 11.88179	  6.07491	 -0.55080	 19.46451	710.16699	 32.00	
 11.909	147.299	 18.37450	  3.46398	 14.74766	 12.78604	  5.21992	 -0.55374	 19.44067	710.16699	 31.90	
 11.902	139.148	 18.36783	  4.00547	 14.08484	 13.62247	  4.49070	 -0.54974	 19.42864	710.21301	 31.90	
 11.894	130.867	 18.33801	  4.64616	 13.29767	 14.37177	  3.81330	 -0.56503	 19.41385	710.22400	 31.90	
 11.897	122.732	 18.32602	  5.38101	 12.43360	 14.98828	  3.30036	 -0.58902	 19.40560	710.14001	 31.90	
 11.903	114.597	 18.28821	  6.17360	 11.51881	 15.47800	  2.84433	 -0.62325	 19.39391	710.12903	 31.90	
 11.893	106.346	 18.29570	  7.10574	 10.52253	 15.85165	  2.54696	 -0.63375	 19.41753	710.21301	 32.00	
 11.892	 98.155	 18.25341	  8.06049	  9.48692	 16.03518	  2.35507	 -0.64125	 19.39324	710.18402	 32.00	
 11.900	 90.000	 18.24193	  9.03515	  8.48679	 16.10408	  2.27091	 -0.63215	 19.40890	710.13501	 32.00	
 11.892	 81.845	 18.22231	 10.07050	  7.46888	 15.99888	  2.32657	 -0.59980	 19.40434	710.17499	 32.10	
 11.893	 73.654	 18.20877	 11.07580	  6.51292	 15.76078	  2.49125	 -0.56012	 19.41518	710.16498	 32.10	
 11.903	 65.403	 18.20538	 12.07145	  5.60083	 15.37015	  2.78758	 -0.53871	 19.44274	710.23700	 32.10	
 11.897	 57.268	 18.15961	 12.96957	  4.76665	 14.83821	  3.15058	 -0.52756	 19.43197	710.13202	 32.10	
 11.894	 49.133	 18.14266	 13.82036	  4.02291	 14.16911	  3.67047	 -0.52613	 19.43656	710.22302	 32.10	
 11.902	 40.852	 18.13245	 14.58779	  3.37396	 13.38698	  4.30734	 -0.54375	 19.45400	710.10797	 32.10	
 11.909	 32.701	 18.10390	 15.21741	  2.82933	 12.52402	  5.03168	 -0.57051	 19.46040	710.16101	 32.10	
 11.889	 24.555	 18.04812	 15.67501	  2.40885	 11.58095	  5.81098	 -0.60193	 19.42177	710.12701	 32.00	
 11.890	 16.390	 18.06308	 16.06280	  2.10864	 10.60233	  6.71706	 -0.62629	 19.46001	710.12903	 32.00	
 11.899	  8.217	 18.05122	 16.27942	  1.92544	  9.59749	  7.66177	 -0.62815	 19.45921	710.22900	 31.90	
 11.900	  0.000	 18.03226	 16.34681	  1.84357	  8.56105	  8.66099	 -0.62245	 19.45605	710.23199	 31.90	
 11.899	 -8.217	 18.03104	 16.28034	  1.88360	  7.54396	  9.70786	 -0.63847	 19.47184	710.22302	 31.90	
 11.890	-16.390	 18.02876	 16.04891	  2.04178	  6.58243	 10.72950	 -0.66298	 19.48398	710.19702	 31.90	
 11.889	-24.555	 17.99947	 15.63990	  2.33327	  5.68714	 11.68218	 -0.68515	 19.45003	710.15601	 31.80	
 11.909	-32.701	 18.00395	 15.15151	  2.70614	  4.83578	 12.64955	 -0.70258	 19.46901	710.28900	 31.80	
 11.902	-40.852	 18.00850	 14.50264	  3.22925	  4.10893	 13.51683	 -0.72443	 19.46893	710.16901	 31.80	
 11.894	-49.133	 18.03080	 13.73100	  3.88367	  3.48041	 14.31505	 -0.74712	 19.48471	710.13202	 31.80	
 11.897	-57.268	 18.02369	 12.87142	  4.61345	  2.97351	 14.94479	 -0.76937	 19.46370	710.14502	 31.70	
 11.903	-65.403	 18.03409	 11.94929	  5.41110	  2.55397	 15.49945	 -0.79515	 19.46868	710.12701	 31.70	
 11.893	-73.654	 18.05869	 10.96495	  6.32168	  2.27527	 15.89773	 -0.78935	 19.46608	710.21899	 31.70	
 11.892	-81.845	 18.07191	  9.93497	  7.30735	  2.11526	 16.12918	 -0.78815	 19.44967	710.23102	 31.70	
 11.900	-90.000	 18.10060	  8.91533	  8.32807	  2.07411	 16.23613	 -0.76214	 19.46108	710.18799	 31.70	
 11.892	-98.155	 18.13424	  7.95378	  9.34173	  2.15910	 16.18812	 -0.72040	 19.46846	710.12097	 31.70	
 11.893	-106.346	 18.15517	  6.98766	 10.37553	  2.35689	 15.97435	 -0.66346	 19.45244	710.14203	 31.70	
 11.903	-114.597	 18.19429	  6.10518	 11.37634	  2.67729	 15.64774	 -0.62847	 19.48182	710.11401	 31.80	
 11.897	-122.732	 18.22174	  5.29053	 12.33526	  3.12042	 15.13996	 -0.59130	 19.47886	710.10999	 31.70	
 11.894	-130.867	 18.28352	  4.55781	 13.23987	  3.66973	 14.53439	 -0.57919	 19.51086	710.13397	 31.70	
 11.902	-139.148	 18.29222	  3.92572	 14.02380	  4.33230	 13.76152	 -0.57500	 19.49181	710.08002	 31.70	
 11.909	-147.299	 18.31949	  3.40499	 14.70437	  5.10093	 12.91603	 -0.58471	 19.50149	710.03998	 31.70	
 11.889	-155.445	 18.32400	  3.01660	 15.20627	  5.94667	 11.97324	 -0.59829	 19.47145	710.03998	 31.70	
 11.890	-163.610	 18.34723	  2.74430	 15.59754	  6.87035	 10.98923	 -0.61125	 19.46763	710.16901	 31.70	
 11.899	-171.783	 18.38061	  2.57327	 15.85513	  7.83175	 10.00970	 -0.61460	 19.48810	710.11902	 31.70	
 11.900	180.000	 18.41088	  2.53780	 15.95221	  8.86140	  8.98082	 -0.60025	 19.49205	710.12701	 31.70	
 13.600	180.000	 17.95946	  1.33560	 16.62874	  8.48866	  8.60462	 -0.73937	 19.48345	710.09497	 31.60	
 13.608	-172.853	 17.91985	  1.36701	 16.54912	  7.47417	  9.60373	 -0.75072	 19.46827	710.07202	 31.60	
 13.611	-165.583	 17.91278	  1.50434	 16.33963	  6.48868	 10.63817	 -0.75654	 19.47771	710.20502	 31.60	
 13.601	-158.353	 17.89511	  1.76329	 15.97626	  5.57092	 11.63574	 -0.74769	 19.47634	710.08600	 31.60	
 13.609	-151.210	 17.89001	  2.09942	 15.51479	  4.70753	 12.61117	 -0.72914	 19.49900	710.09198	 31.60	
 13.611	-143.999	 17.85042	  2.53525	 14.89862	  3.89151	 13.51862	 -0.71625	 19.49246	710.07599	 31.60	
 13.601	-136.825	 17.84101	  3.06856	 14.21254	  3.19878	 14.33561	 -0.70151	 19.51350	710.16901	 31.60	
 13.596	-129.640	 17.80949	  3.71625	 13.38828	  2.57814	 15.05268	 -0.70002	 19.49838	710.04602	 31.50	
 13.611	-122.431	 17.75620	  4.42867	 12.48357	  2.02558	 15.66596	 -0.71327	 19.47938	710.13501	 31.50	
 13.604	-115.211	 17.71000	  5.23621	 11.51229	  1.59112	 16.16437	 -0.73459	 19.46264	710.10199	 31.40	
 13.595	-108.042	 17.70756	  6.10569	 10.54276	  1.27471	 16.54804	 -0.77442	 19.48458	710.10303	 31.40	
 13.607	-100.793	 17.66935	  7.04279	  9.48978	  1.02015	 16.79857	 -0.80976	 19.48526	710.11102	 31.50	
 13.601	-93.617	 17.62590	  8.01478	  8.45797	  0.92054	 16.88545	 -0.84749	 19.45772	710.18103	 31.50	
 13.601	-86.383	 17.60932	  9.03458	  7.41680	  0.88549	 16.88984	 -0.86644	 19.46908	710.11798	 31.50	
 13.607	-79.207	 17.60263	 10.05001	  6.44258	  0.98778	 16.73363	 -0.86419	 19.49086	710.06702	 31.50	
 13.595	-71.958	 17.57228	 11.05404	  5.50320	  1.16917	 16.43839	 -0.87727	 19.47568	710.12701	 31.50	
 13.604	-64.789	 17.57736	 12.04060	  4.62066	  1.44976	 16.05218	 -0.87650	 19.51215	710.11603	 31.50	
 13.611	-57.569	 17.54210	 12.97023	  3.78371	  1.84328	 15.48920	 -0.87578	 19.49308	710.12402	 31.50	
 13.596	-50.360	 17.54628	 13.85839	  3.06289	  2.36505	 14.81877	 -0.85943	 19.49824	710.13202	 31.50	
 13.601	-43.175	 17.55504	 14.65446	  2.42181	  2.96078	 14.09472	 -0.84649	 19.51074	710.12701	 31.40	
 13.611	-36.001	 17.55378	 15.36052	  1.87506	  3.65379	 13.25499	 -0.84185	 19.51713	710.11401	 31.40	
 13.609	-28.790	 17.53302	 15.94409	  1.43720	  4.41459	 12.31541	 -0.82621	 19.50606	710.09497	 31.40	
 13.601	-21.647	 17.51790	 16.36753	  1.15216	  5.26716	 11.33131	 -0.82591	 19.47433	710.10699	 31.40	
 13.611	-14.417	 17.55331	 16.75609	  0.90126	  6.19852	 10.33145	 -0.81433	 19.51337	710.09100	 31.40	
 13.608	 -7.147	 17.52619	 16.93970	  0.75994	  7.15644	  9.29163	 -0.80358	 19.48447	710.09198	 31.40	
 13.600	  0.000	 17.55066	 17.01259	  0.73002	  8.16055	  8.27539	 -0.78877	 19.48683	710.08600	 31.40	
 13.608	  7.147	 17.56905	 16.96540	  0.78553	  9.16646	  7.28678	 -0.80025	 19.49056	710.13702	 31.30	
 13.611	 14.417	 17.58156	 16.78910	  0.92997	 10.20151	  6.32404	 -0.80228	 19.49061	710.11798	 31.30	
 13.601	 21.647	 17.58372	 16.43273	  1.17360	 11.19481	  5.43700	 -0.79337	 19.47098	710.00800	 31.40	
 13.609	 28.790	 17.62898	 16.01709	  1.51398	 12.18279	  4.60765	 -0.75618	 19.48387	710.05603	 31.40	
 13.611	 36.001	 17.64272	 15.44535	  1.96569	 13.10320	  3.83116	 -0.72253	 19.47846	710.13702	 31.40	
 13.601	 43.175	 17.70158	 14.79306	  2.54535	 13.96433	  3.15810	 -0.69431	 19.50689	710.07501	 31.40	
 13.596	 50.360	 17.74378	 14.03381	  3.21217	 14.74528	  2.56650	 -0.68208	 19.52089	710.10999	 31.40	
 13.611	 57.569	 17.76058	 13.15538	  3.96777	 15.40408	  2.06803	 -0.67498	 19.50619	710.13702	 31.40	
 13.604	 64.789	 17.79685	 12.24717	  4.78858	 15.94014	  1.68305	 -0.68936	 19.51626	710.14502	 31.40	
 13.595	 71.958	 17.81075	 11.26128	  5.67864	 16.35539	  1.39367	 -0.71651	 19.49908	710.16498	 31.40	
 13.607	 79.207	 17.80946	 10.22164	  6.63038	 16.63435	  1.18912	 -0.75726	 19.47326	710.14001	 31.40	
 13.601	 86.383	 17.84697	  9.22571	  7.60871	 16.79212	  1.12119	 -0.79853	 19.47579	710.13202	 31.40	
 13.601	 93.617	 17.86098	  8.20868	  8.63400	 16.82749	  1.11396	 -0.81946	 19.47631	710.03802	 31.40	
 13.607	100.793	 17.92424	  7.25102	  9.67734	 16.75264	  1.23474	 -0.81768	 19.51582	710.10797	 31.40	
 13.595	108.042	 17.94698	  6.30492	 10.69830	 16.48023	  1.48502	 -0.81145	 19.50064	710.01898	 31.40	
 13.604	115.211	 17.93822	  5.40308	 11.67267	 16.07759	  1.79908	 -0.79125	 19.47552	710.15302	 31.40	
 13.611	122.431	 17.96180	  4.58153	 12.63446	 15.60229	  2.18645	 -0.76268	 19.48963	710.14203	 31.40	
 13.596	129.640	 17.95938	  3.84967	 13.49588	 14.96260	  2.72310	 -0.72506	 19.46973	710.08600	 31.40	
 13.601	136.825	 17.96649	  3.18745	 14.29960	 14.23326	  3.32993	 -0.70431	 19.47392	710.11798	 31.40	
 13.611	143.999	 17.95085	  2.62128	 14.98002	 13.39253	  4.02980	 -0.69443	 19.44907	710.14001	 31.50	
 13.609	151.210	 17.95899	  2.17667	 15.56503	 12.49427	  4.82549	 -0.69396	 19.45061	710.09497	 31.50	
 13.601	158.353	 17.99171	  1.82168	 16.04813	 11.56627	  5.68351	 -0.70246	 19.48115	710.11902	 31.50	
 13.611	165.583	 17.98414	  1.54576	 16.38961	 10.55682	  6.60431	 -0.71239	 19.48119	710.16699	 31.50	
 13.608	172.853	 17.96144	  1.39653	 16.56822	  9.51789	  7.57151	 -0.72958	 19.47620	710.14801	 31.50	
 15.298	173.587	 17.46327	  0.22945	 17.18239	  9.09060	  7.19021	 -0.81850	 19.47253	710.11603	 31.50	
 15.291	167.167	 17.48499	  0.37491	 17.00557	 10.12581	  6.23269	 -0.80953	 19.47178	710.11401	 31.50	
 15.307	160.676	 17.49865	  0.58341	 16.73130	 11.15870	  5.26995	 -0.81863	 19.49566	710.07202	 31.50	
 15.300	154.261	 17.55566	  0.89566	 16.37252	 12.17729	  4.41412	 -0.82532	 19.55489	710.10797	 31.50	
 15.288	147.854	 17.57545	  1.29278	 15.87166	 13.12399	  3.60406	 -0.82355	 19.58463	710.13202	 31.50	
 15.293	141.428	 17.52317	  1.78911	 15.18933	 13.97178	  2.85412	 -0.82568	 19.52446	710.08698	 31.40	
 15.299	134.985	 17.54711	  2.35852	 14.47696	 14.80523	  2.18381	 -0.84470	 19.56301	710.16498	 31.30	
 15.305	128.583	 17.50145	  2.99976	 13.65088	 15.48422	  1.59908	 -0.85827	 19.52619	710.14899	 31.20	
 15.309	122.142	 17.49014	  3.74284	 12.74800	 16.09771	  1.10398	 -0.89052	 19.52288	709.98999	 31.20	
 15.304	115.711	 17.43040	  4.54217	 11.77369	 16.56255	  0.69382	 -0.91105	 19.48056	710.09198	 31.20	
 15.297	109.291	 17.43910	  5.40597	 10.80821	 16.97182	  0.37964	 -0.93308	 19.51127	710.08301	 31.20	
 15.293	102.897	 17.41817	  6.32990	  9.79300	 17.26373	  0.13656	 -0.93653	 19.51762	710.02100	 31.20	
 15.293	 96.458	 17.39840	  7.30608	  8.75331	 17.41475	  0.00640	 -0.94048	 19.50776	710.06403	 31.20	
 15.300	 90.000	 17.39092	  8.31086	  7.74416	 17.47956	 -0.06925	 -0.93958	 19.53661	710.08698	 31.20	
 15.293	 83.542	 17.35194	  9.32629	  6.72604	 17.36395	 -0.02085	 -0.91940	 19.50973	710.05603	 31.20	
 15.293	 77.103	 17.32932	 10.34664	  5.75172	 17.16978	  0.10049	 -0.89400	 19.52700	710.02899	 31.10	
 15.297	 70.709	 17.31540	 11.34132	  4.83493	 16.85458	  0.29958	 -0.85177	 19.52782	710.00000	 31.10	
 15.304	 64.289	 17.27834	 12.29589	  3.96322	 16.41785	  0.59721	 -0.82917	 19.52595	710.09900	 31.10	
 15.309	 57.858	 17.26747	 13.24663	  3.15077	 15.89260	  0.96059	 -0.81251	 19.54792	710.09497	 31.10	
 15.305	 51.417	 17.20908	 14.09715	  2.41241	 15.21077	  1.43488	 -0.81583	 19.52018	710.09497	 31.00	
 15.299	 45.015	 17.17431	 14.88771	  1.74163	 14.44712	  2.02137	 -0.81898	 19.50573	710.10999	 31.00	
 15.293	 38.572	 17.13380	 15.58514	  1.17489	 13.61861	  2.64994	 -0.84566	 19.50001	710.10303	 31.00	
 15.288	 32.146	 17.09969	 16.22427	  0.68637	 12.69444	  3.37881	 -0.88989	 19.50186	710.16101	 31.10	
 15.300	 25.739	 17.09324	 16.73385	  0.31289	 11.77106	  4.15898	 -0.92323	 19.52344	710.06799	 31.10	
 15.307	 19.324	 17.04241	 17.10034	  0.02086	 10.78229	  4.96401	 -0.94613	 19.50223	710.10199	 31.10	
 15.291	 12.833	 17.04272	 17.40007	 -0.20445	  9.75996	  5.90838	 -0.93805	 19.51359	710.16699	 31.10	
 15.298	  6.413	 17.02398	 17.57678	 -0.34845	  8.73821	  6.85494	 -0.93688	 19.51889	710.05902	 31.10	
 15.300	  0.000	 16.98551	 17.60942	 -0.40792	  7.71457	  7.83337	 -0.91613	 19.49915	710.02100	 31.10	
 15.298	 -6.413	 16.99730	 17.53588	 -0.34024	  6.72238	  8.84966	 -0.92126	 19.51231	710.12903	 31.10	
 15.291	-12.833	 16.97645	 17.36820	 -0.25208	  5.75742	  9.85296	 -0.92410	 19.51469	710.03003	 31.10	
 15.307	-19.324	 16.94278	 17.03365	 -0.05738	  4.82001	 10.86115	 -0.92450	 19.48971	710.06403	 31.10	
 15.300	-25.739	 16.94725	 16.62320	  0.21791	  3.95786	 11.85329	 -0.92220	 19.49000	710.12598	 31.10	
 15.288	-32.146	 16.93883	 16.07953	  0.59821	  3.17108	 12.80356	 -0.92497	 19.47267	710.09399	 31.20	
 15.293	-38.572	 16.97024	 15.47639	  1.04718	  2.43319	 13.72517	 -0.91185	 19.50749	710.02899	 31.20	
 15.299	-45.015	 16.97717	 14.74296	  1.57905	  1.79308	 14.55015	 -0.91286	 19.50624	710.04303	 31.20	
 15.305	-51.417	 16.99276	 13.94731	  2.21456	  1.23007	 15.29801	 -0.90081	 19.52144	710.09998	 31.20	
 15.309	-57.858	 17.00805	 13.07466	  2.92985	  0.73217	 15.97100	 -0.89398	 19.53405	710.10303	 31.20	
 15.304	-64.289	 17.02144	 12.11442	  3.73735	  0.36375	 16.50311	 -0.88679	 19.52364	710.08398	 31.20	
 15.297	-70.709	 17.02795	 11.14571	  4.59836	  0.04263	 16.93552	 -0.86378	 19.51434	710.05402	 31.10	
 15.293	-77.103	 17.05982	 10.14699	  5.51502	 -0.11618	 17.22621	 -0.87794	 19.49504	710.09198	 31.10	
 15.293	-83.542	 17.05228	  9.11683	  6.46942	 -0.24757	 17.41039	 -0.85929	 19.47760	710.09900	 31.10	
 15.300	-90.000	 17.07907	  8.10325	  7.49450	 -0.26060	 17.48005	 -0.85702	 19.46384	710.08600	 31.20	
 15.293	-96.458	 17.12628	  7.12575	  8.51137	 -0.21989	 17.48530	 -0.86781	 19.49773	710.10699	 31.20	
 15.293	-102.897	 17.16019	  6.15568	  9.56441	 -0.05354	 17.32300	 -0.86712	 19.50392	710.10303	 31.20	
 15.297	-109.291	 17.18972	  5.25671	 10.57926	  0.18115	 17.06100	 -0.84579	 19.51103	710.02100	 31.20	
 15.304	-115.711	 17.22119	  4.40498	 11.58692	  0.50856	 16.66785	 -0.82151	 19.50964	710.00000	 31.20	
 15.309	-122.142	 17.23201	  3.58702	 12.55522	  0.92745	 16.14612	 -0.80432	 19.49357	710.00299	 31.20	
 15.305	-128.583	 17.29561	  2.88763	 13.46618	  1.44877	 15.56343	 -0.78448	 19.52153	709.87598	 31.20	
 15.299	-134.985	 17.32694	  2.25010	 14.30050	  2.03635	 14.85166	 -0.78927	 19.51787	709.98297	 31.20	
 15.293	-141.428	 17.31045	  1.69994	 15.00003	  2.71582	 14.02280	 -0.77443	 19.46877	710.01898	 31.20	
 15.288	-147.854	 17.34471	  1.21343	 15.67613	  3.45905	 13.15830	 -0.79466	 19.48658	709.99799	 31.20	
 15.300	-154.261	 17.35486	  0.82441	 16.20741	  4.26982	 12.21565	 -0.81506	 19.47171	709.94000	 31.30	
 15.307	-160.676	 17.37790	  0.52323	 16.64757	  5.14701	 11.23271	 -0.82854	 19.46983	710.07501	 31.30	
 15.291	-167.167	 17.38981	  0.31972	 16.94787	  6.08482	 10.21266	 -0.83392	 19.45642	709.99799	 31.30	
 15.298	-173.587	 17.42375	  0.19529	 17.16549	  7.07080	  9.19753	 -0.83442	 19.46906	710.00598	 31.40	
 15.300	180.000	 17.44228	  0.17588	 17.23042	  8.07994	  8.17370	 -0.82904	 19.47294	710.00800	 31.40	
 17.000	180.000	 16.88013	 -0.97660	 17.76867	  7.63821	  7.73124	 -0.83475	 19.47382	710.01099	 31.50	
 16.990	-174.179	 16.85875	 -0.93466	 17.68715	  6.63897	  8.74774	 -0.81929	 19.46207	709.99701	 31.50	
 17.009	-168.383	 16.84717	 -0.83452	 17.52772	  5.65902	  9.77499	 -0.81554	 19.47677	710.02899	 31.50	
 17.000	-162.596	 16.82101	 -0.66865	 17.26051	  4.73138	 10.76560	 -0.81179	 19.47670	710.02899	 31.50	
 16.990	-156.759	 16.78473	 -0.39107	 16.83586	  3.85222	 11.75008	 -0.80978	 19.45621	710.08002	 31.50	
 16.995	-150.919	 16.76533	 -0.06143	 16.35731	  3.00161	 12.72883	 -0.80452	 19.47385	710.04602	 31.50	
 16.988	-145.161	 16.73040	  0.34094	 15.76257	  2.24626	 13.60781	 -0.81047	 19.46670	710.04602	 31.50	
 17.014	-139.343	 16.71401	  0.82747	 15.07564	  1.53271	 14.46643	 -0.83006	 19.47812	709.97498	 31.50	
 17.007	-133.546	 16.67507	  1.38632	 14.30031	  0.90837	 15.22210	 -0.83789	 19.46329	709.96301	 31.50	
 17.001	-127.699	 16.64927	  2.02255	 13.45510	  0.35101	 15.91467	 -0.85137	 19.46759	710.01599	 31.50	
 17.006	-121.937	 16.62177	  2.71852	 12.55460	 -0.14104	 16.53015	 -0.85757	 19.47433	709.95099	 31.50	
 17.002	-116.134	 16.59475	  3.51637	 11.59275	 -0.54014	 17.02181	 -0.85972	 19.46977	710.04602	 31.50	
 17.001	-110.310	 16.56545	  4.32758	 10.60595	 -0.87215	 17.43170	 -0.86793	 19.47848	709.97302	 31.50	
 16.988	-104.517	 16.54728	  5.21595	  9.60766	 -1.11302	 17.72370	 -0.86078	 19.48351	709.95502	 31.50	
 17.008	-98.662	 16.47376	  6.15208	  8.51322	 -1.31231	 17.89469	 -0.83809	 19.44354	710.00500	 31.50	
 16.996	-92.909	 16.48769	  7.12327	  7.53874	 -1.39568	 18.00497	 -0.82442	 19.48362	709.97302	 31.50	
 16.996	-87.091	 16.46180	  8.10299	  6.54618	 -1.40508	 17.99076	 -0.80882	 19.48871	710.01599	 31.60	
 17.012	-81.253	 16.42255	  9.10977	  5.54651	 -1.37259	 17.86915	 -0.79709	 19.49349	710.03802	 31.60	
 16.988	-75.483	 16.41882	 10.11901	  4.64131	 -1.20000	 17.63110	 -0.80030	 19.49023	709.94800	 31.60	
 17.001	-69.690	 16.39590	 11.10514	  3.74274	 -0.98273	 17.29045	 -0.81810	 19.49453	709.91101	 31.50	
 17.002	-63.866	 16.39105	 12.07920	  2.90657	 -0.69404	 16.85252	 -0.83295	 19.49819	709.98297	 31.50	
 17.006	-58.063	 16.37302	 13.04500	  2.09117	 -0.34040	 16.32906	 -0.85749	 19.51739	710.02899	 31.50	
 17.001	-52.301	 16.35790	 13.91170	  1.41121	  0.13023	 15.67165	 -0.87951	 19.49340	709.96698	 31.50	
 17.007	-46.454	 16.32794	 14.73508	  0.77231	  0.64703	 14.94492	 -0.91018	 19.49145	709.95697	 31.50	
 17.014	-40.657	 16.35445	 15.50878	  0.23805	  1.26616	 14.14850	 -0.93963	 19.51648	709.99701	 31.40	
 16.988	-34.839	 16.32611	 16.14484	 -0.23851	  1.97068	 13.24227	 -0.95694	 19.47659	709.97803	 31.40	
 16.995	-29.081	 16.30540	 16.71658	 -0.65546	  2.68220	 12.31853	 -0.96589	 19.46769	709.96997	 31.40	
 16.990	-23.241	 16.34706	 17.21974	 -0.96157	  3.50347	 11.37099	 -0.98744	 19.50820	709.99200	 31.40	
 17.000	-17.404	 16.33079	 17.60537	 -1.20006	  4.36496	 10.37021	 -0.99688	 19.50573	709.94897	 31.40	
 17.009	-11.617	 16.34306	 17.88949	 -1.38277	  5.27453	  9.37935	 -1.00904	 19.51730	709.97803	 31.40	
 16.990	 -5.821	 16.33987	 18.02209	 -1.46127	  6.23093	  8.36090	 -1.00396	 19.49186	709.99701	 31.30	
 17.000	  0.000	 16.34733	 18.09578	 -1.50323	  7.23633	  7.32594	 -1.00449	 19.48608	710.00500	 31.30	
 16.990	  5.821	 16.37048	 18.03609	 -1.44824	  8.23690	  6.36476	 -1.01380	 19.47645	709.99701	 31.30	
 17.009	 11.617	 16.35814	 17.88585	 -1.35331	  9.22660	  5.40999	 -1.02732	 19.46317	709.92999	 31.30	
 17.000	 17.404	 16.41030	 17.66678	 -1.15328	 10.26556	  4.51364	 -1.03639	 19.50268	709.92499	 31.30	
 16.990	 23.241	 16.42848	 17.29955	 -0.89270	 11.23894	  3.69292	 -1.03335	 19.48770	709.98102	 31.40	
 16.995	 29.081	 16.46872	 16.85329	 -0.53895	 12.22570	  2.89437	 -1.01607	 19.50058	709.97302	 31.40	
 16.988	 34.839	 16.49675	 16.29090	 -0.12547	 13.15836	  2.15187	 -0.99696	 19.49820	709.93799	 31.40	
 17.014	 40.657	 16.52345	 15.65062	  0.35256	 14.04274	  1.45786	 -0.97240	 19.50349	709.96503	 31.40	
 17.007	 46.454	 16.57431	 14.92557	  0.91641	 14.86681	  0.85833	 -0.95548	 19.52659	709.91901	 31.40	
 17.001	 52.301	 16.61219	 14.11016	  1.57640	 15.61215	  0.34114	 -0.94387	 19.51953	710.07001	 31.40	
 17.006	 58.063	 16.64219	 13.25248	  2.29587	 16.24582	 -0.10893	 -0.94361	 19.52554	709.95398	 31.30	
 17.002	 63.866	 16.67891	 12.34125	  3.08309	 16.78132	 -0.46380	 -0.94844	 19.51744	710.03003	 31.30	
 17.001	 69.690	 16.73319	 11.37068	  3.95331	 17.25422	 -0.75251	 -0.95860	 19.54297	709.93201	 31.30	
 16.988	 75.483	 16.72064	 10.36337	  4.85168	 17.56653	 -0.98734	 -0.97734	 19.50083	709.97498	 31.20	
 17.012	 81.253	 16.75328	  9.37703	  5.77539	 17.82197	 -1.13068	 -0.99320	 19.51598	709.96503	 31.20	
 16.996	 87.091	 16.80496	  8.36914	  6.78186	 17.96805	 -1.18798	 -0.99702	 19.54371	710.03198	 31.20	
 16.996	 92.909	 16.79243	  7.35705	  7.76890	 17.95181	 -1.17159	 -0.98502	 19.49200	709.96503	 31.20	
 17.008	 98.662	 16.80581	  6.36470	  8.79034	 17.88364	 -1.10801	 -0.97807	 19.50172	709.99200	 31.20	
 16.988	104.517	 16.86122	  5.45683	  9.80457	 17.69563	 -0.91517	 -0.97519	 19.50924	709.95502	 31.20	
 17.001	110.310	 16.87302	  4.54006	 10.82194	 17.41222	 -0.70171	 -0.97443	 19.51678	710.00000	 31.20	
 17.002	116.134	 16.90248	  3.69076	 11.81116	 17.01410	 -0.38000	 -0.96408	 19.51875	709.96997	 31.20	
 17.006	121.937	 16.89059	  2.89562	 12.75060	 16.47307	  0.02220	 -0.95307	 19.48792	709.93500	 31.20	
 17.001	127.699	 16.91333	  2.17202	 13.63753	 15.87534	  0.49742	 -0.93556	 19.49393	709.90100	 31.20	
 17.007	133.546	 16.93568	  1.52658	 14.47987	 15.19017	  1.04382	 -0.93074	 19.50595	709.97498	 31.20	
 17.014	139.343	 16.90595	  0.92583	 15.22127	 14.38885	  1.65200	 -0.92266	 19.48210	710.01599	 31.20	
 16.988	145.161	 16.92521	  0.43017	 15.88661	 13.54665	  2.35981	 -0.91995	 19.47800	710.01599	 31.20	
 16.995	150.919	 16.93276	  0.02608	 16.45705	 12.65427	  3.11033	 -0.91177	 19.48044	710.00000	 31.20	
 16.990	156.759	 16.95090	 -0.32660	 16.95242	 11.69764	  3.96340	 -0.90108	 19.49831	709.96698	 31.20	
 17.000	162.596	 16.95713	 -0.60733	 17.35104	 10.71487	  4.83585	 -0.87499	 19.51722	710.01099	 31.30	
 17.009	168.383	 16.95560	 -0.80725	 17.62540	  9.71452	  5.76880	 -0.86200	 19.52830	709.99200	 31.20	
 16.990	174.179	 16.93164	 -0.91730	 17.75472	  8.67918	  6.73673	 -0.83849	 19.51168	709.95099	 31.20	
 18.709	174.675	 16.30882	 -2.03046	 18.23582	  8.18439	  6.27252	 -0.81195	 19.51657	709.98901	 31.20	
 18.703	169.441	 16.30770	 -1.95191	 18.11065	  9.19602	  5.29406	 -0.83758	 19.51283	709.93500	 31.20	
 18.691	164.085	 16.34406	 -1.76397	 17.87496	 10.22355	  4.37323	 -0.87250	 19.52142	709.99701	 31.20	
 18.706	158.818	 16.31494	 -1.52927	 17.51638	 11.18681	  3.48777	 -0.90425	 19.48936	709.99799	 31.10	
 18.695	153.537	 16.34455	 -1.22140	 17.11252	 12.17023	  2.65814	 -0.92278	 19.52261	710.02899	 31.10	
 18.704	148.255	 16.31995	 -0.87603	 16.58268	 13.08662	  1.86026	 -0.94488	 19.51649	710.00598	 31.10	
 18.698	142.952	 16.34238	 -0.40720	 15.97746	 13.98165	  1.16282	 -0.92596	 19.52501	710.01898	 31.00	
 18.699	137.625	 16.30320	  0.11382	 15.23895	 14.77206	  0.51655	 -0.93196	 19.48065	709.96997	 31.00	
 18.705	132.343	 16.28901	  0.67838	 14.47038	 15.53740	 -0.08682	 -0.93833	 19.48091	709.95099	 31.00	
 18.713	127.067	 16.26652	  1.30908	 13.63223	 16.21927	 -0.62089	 -0.92602	 19.48564	709.96301	 31.10	
 18.700	121.794	 16.24519	  2.01267	 12.73436	 16.79607	 -1.04844	 -0.93416	 19.47420	709.92401	 31.10	
 18.698	116.504	 16.24709	  2.80008	 11.80265	 17.31757	 -1.42554	 -0.92888	 19.49019	709.96698	 31.10	
 18.707	111.165	 16.24750	  3.62406	 10.83957	 17.76240	 -1.74894	 -0.91182	 19.51927	709.92999	 31.10	
 18.690	105.863	 16.21272	  4.49036	  9.83475	 18.04740	 -1.98074	 -0.90720	 19.49208	709.91101	 31.10	
 18.696	100.583	 16.18227	  5.39710	  8.82268	 18.25891	 -2.15645	 -0.91065	 19.49103	709.96198	 31.10	
 18.700	 95.309	 16.18439	  6.36783	  7.81235	 18.41784	 -2.28275	 -0.90826	 19.52274	709.94000	 31.10	
 18.700	 90.000	 16.12575	  7.34465	  6.79741	 18.40891	 -2.32719	 -0.94085	 19.48871	709.98102	 31.10	
 18.700	 84.691	 16.11130	  8.33781	  5.80858	 18.33578	 -2.28104	 -0.96622	 19.48304	709.99701	 31.20	
 18.696	 79.417	 16.09264	  9.33023	  4.88069	 18.18325	 -2.19245	 -0.98906	 19.50156	710.04498	 31.20	
 18.690	 74.137	 16.06063	 10.31489	  3.96842	 17.89939	 -2.02216	 -1.02119	 19.48354	709.99200	 31.20	
 18.707	 68.835	 16.03783	 11.29440	  3.09183	 17.56890	 -1.83011	 -1.02771	 19.50173	709.95898	 31.20	
 18.698	 63.496	 15.99869	 12.25821	  2.24477	 17.09626	 -1.53728	 -1.02057	 19.48196	710.03802	 31.20	
 18.700	 58.206	 15.98929	 13.19060	  1.48335	 16.57305	 -1.17582	 -1.02133	 19.50706	709.94800	 31.20	
 18.713	 52.933	 15.95202	 14.05725	  0.78723	 15.94340	 -0.74245	 -1.01653	 19.50649	709.87598	 31.20	
 18.705	 47.657	 15.90407	 14.88121	  0.14974	 15.20049	 -0.24381	 -1.02039	 19.49502	709.93500	 31.20	
 18.699	 42.375	 15.87085	 15.63195	 -0.40121	 14.40875	  0.32563	 -1.02704	 19.49329	709.94299	 31.20	
 18.698	 37.048	 15.86510	 16.33632	 -0.91219	 13.58622	  0.95021	 -1.04620	 19.52859	709.92700	 31.20	
 18.704	 31.745	 15.82772	 16.93902	 -1.36422	 12.63794	  1.67186	 -1.03791	 19.52106	709.96503	 31.20	
 18.695	 26.463	 15.78894	 17.43276	 -1.74239	 11.69090	  2.40921	 -1.04780	 19.51159	709.97900	 31.10	
 18.706	 21.182	 15.76212	 17.85114	 -2.05619	 10.70522	  3.20994	 -1.02755	 19.51077	709.93799	 31.10	
 18.691	 15.915	 15.73762	 18.15668	 -2.27403	  9.73706	  4.03780	 -1.03037	 19.50616	709.96301	 31.10	
 18.703	 10.559	 15.70183	 18.36341	 -2.44844	  8.71139	  4.93819	 -1.01049	 19.48627	709.85999	 31.10	
 18.709	  5.325	 15.68615	 18.52425	 -2.56946	  7.72907	  5.84757	 -1.00726	 19.51318	710.09399	 31.10	
 18.700	  0.000	 15.69992	 18.56851	 -2.59309	  6.73839	  6.84579	 -1.00458	 19.53150	709.88599	 31.10	
 18.709	 -5.325	 15.69385	 18.52454	 -2.58283	  5.75724	  7.84805	 -1.01117	 19.54609	709.94000	 31.10	
 18.703	-10.559	 15.69561	 18.39486	 -2.48787	  4.83115	  8.81313	 -1.00901	 19.55918	709.94299	 31.10	
 18.691	-15.915	 15.66651	 18.12403	 -2.33812	  3.90995	  9.82776	 -0.99084	 19.53267	709.94598	 31.00	
 18.706	-21.182	 15.67213	 17.78321	 -2.13444	  3.03305	 10.82954	 -0.97466	 19.54401	709.89502	 31.00	
 18.695	-26.463	 15.64771	 17.34938	 -1.88122	  2.22555	 11.77752	 -0.96025	 19.52998	709.94598	 31.00	
 18.704	-31.745	 15.64316	 16.82037	 -1.56388	  1.46216	 12.71299	 -0.91031	 19.51844	709.93201	 31.00	
 18.698	-37.048	 15.66137	 16.20786	 -1.12944	  0.77762	 13.62098	 -0.89160	 19.52396	709.96301	 31.00	
 18.699	-42.375	 15.67005	 15.49869	 -0.57723	  0.12559	 14.49402	 -0.85978	 19.51819	709.91400	 31.00	
 18.705	-47.657	 15.66996	 14.72564	 -0.02560	 -0.43563	 15.25508	 -0.81093	 19.50929	709.92700	 31.00	
 18.713	-52.933	 15.67009	 13.88417	  0.57858	 -0.96106	 15.97972	 -0.78108	 19.50385	709.92999	 31.00	
 18.700	-58.206	 15.70541	 12.99906	  1.26753	 -1.38091	 16.62421	 -0.74546	 19.51905	709.91602	 31.00	
 18.698	-63.496	 15.72779	 12.07810	  2.02035	 -1.73545	 17.17145	 -0.70621	 19.52578	709.95398	 30.90	
 18.707	-68.835	 15.71341	 11.08590	  2.83137	 -2.04713	 17.61981	 -0.69298	 19.50249	709.90100	 30.90	
 18.690	-74.137	 15.75712	 10.09517	  3.72061	 -2.25565	 17.97742	 -0.68340	 19.51426	709.89301	 30.90	
 18.696	-79.417	 15.78265	  9.12371	  4.60710	 -2.40407	 18.23053	 -0.67703	 19.51570	709.92499	 30.90	
 18.700	-84.691	 15.80949	  8.12264	  5.55731	 -2.50181	 18.41882	 -0.67786	 19.52915	709.87799	 30.90	
 18.700	-90.000	 15.81452	  7.12354	  6.52515	 -2.51617	 18.46124	 -0.69195	 19.50766	709.93799	 31.00	
 18.700	-95.309	 15.86309	  6.15298	  7.55485	 -2.46159	 18.44274	 -0.71767	 19.52683	709.92401	 31.00	
 18.696	-100.583	 15.86481	  5.20007	  8.55531	 -2.35539	 18.30872	 -0.76567	 19.49677	709.85199	 31.00	
 18.690	-105.863	 15.93133	  4.32430	  9.58179	 -2.15749	 18.11886	 -0.79474	 19.52868	709.86298	 31.00	
 18.707	-111.165	 15.92750	  3.45309	 10.58707	 -1.90510	 17.78365	 -0.80852	 19.50082	709.89801	 31.00	
 18.698	-116.504	 15.97143	  2.63613	 11.57838	 -1.58554	 17.38578	 -0.81695	 19.51015	709.94098	 31.00	
 18.700	-121.794	 15.98914	  1.87726	 12.53188	 -1.18674	 16.87358	 -0.83180	 19.50251	709.87598	 31.00	
 18.713	-127.067	 16.03347	  1.20146	 13.43888	 -0.72674	 16.29634	 -0.82321	 19.51177	709.98297	 31.00	
 18.705	-132.343	 16.05440	  0.57443	 14.28430	 -0.20214	 15.62114	 -0.80808	 19.50091	709.86200	 31.00	
 18.699	-137.625	 16.09984	  0.01871	 15.07831	  0.39036	 14.88647	 -0.79066	 19.51604	709.84601	 31.00	
 18.698	-142.952	 16.13989	 -0.48291	 15.82003	  1.05849	 14.06352	 -0.78171	 19.52790	709.85797	 31.00	
 18.704	-148.255	 16.17798	 -0.91493	 16.47215	  1.79286	 13.18836	 -0.75186	 19.54507	709.87799	 31.00	
 18.695	-153.537	 16.19830	 -1.27100	 17.00790	  2.58056	 12.23491	 -0.73535	 19.52431	709.93201	 31.00	
 18.706	-158.818	 16.18327	 -1.59008	 17.43966	  3.40653	 11.25105	 -0.71454	 19.50004	709.89203	 31.00	
 18.691	-164.085	 16.22556	 -1.79350	 17.79991	  4.30886	 10.26487	 -0.71802	 19.50389	709.80402	 31.00	
 18.703	-169.441	 16.23236	 -1.97373	 18.05994	  5.22021	  9.24866	 -0.71949	 19.50389	709.84399	 31.00	
 18.709	-174.675	 16.25753	 -2.06068	 18.22121	  6.18055	  8.23564	 -0.72663	 19.49981	709.92200	 31.00	
 18.700	180.000	 16.29693	 -2.06619	 18.27790	  7.17932	  7.25179	 -0.74540	 19.51690	709.93201	 31.00	
 20.400	180.000	 15.59732	 -3.13071	 18.65958	  6.67388	  6.71400	 -0.67017	 19.50131	709.87598	 31.00	
 20.401	-175.153	 15.57942	 -3.10696	 18.60270	  5.69267	  7.70750	 -0.65167	 19.50115	709.84601	 31.00	
 20.407	-170.264	 15.53709	 -3.04586	 18.45748	  4.74478	  8.67951	 -0.63767	 19.48426	709.84302	 31.00	
 20.410	-165.423	 15.55288	 -2.90470	 18.25155	  3.83239	  9.71018	 -0.63163	 19.51876	709.76300	 31.10	
 20.392	-160.496	 15.49834	 -2.71762	 17.92061	  2.94148	 10.69610	 -0.63892	 19.50162	709.89001	 31.10	
 20.401	-155.705	 15.49417	 -2.45716	 17.51610	  2.12060	 11.66462	 -0.64141	 19.51090	709.92401	 31.10	
 20.405	-150.835	 15.44393	 -2.14635	 17.00157	  1.32630	 12.59170	 -0.65475	 19.48499	709.81403	 31.10	
 20.397	-145.903	 15.42668	 -1.74577	 16.40017	  0.57736	 13.51502	 -0.69024	 19.49916	709.87097	 31.10	
 20.392	-141.062	 15.40575	 -1.32122	 15.76744	 -0.08489	 14.35944	 -0.73215	 19.51496	709.90802	 31.10	
 20.396	-136.227	 15.35435	 -0.81660	 14.99605	 -0.71051	 15.15105	 -0.76822	 19.47908	709.86603	 31.10	
 20.408	-131.372	 15.32923	 -0.27083	 14.21464	 -1.26857	 15.88760	 -0.79264	 19.49644	709.77399	 31.10	
 20.410	-126.511	 15.32678	  0.34129	 13.35683	 -1.76972	 16.57585	 -0.79252	 19.52571	709.84302	 31.10	
 20.400	-121.604	 15.29928	  1.01909	 12.46140	 -2.21717	 17.15750	 -0.80693	 19.52464	709.84302	 31.10	
 20.403	-116.741	 15.26056	  1.74490	 11.50757	 -2.59035	 17.65991	 -0.78518	 19.52731	709.87402	 31.10	
 20.413	-111.900	 15.22780	  2.53323	 10.52434	 -2.89871	 18.06466	 -0.78013	 19.52187	709.89203	 31.10	
 20.398	-107.004	 15.21633	  3.37034	  9.55301	 -3.14666	 18.39563	 -0.73519	 19.53472	709.85400	 31.00	
 20.394	-102.132	 15.19123	  4.24995	  8.52294	 -3.34860	 18.63434	 -0.70358	 19.53509	709.84399	 31.00	
 20.403	-97.332	 15.14990	  5.13562	  7.54086	 -3.48443	 18.75464	 -0.66599	 19.51559	709.87097	 31.00	
 20.392	-92.440	 15.13750	  6.08270	  6.53671	 -3.55459	 18.83870	 -0.63211	 19.53276	709.86200	 31.00	
 20.392	-87.560	 15.11480	  7.05640	  5.56738	 -3.57305	 18.83489	 -0.62834	 19.54491	709.87903	 31.00	
 20.403	-82.668	 15.07992	  8.05227	  4.57934	 -3.54537	 18.73997	 -0.61379	 19.54595	709.87903	 31.00	
 20.394	-77.868	 15.03287	  9.02954	  3.64938	 -3.44264	 18.52685	 -0.63550	 19.52208	709.83600	 30.90	
 20.398	-72.996	 15.00647	 10.00035	  2.79157	 -3.29022	 18.25389	 -0.62682	 19.52477	709.90900	 30.90	
 20.413	-68.100	 14.95658	 10.98483	  1.91370	 -3.06888	 17.86126	 -0.64486	 19.50126	709.84698	 31.00	
 20.403	-63.259	 14.93635	 11.92997	  1.13009	 -2.77741	 17.39848	 -0.65614	 19.50018	709.90601	 31.00	
 20.400	-58.396	 14.94835	 12.87733	  0.42964	 -2.41214	 16.87204	 -0.67748	 19.51755	709.90900	 31.00	
 20.410	-53.489	 14.93257	 13.78251	 -0.25224	 -2.00877	 16.24388	 -0.69611	 19.52256	709.96198	 31.00	
 20.408	-48.628	 14.91953	 14.60659	 -0.84221	 -1.51516	 15.52544	 -0.75019	 19.50643	709.90900	 31.00	
 20.396	-43.773	 14.93493	 15.37865	 -1.34618	 -0.96266	 14.77983	 -0.79798	 19.51446	709.93799	 31.00	
 20.392	-38.938	 14.92841	 16.09723	 -1.83609	 -0.38169	 13.97402	 -0.83174	 19.51754	709.81702	 31.00	
 20.397	-34.097	 14.91930	 16.75591	 -2.26589	  0.26739	 13.08467	 -0.86609	 19.52139	709.78497	 31.00	
 20.405	-29.165	 14.87345	 17.31440	 -2.71041	  0.97236	 12.12510	 -0.87702	 19.50167	709.77100	 31.00	
 20.401	-24.295	 14.90577	 17.81885	 -2.97179	  1.74285	 11.19593	 -0.92588	 19.53056	709.82703	 31.00	
 20.392	-19.504	 14.89713	 18.17076	 -3.16374	  2.54246	 10.24076	 -0.95502	 19.49503	709.87799	 31.00	
 20.410	-14.577	 14.93554	 18.50980	 -3.30874	  3.41955	  9.27463	 -0.96271	 19.52899	709.99701	 31.00	
 20.407	 -9.736	 14.95299	 18.74252	 -3.40972	  4.32565	  8.29460	 -0.97710	 19.54460	709.90302	 31.00	
 20.401	 -4.847	 14.96568	 18.87708	 -3.48531	  5.26689	  7.29527	 -0.96751	 19.54423	709.89301	 30.90	
 20.400	  0.000	 14.95868	 18.89105	 -3.47681	  6.22876	  6.31319	 -0.94988	 19.50970	709.85797	 30.90	
 20.401	  4.847	 14.99588	 18.88090	 -3.43851	  7.21495	  5.37685	 -0.94371	 19.52688	709.85199	 30.90	
 20.407	  9.736	 15.01331	 18.79638	 -3.38116	  8.20022	  4.45736	 -0.93738	 19.55107	709.83801	 30.90	
 20.410	 14.577	 15.03148	 18.59354	 -3.23182	  9.19723	  3.57805	 -0.95718	 19.54510	709.79498	 30.90	
 20.392	 19.504	 15.03227	 18.27778	 -3.02861	 10.15840	  2.73122	 -0.95651	 19.50718	709.87799	 30.90	
 20.401	 24.295	 15.04657	 17.90787	 -2.81658	 11.12453	  1.91973	 -0.98175	 19.51711	709.92401	 30.90	
 20.405	 29.165	 15.06351	 17.44634	 -2.53115	 12.05581	  1.17196	 -1.00196	 19.50974	709.89203	 30.90	
 20.397	 34.097	 15.11043	 16.90354	 -2.13223	 13.00457	  0.46184	 -1.04733	 19.52070	709.90100	 30.90	
 20.392	 38.938	 15.13392	 16.26539	 -1.68410	 13.87162	 -0.17647	 -1.05705	 19.49986	709.94800	 30.90	
 20.396	 43.773	 15.15291	 15.56140	 -1.18536	 14.68596	 -0.76945	 -1.08009	 19.48821	709.94897	 30.90	
 20.408	 48.628	 15.19417	 14.80892	 -0.63552	 15.47831	 -1.29720	 -1.07522	 19.50566	709.94098	 30.90	
 20.410	 53.489	 15.23108	 13.98769	 -0.02153	 16.17609	 -1.76163	 -1.08049	 19.50210	709.89203	 31.00	
 20.400	 58.396	 15.27226	 13.09919	  0.66594	 16.82355	 -2.18005	 -1.08532	 19.50305	709.87903	 31.00	
 20.403	 63.259	 15.29198	 12.18413	  1.39385	 17.37350	 -2.55023	 -1.07971	 19.50705	709.90802	 31.00	
 20.413	 68.100	 15.32441	 11.24670	  2.18568	 17.82512	 -2.82918	 -1.06751	 19.50756	709.85797	 31.00	
 20.398	 72.996	 15.35218	 10.23987	  3.06086	 18.19646	 -3.05841	 -1.03088	 19.49934	709.83002	 31.00	
 20.394	 77.868	 15.37901	  9.27682	  3.93161	 18.48127	 -3.22359	 -0.98754	 19.50303	709.89203	 31.00	
 20.403	 82.668	 15.40351	  8.32334	  4.82446	 18.66174	 -3.32202	 -0.92506	 19.49636	709.81201	 31.00	
 20.392	 87.560	 15.44186	  7.32575	  5.79687	 18.77636	 -3.36871	 -0.86668	 19.50690	709.85400	 31.00	
 20.392	 92.440	 15.47657	  6.36304	  6.76792	 18.79720	 -3.34936	 -0.82118	 19.50542	709.85999	 31.00	
 20.403	 97.332	 15.49168	  5.38587	  7.77426	 18.74570	 -3.30151	 -0.80350	 19.51456	709.85498	 31.00	
 20.394	102.132	 15.52516	  4.48238	  8.77488	 18.61663	 -3.19252	 -0.80553	 19.53409	709.85101	 31.00	
 20.398	107.004	 15.55462	  3.58732	  9.77263	 18.39044	 -3.00351	 -0.81217	 19.54037	709.83301	 30.90	
 20.413	111.900	 15.58569	  2.75027	 10.76893	 18.07505	 -2.76133	 -0.83034	 19.54673	709.80902	 30.90	
 20.403	116.741	 15.59920	  1.93760	 11.74325	 17.63445	 -2.44391	 -0.84792	 19.53466	709.82202	 30.90	
 20.400	121.604	 15.62856	  1.19247	 12.68858	 17.14770	 -2.08319	 -0.87787	 19.54768	709.79602	 30.90	
 20.410	126.511	 15.62728	  0.49749	 13.57336	 16.54396	 -1.65139	 -0.90152	 19.53095	709.82202	 30.90	
 20.408	131.372	 15.61773	 -0.13253	 14.40588	 15.85691	 -1.16007	 -0.90949	 19.50297	709.83002	 30.90	
 20.396	136.227	 15.65232	 -0.71170	 15.21475	 15.13694	 -0.60439	 -0.90627	 19.52357	709.79797	 30.90	
 20.392	141.062	 15.66666	 -1.20697	 15.93041	 14.34953	 -0.01037	 -0.90631	 19.53789	709.84302	 30.90	
 20.397	145.903	 15.67596	 -1.65756	 16.58295	 13.50315	  0.65198	 -0.89084	 19.54397	709.87402	 30.90	
 20.405	150.835	 15.67101	 -2.07008	 17.15514	 12.57386	  1.38126	 -0.87306	 19.52912	709.90100	 30.80	
 20.401	155.705	 15.68699	 -2.39147	 17.65429	 11.65400	  2.17404	 -0.85608	 19.54463	709.80902	 30.80	
 20.392	160.496	 15.63915	 -2.63668	 17.97225	 10.66010	  2.97842	 -0.82592	 19.47659	709.77899	 30.80	
 20.410	165.423	 15.64912	 -2.84848	 18.30461	  9.67118	  3.87080	 -0.80172	 19.50530	709.87097	 30.80	
 20.407	170.264	 15.65038	 -2.98787	 18.51631	  8.67205	  4.81103	 -0.74151	 19.50331	709.85498	 30.90	
 20.401	175.153	 15.62441	 -3.09934	 18.64745	  7.66809	  5.73953	 -0.70855	 19.51374	709.82703	 30.90	
  0.141	 45.000	 19.54906	 10.41003	  9.68020	 10.08127	 10.07952	  0.14756	 19.51779	709.82703	 30.90	
  4.001	128.691	 19.51867	  8.76486	 11.14437	 11.77688	  8.23080	  0.08103	 19.53387	709.86298	 31.00	
  4.002	 76.995	 19.47614	 10.73024	  9.06948	 12.19675	  7.75366	  0.06830	 19.50628	709.88202	 31.00	
  4.002	 25.892	 19.42440	 12.34954	  7.56204	 10.83981	  8.89532	  0.05996	 19.48606	709.90802	 31.00	
  4.002	-25.892	 19.41424	 12.32829	  7.52942	  8.75504	 10.98323	  0.02303	 19.49189	709.85498	 31.00	
  4.002	-76.995	 19.43094	 10.66244	  9.02288	  7.58848	 12.33250	 -0.00607	 19.49649	709.94000	 31.00	
  4.001	-128.691	 19.49841	  8.72032	 11.11528	  8.08476	 11.91631	  0.04913	 19.54596	709.88702	 31.00	
  4.000	180.000	 19.53874	  7.92300	 12.04788	  9.91189	 10.08107	  0.06555	 19.55700	709.84399	 31.00	
  8.000	180.000	 19.21208	  5.27109	 14.21912	  9.54169	  9.65247	 -0.20632	 19.58034	709.80603	 31.00	
  7.991	-152.370	 19.17414	  5.71642	 13.58609	  7.33932	 11.92006	 -0.20358	 19.56543	709.84601	 30.90	
  7.997	-124.550	 19.11308	  7.07706	 11.93381	  5.65830	 13.72732	 -0.24699	 19.56264	709.84601	 30.80	
  8.006	-96.837	 19.05865	  9.13115	  9.67773	  4.84718	 14.57003	 -0.32717	 19.56451	709.76898	 30.70	
  7.988	-69.228	 19.00372	 11.42824	  7.44686	  5.05801	 14.18994	 -0.37912	 19.55979	709.77301	 30.70	
  7.997	-41.563	 18.98949	 13.39913	  5.63668	  6.24912	 12.76322	 -0.33944	 19.56307	709.85199	 30.70	
  8.008	-13.821	 18.96765	 14.54059	  4.65544	  8.18484	 10.60173	 -0.27659	 19.53477	709.85498	 30.70	
  8.008	 13.821	 19.00129	 14.57941	  4.68079	 10.48647	  8.31280	 -0.22858	 19.54752	709.85999	 30.60	
  7.997	 41.563	 19.03478	 13.45742	  5.68688	 12.64007	  6.36311	 -0.16729	 19.53462	709.93201	 30.60	
  7.988	 69.228	 19.09448	 11.51417	  7.52888	 14.05726	  5.24404	 -0.18055	 19.53946	709.89801	 30.60	
  8.006	 96.837	 19.13747	  9.23333	  9.76709	 14.40458	  5.06893	 -0.20935	 19.52892	709.94800	 30.60	
  7.997	124.550	 19.19567	  7.18083	 12.00362	 13.58570	  5.85656	 -0.19284	 19.54068	709.88702	 30.70	
  7.991	152.370	 19.19506	  5.77240	 13.61044	 11.78373	  7.47099	 -0.17859	 19.53034	709.87097	 30.70	
 12.009	161.059	 18.46187	  2.80333	 15.65057	 11.25889	  6.67496	 -0.53782	 19.55016	709.82501	 30.70	
 12.013	142.081	 18.44166	  3.74119	 14.45585	 13.43048	  4.68429	 -0.53551	 19.53279	709.79498	 30.70	
 12.006	123.113	 18.42733	  5.32610	 12.58693	 15.11391	  3.24102	 -0.58024	 19.54108	709.87903	 30.70	
 12.007	104.200	 18.37091	  7.34941	 10.31524	 16.04637	  2.42812	 -0.63123	 19.51571	709.89502	 30.70	
 11.989	 85.301	 18.30312	  9.67609	  7.91155	 16.17607	  2.24280	 -0.59695	 19.49291	709.89203	 30.70	
 12.013	 66.294	 18.26824	 12.01685	  5.69726	 15.54311	  2.64973	 -0.52840	 19.52690	709.90601	 30.70	
 12.012	 47.388	 18.17898	 14.07957	  3.81551	 14.08672	  3.73866	 -0.51791	 19.50276	709.96301	 30.80	
 11.990	 28.440	 18.11868	 15.55829	  2.55554	 12.09668	  5.37828	 -0.57771	 19.50389	709.90802	 30.80	
 11.991	  9.464	 18.06662	 16.34349	  1.88587	  9.75455	  7.49379	 -0.61987	 19.50389	709.87402	 30.80	
 11.991	 -9.464	 18.03382	 16.31579	  1.85573	  7.38077	  9.84857	 -0.63008	 19.49693	709.89203	 30.80	
 11.990	-28.440	 18.03095	 15.49951	  2.45370	  5.25788	 12.17591	 -0.67301	 19.50768	709.89801	 30.80	
 12.012	-47.388	 18.04627	 13.97658	  3.68427	  3.54775	 14.21642	 -0.71894	 19.53414	709.80603	 30.90	
 12.013	-66.294	 18.09074	 11.90644	  5.48768	  2.43787	 15.65999	 -0.76823	 19.55209	709.80298	 30.90	
 11.989	-85.301	 18.11391	  9.53362	  7.72776	  2.01870	 16.27119	 -0.75074	 19.50884	709.71698	 30.90	
 12.007	-104.200	 18.16100	  7.20925	 10.12455	  2.21295	 16.12878	 -0.65958	 19.50991	709.84698	 30.90	
 12.006	-123.113	 18.25224	  5.22624	 12.41133	  3.09262	 15.17253	 -0.57025	 19.51888	709.86603	 30.90	
 12.013	-142.081	 18.28897	  3.68864	 14.29210	  4.51948	 13.52240	 -0.55618	 19.48960	709.83002	 30.90	
 12.009	-161.059	 18.33990	  2.74530	 15.55878	  6.54067	 11.31969	 -0.59106	 19.49535	709.81201	 30.90	
 16.000	180.000	 17.25940	 -0.29763	 17.51232	  7.91476	  8.00322	 -0.79741	 19.50780	709.80103	 30.90	
 15.990	-165.604	 17.21179	 -0.10194	 17.15811	  5.61723	 10.38815	 -0.79634	 19.50686	709.72699	 31.00	
 16.002	-151.165	 17.18831	  0.55352	 16.21641	  3.54135	 12.73216	 -0.77091	 19.55348	709.78101	 31.00	
 16.002	-136.836	 17.13027	  1.68211	 14.66381	  1.82840	 14.74429	 -0.76874	 19.54630	709.79498	 31.00	
 15.995	-122.439	 17.05105	  3.21162	 12.67025	  0.53592	 16.30475	 -0.77958	 19.53452	709.80402	 30.90	
 15.993	-107.966	 16.98098	  5.13013	 10.36749	 -0.33479	 17.34452	 -0.81923	 19.54299	709.78699	 30.90	
 16.005	-93.629	 16.92296	  7.34039	  7.95676	 -0.72734	 17.76390	 -0.81256	 19.55419	709.87402	 30.90	
 15.992	-79.234	 16.83757	  9.69974	  5.59955	 -0.64269	 17.53241	 -0.80610	 19.51861	709.85797	 30.90	
 16.009	-64.774	 16.78198	 12.02138	  3.50119	 -0.11377	 16.70729	 -0.81416	 19.51729	709.82800	 30.90	
 15.997	-50.364	 16.72842	 14.13285	  1.73281	  0.89524	 15.28022	 -0.86796	 19.48281	709.85199	 30.90	
 15.997	-36.045	 16.74421	 15.88901	  0.47037	  2.36122	 13.41165	 -0.90270	 19.52097	709.84302	 30.90	
 16.000	-21.597	 16.70387	 17.10652	 -0.41873	  4.19545	 11.16405	 -0.92373	 19.49566	709.90100	 30.90	
 16.003	 -7.169	 16.73655	 17.76169	 -0.81589	  6.36779	  8.80359	 -0.92752	 19.51804	709.90302	 31.00	
 16.003	  7.169	 16.78157	 17.78915	 -0.79708	  8.71429	  6.48621	 -0.94223	 19.51509	709.91400	 31.00	
 16.000	 21.597	 16.79679	 17.18839	 -0.35464	 11.05461	  4.35401	 -0.95160	 19.49379	709.90601	 31.00	
 15.997	 36.045	 16.88955	 16.01322	  0.55163	 13.32106	  2.52784	 -0.88502	 19.51301	709.83301	 31.00	
 15.997	 50.364	 16.93126	 14.29902	  1.89872	 15.17741	  1.09801	 -0.83221	 19.47876	709.80103	 31.00	
 16.009	 64.774	 17.03017	 12.22167	  3.68213	 16.63265	  0.08528	 -0.84178	 19.51160	709.83301	 31.00	
 15.992	 79.234	 17.10615	  9.89819	  5.82280	 17.47915	 -0.45613	 -0.91221	 19.52102	709.75500	 31.00	
 16.005	 93.629	 17.16559	  7.54063	  8.15448	 17.68997	 -0.52155	 -0.94047	 19.52278	709.85797	 31.00	
 15.993	107.966	 17.21988	  5.33571	 10.52843	 17.26568	 -0.15593	 -0.92471	 19.51299	709.89203	 31.00	
 15.995	122.439	 17.27276	  3.35447	 12.83029	 16.23968	  0.68892	 -0.88580	 19.52245	709.91101	 31.00	
 16.002	136.836	 17.29002	  1.77569	 14.78880	 14.65792	  1.93470	 -0.84488	 19.52095	709.83600	 31.00	
 16.002	151.165	 17.30972	  0.64106	 16.28687	 12.63776	  3.64215	 -0.83356	 19.51252	709.87903	 31.00	
 15.990	165.604	 17.30534	 -0.04377	 17.22064	 10.32752	  5.70891	 -0.82070	 19.51662	709.84100	 31.00	
 20.003	168.362	 15.82619	 -2.69746	 18.37047	  9.15599	  4.60032	 -0.78166	 19.51405	709.89502	 30.90	
 20.008	156.764	 15.84160	 -2.22690	 17.66793	 11.48042	  2.52397	 -0.86063	 19.54184	709.81702	 30.90	
 20.000	145.147	 15.81951	 -1.37448	 16.42311	 13.61627	  0.75554	 -0.89739	 19.51310	709.91901	 30.90	
 19.995	133.545	 15.82314	 -0.18016	 14.78539	 15.52624	 -0.68906	 -0.91711	 19.53963	709.90002	 30.90	
 20.009	121.926	 15.77330	  1.33985	 12.76352	 17.03148	 -1.82289	 -0.88776	 19.52500	709.83801	 30.90	
 20.005	110.327	 15.72024	  3.17635	 10.51430	 18.07862	 -2.59888	 -0.84366	 19.51387	709.80603	 30.90	
 19.989	 98.733	 15.67155	  5.25795	  8.18054	 18.63382	 -3.02842	 -0.83018	 19.51365	709.83600	 30.90	
 19.999	 87.075	 15.59244	  7.51287	  5.84002	 18.68609	 -3.13298	 -0.89344	 19.49988	709.80298	 30.90	
 19.992	 75.457	 15.54502	  9.83335	  3.66787	 18.27767	 -2.89655	 -1.00430	 19.50707	709.87097	 31.00	
 20.009	 63.844	 15.47363	 12.10498	  1.68947	 17.36598	 -2.34019	 -1.06403	 19.50130	709.89301	 31.00	
 19.989	 52.269	 15.39501	 14.18056	  0.03885	 15.96407	 -1.41284	 -1.06607	 19.48104	709.88397	 31.00	
 19.999	 40.602	 15.33101	 15.99378	 -1.28385	 14.17968	 -0.17339	 -1.06365	 19.50846	709.82703	 31.00	
 20.004	 29.051	 15.23985	 17.36664	 -2.27128	 12.07530	  1.38395	 -1.02447	 19.47573	709.84698	 31.10	
 20.005	 17.433	 15.15461	 18.31421	 -2.96690	  9.78562	  3.22568	 -0.98133	 19.47939	709.89301	 31.10	
 20.006	  5.780	 15.15314	 18.76038	 -3.22425	  7.47664	  5.34203	 -0.95049	 19.48956	709.81201	 31.10	
 20.006	 -5.780	 15.10985	 18.76073	 -3.30142	  5.21227	  7.57352	 -0.97611	 19.50744	709.87402	 31.10	
 20.005	-17.433	 15.06869	 18.25580	 -3.05056	  3.07751	  9.85963	 -0.95576	 19.48998	709.92401	 31.10	
 20.004	-29.051	 15.08198	 17.29074	 -2.47429	  1.19943	 12.14056	 -0.88239	 19.51643	709.82501	 31.10	
 19.999	-40.602	 15.10195	 15.82775	 -1.44945	 -0.38048	 14.24566	 -0.84301	 19.50846	709.85199	 31.10	
 19.989	-52.269	 15.12233	 13.99340	 -0.16126	 -1.63152	 16.01787	 -0.71168	 19.50871	709.90601	 31.10	
 20.009	-63.844	 15.12323	 11.86552	  1.42999	 -2.55332	 17.37384	 -0.65749	 19.48606	709.87097	 31.10	
 19.992	-75.457	 15.18773	  9.60207	  3.37918	 -3.10363	 18.28645	 -0.62259	 19.49296	709.81403	 31.00	
 19.999	-87.075	 15.23637	  7.27280	  5.56259	 -3.31656	 18.68446	 -0.62479	 19.47742	709.80902	 31.10	
 19.989	-98.733	 15.31131	  5.03262	  7.89123	 -3.19725	 18.62425	 -0.69228	 19.49454	709.72198	 31.10	
 20.005	-110.327	 15.39955	  2.99396	 10.26251	 -2.75531	 18.12163	 -0.78198	 19.53065	709.73901	 31.10	
 20.009	-121.926	 15.45986	  1.19307	 12.51692	 -1.95395	 17.06388	 -0.79762	 19.50955	709.77399	 31.10	
 19.995	-133.545	 15.55293	 -0.27904	 14.56993	 -0.79003	 15.57065	 -0.78545	 19.52446	709.71503	 31.10	
 20.000	-145.147	 15.61078	 -1.43647	 16.27096	  0.69403	 13.67733	 -0.70922	 19.51925	709.78699	 31.10	
 20.008	-156.764	 15.63968	 -2.28481	 17.53055	  2.46956	 11.48590	 -0.64451	 19.48854	709.83301	 31.00	
 20.003	-168.362	 15.71302	 -2.75684	 18.31503	  4.54656	  9.15742	 -0.63388	 19.50194	709.83502	 31.10	
 20.000	180.000	 15.76692	 -2.87294	 18.57049	  6.79585	  6.82865	 -0.68013	 19.49549	709.81097	 31.10	
