FileType=PCF
NHL=14
Date=05/29/19	14:19:03
Facility=APL
Serial=16071-3
Customer=NASA
NP=6
Mach=0.550000
Calibration=1:1
CalPts=490
TstPts=95
PortNumbering=AP Standard
Units=Torr C m/s kg/m^3 deg mm 
Theta[deg]	Phi[deg]	P1[Torr]	P2[Torr]	P3[Torr]	P4[Torr]	P5[Torr]	P6[Torr]	Pt[Torr]	Ps[Abs,Torr]	Ts[C]	
  0.000	  0.000	160.83630	 73.19079	 77.81317	 75.83319	 75.64150	  6.63784	160.71356	701.34998	 42.80	
  1.691	128.401	160.85010	 68.14315	 82.42210	 81.52369	 69.25809	  6.53957	160.74731	701.41998	 42.80	
  1.692	 77.194	160.87738	 74.88985	 75.74780	 83.07690	 67.80986	  6.56566	160.76572	701.39001	 42.80	
  1.699	 26.182	160.87849	 80.27121	 70.51966	 79.14445	 72.05599	  6.50098	160.74278	701.28998	 42.80	
  1.699	-26.182	160.89142	 80.31548	 70.65321	 72.30476	 79.08047	  6.49344	160.77283	701.28998	 42.90	
  1.692	-77.194	160.85759	 74.78246	 75.99157	 68.23194	 83.35799	  6.43563	160.76323	701.33002	 42.90	
  1.691	-128.401	160.90762	 67.90887	 82.77749	 69.69254	 81.77397	  6.43668	160.81854	701.26001	 42.90	
  1.700	180.000	160.88376	 65.02699	 85.64301	 75.62317	 75.46937	  6.45719	160.80321	701.34003	 42.90	
  3.400	180.000	160.52565	 56.83060	 93.24423	 75.01376	 74.84943	  5.96051	160.80519	701.28003	 43.00	
  3.388	-152.325	160.58890	 58.62059	 91.38878	 68.03371	 82.29996	  6.00752	160.88190	701.33002	 43.00	
  3.397	-124.529	160.62157	 63.44426	 86.33765	 62.59132	 88.29583	  6.00942	160.88078	701.37000	 43.00	
  3.399	-96.763	160.68657	 70.67473	 79.19953	 60.11037	 91.57317	  6.01326	160.89813	701.34998	 43.00	
  3.394	-69.283	160.78261	 78.36930	 71.71917	 61.06114	 90.50293	  6.04535	160.90372	701.35999	 43.00	
  3.400	-41.398	160.88251	 84.79467	 65.72748	 65.17212	 85.64420	  6.03129	160.94817	701.27002	 43.00	
  3.401	-14.021	160.84143	 88.28237	 62.32275	 71.59622	 78.92402	  6.08826	160.83258	701.33002	 43.10	
  3.401	 14.021	160.92720	 88.42227	 62.17028	 79.16492	 71.22518	  6.15860	160.90926	701.33002	 43.10	
  3.400	 41.398	160.89316	 84.76037	 65.28992	 85.49490	 64.61011	  6.21413	160.88922	701.33002	 43.20	
  3.394	 69.283	160.86159	 78.36626	 71.27393	 89.66521	 60.41666	  6.29353	160.88240	701.21997	 43.20	
  3.399	 96.763	160.84181	 70.66782	 78.79198	 90.62419	 59.54729	  6.22688	160.90431	701.28998	 43.30	
  3.397	124.529	160.78807	 63.56883	 86.02490	 87.76104	 62.11826	  6.19318	160.93069	701.32001	 43.30	
  3.388	152.325	160.78372	 58.86002	 91.24200	 82.14432	 67.62922	  6.06997	160.99187	701.16998	 43.30	
  5.099	161.165	159.95247	 50.24729	 99.29273	 81.49557	 66.27836	  5.35677	160.97191	701.14001	 43.30	
  5.109	142.013	160.06209	 53.84092	 95.26239	 88.28606	 59.74869	  5.48837	160.98296	701.22998	 43.40	
  5.095	123.033	160.13380	 59.14272	 88.91063	 93.90508	 54.84575	  5.61766	160.95479	701.26001	 43.40	
  5.105	104.191	160.23129	 66.03131	 81.66015	 96.94566	 51.88401	  5.69599	160.95023	701.20001	 43.50	
  5.093	 85.207	160.27571	 73.90849	 73.66297	 97.50762	 51.28718	  5.72925	160.88597	701.22998	 43.50	
  5.104	 66.290	160.46587	 81.86624	 66.29770	 95.87577	 53.19275	  5.74641	161.02177	701.29999	 43.50	
  5.094	 47.331	160.46773	 88.45606	 60.38823	 91.49780	 57.30470	  5.67412	160.98454	701.21997	 43.50	
  5.089	 28.397	160.53040	 93.52063	 56.18850	 85.49372	 63.13033	  5.65543	161.01071	701.19000	 43.50	
  5.096	  9.576	160.47845	 96.22484	 53.99940	 78.43089	 70.30302	  5.56683	160.98073	701.19000	 43.60	
  5.096	 -9.576	160.50529	 96.04604	 54.23081	 70.78983	 78.36044	  5.54450	161.00278	701.22998	 43.60	
  5.089	-28.397	160.42088	 93.27810	 56.69439	 63.73480	 85.70561	  5.49208	160.99590	701.28003	 43.70	
  5.094	-47.331	160.34427	 88.18427	 61.07851	 57.69837	 92.89452	  5.43237	161.01474	701.22998	 43.70	
  5.104	-66.290	160.24857	 81.58408	 67.04154	 53.46377	 97.57468	  5.43892	161.02876	701.25000	 43.70	
  5.093	-85.207	160.14832	 73.93111	 74.52055	 51.63343	 99.16634	  5.40767	161.04581	701.28998	 43.60	
  5.105	-104.191	160.00011	 65.68456	 82.44915	 52.25238	 98.62686	  5.37677	161.01611	701.15997	 43.60	
  5.095	-123.033	159.97672	 58.74267	 89.65787	 55.53331	 95.10190	  5.40093	161.05144	701.26001	 43.60	
  5.109	-142.013	159.94002	 53.43672	 95.71668	 60.36288	 88.84637	  5.39079	161.09697	701.20001	 43.60	
  5.099	-161.165	159.97858	 50.12518	 99.61005	 66.93311	 81.72034	  5.36351	161.10168	701.27002	 43.70	
  5.100	180.000	159.99237	 48.93535	100.82545	 74.25866	 74.07193	  5.32986	161.09682	701.20001	 43.80	
  6.800	180.000	158.64101	 40.84409	107.62356	 73.03200	 72.66322	  4.73230	161.04649	701.15997	 43.90	
  6.796	-166.229	158.62004	 41.56358	106.82053	 65.84063	 80.17586	  4.82623	161.07588	701.15002	 44.00	
  6.808	-152.311	158.61815	 44.16565	104.00756	 59.03625	 87.41607	  4.86245	161.10016	701.27002	 44.00	
  6.795	-138.383	158.64954	 48.01257	 99.63733	 52.86593	 94.80553	  4.87902	161.12508	701.12000	 44.00	
  6.792	-124.591	158.77487	 53.16777	 93.54539	 47.46481	100.48619	  4.85649	161.19202	701.20001	 44.00	
  6.787	-110.754	158.88245	 59.25687	 86.73981	 44.08620	103.58782	  4.88867	161.20212	701.20001	 43.90	
  6.800	-96.985	158.91473	 66.47059	 79.47511	 42.33030	105.69522	  4.89949	161.15648	701.13000	 43.90	
  6.800	-83.015	159.06573	 74.85528	 71.27529	 42.39502	105.79335	  4.90885	161.19484	701.17999	 44.00	
  6.787	-69.246	159.21722	 82.18401	 64.45840	 44.07667	103.83637	  4.96779	161.19812	701.23999	 44.00	
  6.792	-55.409	159.37231	 89.01735	 58.32222	 47.33076	100.10871	  4.95411	161.22810	701.09998	 44.10	
  6.795	-41.617	159.43794	 95.07044	 53.14232	 52.48421	 95.68044	  4.94357	161.16699	701.14001	 44.20	
  6.808	-27.689	159.54164	 99.88332	 49.15536	 59.21754	 88.05041	  5.05849	161.17038	701.13000	 44.20	
  6.796	-13.771	159.65862	102.75416	 46.54474	 66.24759	 80.90077	  5.05864	161.20065	701.16998	 44.20	
  6.800	  0.000	159.71346	103.81992	 45.54038	 73.59908	 73.31120	  5.06017	161.22179	701.17999	 44.20	
  6.796	 13.771	159.77380	102.87742	 46.29836	 81.03243	 65.69933	  5.04657	161.24269	701.09998	 44.20	
  6.808	 27.689	159.74881	100.05318	 48.58838	 87.83977	 58.85901	  5.04541	161.24080	701.15002	 44.20	
  6.795	 41.617	159.68787	 95.41656	 52.43863	 94.13515	 52.96422	  5.04904	161.21260	701.15002	 44.10	
  6.792	 55.409	159.70659	 89.26837	 57.50612	 99.23155	 48.63638	  5.09823	161.25648	701.09003	 44.10	
  6.787	 69.246	159.61572	 82.44470	 63.62153	102.32114	 45.62380	  5.12303	161.22122	701.06000	 44.10	
  6.800	 83.015	159.53049	 74.86024	 70.34702	104.32751	 43.92522	  5.07765	161.22696	701.06000	 44.10	
  6.800	 96.985	159.40073	 66.67874	 78.55177	104.28551	 43.88848	  5.09226	161.22136	701.13000	 44.10	
  6.787	110.754	159.34267	 59.76805	 85.98061	102.30307	 45.53322	  5.07575	161.24188	701.14001	 44.10	
  6.792	124.591	159.24783	 53.65870	 93.00117	 98.92104	 48.32414	  5.08605	161.26903	701.07001	 44.10	
  6.795	138.383	159.19672	 48.54927	 99.20808	 93.58932	 52.75069	  4.99251	161.31529	701.07001	 44.20	
  6.808	152.311	159.07690	 44.31817	103.81550	 87.43597	 58.56361	  4.86733	161.30574	701.09003	 44.20	
  6.796	166.229	159.04620	 41.81435	106.74176	 80.48274	 65.41133	  4.78738	161.35103	701.10999	 44.20	
  8.491	168.704	157.25874	 33.67293	113.49274	 79.12904	 63.87710	  4.52211	161.34964	701.21002	 44.10	
  8.502	157.493	157.28464	 35.56692	111.05294	 86.28133	 56.64737	  4.58869	161.29472	701.10999	 44.10	
  8.494	146.194	157.44835	 39.23569	106.95184	 92.79247	 50.49727	  4.70113	161.32712	701.19000	 44.10	
  8.495	135.039	157.47565	 43.62687	101.80579	 99.04018	 45.53386	  4.75831	161.24091	701.12000	 44.10	
  8.487	123.723	157.65894	 49.12390	 95.41203	104.25146	 41.77995	  4.77529	161.31688	701.09998	 44.20	
  8.492	112.575	157.75697	 55.01622	 88.40218	108.21356	 38.71165	  4.70473	161.32150	700.97998	 44.20	
  8.510	101.220	157.86845	 61.59933	 80.68258	110.57843	 36.83643	  4.61689	161.30945	701.04999	 44.20	
  8.500	 90.000	158.00436	 69.25060	 72.70477	111.24935	 36.56441	  4.62733	161.31395	701.15997	 44.20	
  8.510	 78.780	158.15047	 77.62773	 65.43570	110.57590	 37.28425	  4.65296	161.36327	701.09003	 44.30	
  8.492	 67.425	158.29375	 85.21723	 58.60012	108.15292	 39.39838	  4.70794	161.41951	701.04999	 44.30	
  8.487	 56.277	158.33798	 92.07139	 52.62739	104.19662	 42.55642	  4.68780	161.36714	700.95001	 44.30	
  8.495	 44.961	158.34323	 98.62106	 47.30499	 99.38119	 46.47373	  4.71566	161.35249	701.06000	 44.40	
  8.494	 33.806	158.35371	103.62855	 43.01070	 93.15211	 51.38257	  4.75701	161.30000	701.10999	 44.50	
  8.502	 22.507	158.39793	107.53960	 39.73680	 86.69568	 57.53934	  4.79918	161.35919	701.03003	 44.50	
  8.491	 11.296	158.42285	109.84335	 38.00112	 79.66588	 64.50757	  4.82479	161.37582	701.13000	 44.40	
  8.500	  0.000	158.32567	110.69482	 37.39252	 72.10098	 71.98399	  4.82269	161.34343	701.08002	 44.40	
  8.491	-11.296	158.26959	109.82195	 38.04647	 64.46494	 79.80955	  4.87738	161.33401	701.13000	 44.40	
  8.502	-22.507	158.17920	107.36382	 40.06520	 56.51438	 87.30347	  4.90032	161.36560	701.15002	 44.50	
  8.494	-33.806	158.10796	103.32371	 43.68903	 49.63087	 94.98893	  4.87311	161.36206	701.06000	 44.50	
  8.495	-44.961	158.00085	 98.02767	 48.12881	 44.24740	100.80745	  4.81787	161.36601	701.14001	 44.40	
  8.487	-56.277	157.85738	 91.62217	 53.38039	 39.85838	106.01296	  4.81011	161.37917	701.15002	 44.40	
  8.492	-67.425	157.72890	 84.75285	 59.58074	 36.59125	110.02880	  4.77215	161.38228	701.10999	 44.40	
  8.510	-78.780	157.58562	 77.33137	 66.44063	 34.53801	112.68814	  4.73307	161.40306	701.12000	 44.40	
  8.500	-90.000	157.49095	 68.94550	 74.05501	 34.07397	113.42525	  4.69544	161.42859	701.09003	 44.40	
  8.510	-101.220	157.36194	 61.31621	 81.94461	 34.60059	112.48647	  4.68705	161.41479	701.20001	 44.30	
  8.492	-112.575	157.27666	 54.54082	 89.44889	 36.61161	109.59384	  4.65894	161.43175	701.08002	 44.30	
  8.487	-123.723	157.23994	 48.61031	 96.35262	 39.93665	105.25323	  4.64839	161.46211	701.12000	 44.30	
  8.495	-135.039	157.16792	 43.16797	102.80029	 44.18763	100.73016	  4.64032	161.47536	701.09998	 44.30	
  8.494	-146.194	157.16980	 38.67080	107.76410	 49.50537	 93.53044	  4.65523	161.48682	701.10999	 44.40	
  8.502	-157.493	157.11871	 35.32354	111.51748	 56.73395	 86.26394	  4.67176	161.44019	701.19000	 44.40	
  8.491	-168.704	157.15652	 33.47257	113.76080	 64.37366	 78.80206	  4.59596	161.42528	701.16998	 44.40	
  8.500	180.000	157.30132	 32.94142	114.54588	 71.84355	 71.17985	  4.54865	161.48511	701.19000	 44.40	
 10.200	180.000	154.96227	 24.77184	120.71853	 69.91605	 69.09960	  4.60655	161.45445	701.09003	 44.50	
 10.191	-170.497	154.88295	 25.01497	120.17908	 61.48864	 76.93644	  4.66663	161.47948	701.21997	 44.50	
 10.210	-161.034	154.74263	 26.53154	118.20779	 53.76932	 84.53027	  4.71956	161.43317	701.13000	 44.60	
 10.194	-151.526	154.76875	 29.24152	114.94402	 47.23620	 92.00420	  4.80893	161.46768	701.06000	 44.60	
 10.190	-142.105	154.74344	 32.83799	110.51728	 41.34162	 99.69785	  4.75677	161.46104	701.04999	 44.60	
 10.215	-132.646	154.82794	 37.65511	105.06672	 36.33907	105.12698	  4.73058	161.49225	701.07001	 44.60	
 10.203	-123.092	154.86461	 43.35713	 98.51150	 31.94597	110.82587	  4.76883	161.46687	701.19000	 44.60	
 10.192	-113.678	155.00989	 49.61328	 91.46720	 28.66210	115.15557	  4.76154	161.51804	701.13000	 44.60	
 10.208	-104.249	155.15152	 56.48051	 84.09251	 26.41131	118.30539	  4.79392	161.54179	701.08002	 44.60	
 10.210	-94.801	155.20464	 63.26448	 76.25762	 25.40575	119.84910	  4.80310	161.51196	701.13000	 44.70	
 10.210	-85.199	155.31012	 71.32537	 68.35664	 25.26995	119.98129	  4.86974	161.49454	701.15002	 44.70	
 10.208	-75.751	155.45547	 79.58529	 61.15435	 26.12340	118.80049	  4.87775	161.54825	701.08002	 44.70	
 10.192	-66.322	155.55675	 87.01199	 54.22641	 28.40913	115.84749	  4.86681	161.45572	701.17999	 44.70	
 10.203	-56.908	155.68176	 94.08969	 48.10479	 31.66120	111.66682	  4.94569	161.44110	701.15002	 44.80	
 10.215	-47.354	155.88138	100.67037	 42.58765	 36.17286	106.28191	  4.96663	161.50259	701.15002	 44.80	
 10.190	-37.895	156.01816	106.38830	 37.93705	 41.33266	100.64820	  4.99883	161.46465	701.13000	 44.80	
 10.194	-28.474	156.16547	110.97895	 34.11906	 47.19362	 93.28208	  4.97117	161.46577	701.15997	 44.80	
 10.210	-18.966	156.28387	114.48962	 31.27930	 53.82939	 86.03680	  5.02141	161.52425	701.07001	 44.80	
 10.191	 -9.503	156.42680	116.37933	 29.85163	 61.98341	 78.23705	  4.99574	161.52660	701.13000	 44.80	
 10.200	  0.000	156.52299	117.18959	 29.40160	 70.23076	 70.30487	  5.00024	161.53119	701.02002	 44.80	
 10.191	  9.503	156.51837	116.47330	 29.73118	 77.83451	 62.87230	  4.87794	161.50072	701.03998	 44.90	
 10.210	 18.966	156.47884	114.65859	 30.97367	 85.19860	 55.73471	  4.86604	161.48418	701.09003	 44.90	
 10.194	 28.474	156.52419	111.17284	 33.60229	 92.25442	 49.74165	  4.78831	161.51460	701.13000	 44.90	
 10.190	 37.895	156.47324	106.66716	 37.26559	 98.28078	 44.42422	  4.65034	161.49118	701.06000	 44.90	
 10.215	 47.354	156.45903	101.27527	 41.71844	104.45193	 39.55656	  4.64891	161.53596	701.08002	 44.90	
 10.203	 56.908	156.31944	 94.43518	 47.24397	109.55215	 35.45164	  4.59858	161.43034	701.04999	 44.90	
 10.192	 66.322	156.35110	 87.19139	 53.38318	113.64992	 32.17757	  4.59188	161.53604	701.14001	 44.90	
 10.208	 75.751	156.25485	 79.92815	 60.11733	116.39407	 29.75405	  4.57523	161.57190	701.13000	 44.80	
 10.210	 85.199	156.18695	 71.61001	 67.39801	117.84071	 28.74976	  4.51908	161.59415	701.16998	 44.80	
 10.210	 94.801	156.09666	 63.46543	 75.10439	117.76009	 28.59760	  4.50883	161.55261	701.14001	 44.80	
 10.208	104.249	155.90881	 56.43271	 82.84465	116.32378	 29.28647	  4.54668	161.52829	701.13000	 44.80	
 10.192	113.678	155.77881	 50.10190	 90.57993	113.50035	 31.49197	  4.61849	161.48206	701.07001	 44.80	
 10.203	123.092	155.65538	 43.90454	 97.80627	109.64754	 34.71910	  4.71630	161.51062	701.13000	 44.80	
 10.215	132.646	155.56064	 38.25032	104.27390	104.52000	 38.58186	  4.76753	161.52087	701.06000	 44.70	
 10.190	142.105	155.44025	 33.55821	109.77118	 98.37624	 43.13477	  4.83721	161.50481	701.04999	 44.70	
 10.194	151.526	155.28999	 29.67909	114.37705	 91.88539	 48.23103	  4.75346	161.47223	701.14001	 44.70	
 10.210	161.034	155.13416	 26.83772	117.84175	 84.77316	 54.68697	  4.65014	161.44247	701.04999	 44.80	
 10.191	170.497	155.07262	 25.31203	119.96434	 77.42332	 61.77864	  4.64495	161.47107	701.09998	 44.90	
 11.899	171.783	152.23254	 16.31369	126.07284	 75.07674	 59.51707	  4.78594	161.48888	701.13000	 44.90	
 11.890	163.610	152.32524	 17.82531	124.11624	 82.68872	 52.27227	  4.78748	161.44304	701.07001	 45.00	
 11.889	155.445	152.42517	 20.23580	120.95994	 90.07474	 46.20061	  4.93324	161.39722	701.04999	 44.90	
 11.909	147.299	152.51608	 23.45977	116.97398	 96.67544	 40.67400	  4.99604	161.41393	701.10999	 44.90	
 11.902	139.148	152.63300	 27.56396	111.90961	103.90774	 35.25921	  4.99583	161.40190	701.14001	 44.90	
 11.894	130.867	152.79601	 32.53643	105.89437	109.51673	 30.61518	  4.82544	161.41705	701.07001	 44.90	
 11.897	122.732	152.96063	 38.37410	 99.38474	114.55266	 26.42419	  4.75844	161.46928	701.09003	 44.80	
 11.903	114.597	153.06174	 44.47984	 92.27676	118.62862	 22.89904	  4.74081	161.50256	701.04999	 44.90	
 11.893	106.346	153.24670	 51.21998	 84.48755	121.56386	 20.69637	  4.73884	161.51398	701.13000	 44.90	
 11.892	 98.155	153.36334	 57.94389	 76.43053	123.41950	 19.36953	  4.66949	161.45828	701.09003	 44.90	
 11.900	 90.000	153.47983	 65.52459	 68.64630	124.01986	 19.34260	  4.64528	161.45667	701.00000	 45.00	
 11.892	 81.845	153.54019	 73.54694	 61.51324	123.45829	 19.79588	  4.66720	161.46217	701.25000	 45.00	
 11.893	 73.654	153.62405	 81.71211	 54.27057	121.54281	 21.31670	  4.68897	161.46519	701.03003	 45.10	
 11.903	 65.403	153.69962	 89.18030	 47.52936	118.55515	 24.00668	  4.76834	161.44313	701.13000	 45.20	
 11.897	 57.268	153.79161	 96.46103	 41.37193	114.45071	 27.63527	  4.78723	161.42816	700.97998	 45.20	
 11.894	 49.133	153.86087	103.32854	 35.85856	109.25034	 31.92940	  4.89996	161.44833	701.03998	 45.20	
 11.902	 40.852	153.87495	109.18347	 31.14812	103.11904	 36.84909	  4.84016	161.42487	700.98999	 45.20	
 11.909	 32.701	153.93506	114.08214	 27.28516	 96.55711	 42.30797	  4.92340	161.41969	701.04999	 45.30	
 11.889	 24.555	153.98576	117.97366	 24.38563	 90.17394	 48.22483	  4.98915	161.44719	701.02002	 45.40	
 11.890	 16.390	153.99675	120.97334	 22.26306	 82.94418	 53.96146	  4.97328	161.46352	701.07001	 45.40	
 11.899	  8.217	153.90984	122.89000	 20.82675	 75.25629	 60.82122	  5.05270	161.47725	700.98999	 45.50	
 11.900	  0.000	153.86726	123.38249	 20.61621	 67.08488	 68.30401	  5.10688	161.48535	701.01001	 45.50	
 11.899	 -8.217	153.75357	122.80919	 20.92011	 58.81597	 75.95359	  5.14285	161.45821	701.01001	 45.50	
 11.890	-16.390	153.71951	120.77397	 22.30108	 51.59731	 84.01909	  5.11815	161.48859	701.01001	 45.50	
 11.889	-24.555	153.58463	117.82957	 24.69190	 44.81614	 91.75436	  5.07523	161.48941	701.10999	 45.60	
 11.909	-32.701	153.44499	113.92821	 27.87945	 38.31871	 99.30449	  5.09956	161.52641	701.06000	 45.60	
 11.902	-40.852	153.31516	108.86233	 32.03769	 32.50235	105.22007	  5.12983	161.53534	701.06000	 45.60	
 11.894	-49.133	153.19673	102.78838	 36.87326	 27.56967	111.55916	  5.09864	161.54837	701.10999	 45.60	
 11.897	-57.268	153.09705	 96.10117	 42.56864	 23.51285	116.86002	  5.05601	161.54683	701.08002	 45.60	
 11.903	-65.403	152.92848	 88.81271	 48.68397	 20.22367	121.02473	  5.05061	161.54741	701.15002	 45.60	
 11.893	-73.654	152.76279	 81.23129	 55.43378	 17.84571	123.84430	  4.99823	161.52333	701.09998	 45.50	
 11.892	-81.845	152.63448	 73.16580	 62.68406	 16.67865	125.42303	  5.00487	161.54855	701.15002	 45.50	
 11.900	-90.000	152.46870	 65.08483	 70.06075	 16.72479	125.90073	  4.98274	161.52298	701.06000	 45.50	
 11.892	-98.155	152.38052	 58.09787	 77.80992	 17.00345	125.22206	  4.99847	161.55322	701.03003	 45.50	
 11.893	-106.346	152.30138	 50.87294	 85.76699	 18.32253	123.42222	  4.99495	161.56764	701.02002	 45.50	
 11.903	-114.597	152.16876	 44.12413	 93.38126	 20.34671	120.20069	  4.99601	161.56779	700.95001	 45.50	
 11.897	-122.732	152.09015	 37.73246	100.53426	 23.57255	115.81809	  4.96613	161.55605	701.01001	 45.50	
 11.894	-130.867	152.07310	 32.02042	106.99821	 27.91014	110.28049	  4.91782	161.56693	700.94000	 45.50	
 11.902	-139.148	152.03564	 27.04766	112.91759	 33.04554	104.68008	  4.91537	161.57648	700.96002	 45.60	
 11.909	-147.299	151.95300	 22.97536	117.72292	 38.81649	 97.22794	  4.93407	161.55254	701.01001	 45.60	
 11.889	-155.445	152.08192	 20.05970	121.63566	 45.16631	 89.99007	  4.94838	161.60059	701.04999	 45.60	
 11.890	-163.610	152.09814	 17.72671	124.55154	 51.86132	 82.28395	  4.88356	161.58702	701.06000	 45.60	
 11.899	-171.783	152.14842	 16.23537	126.30670	 59.00800	 74.35744	  4.88852	161.56413	701.03998	 45.60	
 11.900	180.000	152.28241	 16.07299	126.83078	 67.26283	 66.74810	  4.86463	161.61249	700.98999	 45.70	
 13.600	180.000	148.84700	  6.86575	132.19556	 64.08957	 63.79397	  4.92046	161.56090	700.97998	 45.70	
 13.608	-172.853	148.71349	  6.90556	131.85869	 56.60382	 71.33678	  5.08346	161.57362	701.00000	 45.70	
 13.611	-165.583	148.64447	  8.19517	130.36626	 49.52808	 79.41170	  5.08592	161.58022	701.06000	 45.80	
 13.601	-158.353	148.65445	 10.48849	127.82210	 42.53679	 87.36387	  5.10776	161.59157	701.02002	 45.80	
 13.609	-151.210	148.61954	 13.27850	124.23077	 35.66413	 94.90028	  5.07107	161.59294	701.03003	 45.80	
 13.611	-143.999	148.60760	 16.84962	119.73126	 29.44512	102.45022	  4.97522	161.56361	701.03003	 45.80	
 13.601	-136.825	148.64378	 21.15076	114.59454	 24.01945	108.67336	  4.97254	161.56416	701.08002	 45.80	
 13.596	-129.640	148.70128	 26.16784	108.58371	 19.49393	114.91514	  5.07699	161.60301	701.03003	 45.80	
 13.611	-122.431	148.71785	 31.76641	101.91969	 15.56307	120.38856	  5.11954	161.58951	701.09003	 45.80	
 13.604	-115.211	148.83035	 38.22671	 94.71284	 12.55778	124.73419	  5.11634	161.57431	701.09998	 45.70	
 13.595	-108.042	149.00026	 44.95887	 87.03658	 10.42025	127.95051	  5.07453	161.61226	701.08002	 45.70	
 13.607	-100.793	149.05881	 52.04090	 79.04068	  8.68516	130.19598	  5.00821	161.60614	701.03003	 45.60	
 13.601	-93.617	149.17258	 59.41061	 71.14009	  7.87983	131.29434	  5.03469	161.61339	701.12000	 45.50	
 13.601	-86.383	149.23352	 66.39610	 63.91201	  7.82845	131.34778	  5.04971	161.56924	701.03003	 45.50	
 13.607	-79.207	149.34247	 74.35338	 56.57302	  7.94955	130.57367	  5.02623	161.59378	701.12000	 45.40	
 13.595	-71.958	149.52934	 82.69896	 49.37214	  9.45945	128.53654	  5.06111	161.59933	701.15997	 45.40	
 13.604	-64.789	149.68164	 90.31989	 42.71511	 11.76817	125.67983	  5.11266	161.59732	701.14001	 45.40	
 13.611	-57.569	149.81544	 97.75886	 36.53251	 14.99590	121.63811	  5.16875	161.59882	701.20001	 45.40	
 13.596	-50.360	150.01382	104.35349	 31.01810	 19.42329	116.51766	  5.17760	161.59923	701.15997	 45.40	
 13.601	-43.175	150.13905	110.76701	 26.10786	 23.81597	110.26067	  5.18587	161.56313	701.07001	 45.40	
 13.611	-36.001	150.27232	116.18938	 21.65959	 28.86310	104.31234	  5.21789	161.58972	701.23999	 45.40	
 13.609	-28.790	150.46693	120.71999	 17.95584	 34.99145	 96.89958	  5.16985	161.62225	701.13000	 45.40	
 13.601	-21.647	150.59291	124.34789	 14.69702	 41.93710	 89.67253	  5.14958	161.61951	701.16998	 45.40	
 13.611	-14.417	150.79137	127.03063	 12.85936	 49.21129	 81.58833	  5.21765	161.60234	701.17999	 45.40	
 13.608	 -7.147	150.77608	128.62042	 11.74582	 56.51975	 73.24547	  5.22434	161.55608	701.06000	 45.40	
 13.600	  0.000	150.94496	129.03468	 11.26734	 63.67878	 66.03485	  5.17134	161.57642	701.20001	 45.50	
 13.608	  7.147	150.91301	128.65199	 10.84324	 71.88107	 58.52788	  5.12130	161.57353	701.19000	 45.50	
 13.611	 14.417	150.98076	127.10767	 12.83804	 80.32986	 52.34824	  5.09152	161.58185	701.07001	 45.50	
 13.601	 21.647	151.02005	124.65294	 14.83576	 87.96018	 45.86757	  5.08226	161.63371	701.09998	 45.50	
 13.609	 28.790	150.99741	120.92283	 17.48012	 94.78413	 39.55888	  5.08464	161.57675	700.96002	 45.50	
 13.611	 36.001	150.99344	116.45604	 20.92446	101.54899	 33.51140	  5.04573	161.61630	701.06000	 45.50	
 13.601	 43.175	150.97714	111.14630	 25.08880	108.15590	 27.87959	  5.01748	161.61835	701.03003	 45.60	
 13.596	 50.360	150.90842	104.99259	 29.88413	114.01061	 22.89058	  5.12353	161.56982	700.89001	 45.70	
 13.611	 57.569	150.74142	 98.08068	 35.30223	119.21635	 18.39506	  4.94528	161.58588	701.01001	 45.70	
 13.604	 64.789	150.68947	 90.50237	 41.58214	123.40146	 15.15254	  5.01049	161.58006	700.90997	 45.70	
 13.595	 71.958	150.60506	 83.17262	 48.21443	126.64534	 12.68495	  4.88134	161.57516	700.97998	 45.70	
 13.607	 79.207	150.48215	 75.12054	 55.31290	128.80630	 11.28738	  4.94141	161.59708	701.10999	 45.80	
 13.601	 86.383	150.49126	 66.73842	 62.57385	129.83412	 11.31445	  4.89210	161.64290	701.00000	 45.80	
 13.601	 93.617	150.31952	 59.41562	 69.56741	129.76192	 10.82273	  4.89795	161.54189	701.02002	 45.80	
 13.607	100.793	150.23953	 52.51761	 77.54463	128.82864	 11.27065	  4.92451	161.61163	700.97998	 45.80	
 13.595	108.042	150.11478	 45.55579	 85.71545	126.54158	 12.89669	  4.95905	161.60539	700.96002	 45.70	
 13.604	115.211	149.99937	 38.71622	 93.46890	123.37074	 15.16694	  4.84940	161.61519	700.96997	 45.70	
 13.611	122.431	149.84402	 32.26311	100.90971	119.10990	 18.04364	  4.80919	161.58600	701.06000	 45.70	
 13.596	129.640	149.71492	 26.58190	107.63779	114.20394	 21.72966	  4.79570	161.61674	701.07001	 45.80	
 13.601	136.825	149.60909	 21.32118	113.67516	108.27682	 26.23433	  4.94424	161.58482	701.09998	 45.80	
 13.611	143.999	149.53532	 16.71670	118.97924	102.34809	 31.55243	  5.14811	161.60855	701.03998	 45.70	
 13.609	151.210	149.38651	 13.36599	123.61047	 95.04100	 37.61934	  5.14571	161.60341	700.92999	 45.70	
 13.601	158.353	149.28535	 10.58061	127.39549	 87.84489	 44.03831	  5.07949	161.61047	701.09998	 45.70	
 13.611	165.583	149.13075	  8.41136	130.07860	 80.15588	 50.17810	  4.95492	161.61627	701.08002	 45.80	
 13.608	172.853	148.94847	  7.09269	131.66010	 72.18508	 56.94321	  4.90213	161.56973	700.95001	 45.80	
 15.298	173.587	145.17278	 -3.22131	136.85919	 68.35735	 54.22308	  4.97470	161.59853	701.02002	 45.70	
 15.291	167.167	145.32193	 -2.06435	135.37088	 77.09956	 48.02350	  4.99047	161.60822	701.03998	 45.70	
 15.307	160.676	145.42256	 -0.35924	133.05507	 85.05687	 40.87153	  5.08796	161.65971	701.03998	 45.80	
 15.300	154.261	145.54541	  2.40080	129.68854	 92.58343	 34.02789	  5.18082	161.60371	701.06000	 45.80	
 15.288	147.854	145.76242	  6.20728	125.46317	 99.68018	 28.07455	  5.17464	161.60880	701.09998	 45.80	
 15.293	141.428	145.98766	 10.46641	120.40654	106.82051	 22.89260	  5.03883	161.64452	701.13000	 45.90	
 15.299	134.985	146.01151	 14.76725	114.78925	112.68301	 18.07299	  4.78647	161.61700	701.01001	 45.90	
 15.305	128.583	146.03516	 20.65420	108.48335	118.40884	 13.57601	  4.71809	161.60681	701.02002	 45.90	
 15.309	122.142	146.19986	 26.31133	101.78413	123.39275	  9.80482	  4.80625	161.64149	700.95001	 45.90	
 15.304	115.711	146.30923	 32.42726	 94.25497	127.67001	  6.62995	  4.89845	161.61761	700.94000	 45.90	
 15.297	109.291	146.38640	 39.27183	 86.34056	130.93816	  4.02036	  5.03378	161.58083	701.07001	 45.90	
 15.293	102.897	146.50096	 46.26073	 78.46162	133.31194	  2.24893	  5.20356	161.57698	700.96002	 45.90	
 15.293	 96.458	146.64775	 53.68456	 70.27738	134.85512	  1.37569	  5.06954	161.57701	701.04999	 45.90	
 15.300	 90.000	146.67879	 60.61224	 62.68167	135.42464	  1.60483	  4.97204	161.59908	701.03003	 46.00	
 15.293	 83.542	146.78635	 67.55830	 56.09180	134.74147	  2.61348	  5.02644	161.54341	700.98999	 46.00	
 15.293	 77.103	146.91356	 76.12769	 48.80395	133.31468	  3.50140	  5.07215	161.58522	701.01001	 45.90	
 15.297	 70.709	147.01089	 84.26283	 41.87598	130.94057	  4.99137	  5.04639	161.54240	700.88000	 46.00	
 15.304	 64.289	147.08556	 91.68868	 35.27502	127.64491	  7.07869	  5.10318	161.57907	701.03003	 45.90	
 15.309	 57.858	147.18608	 99.25499	 29.24743	123.23338	 10.24669	  5.13328	161.54294	701.03998	 45.90	
 15.305	 51.417	147.30252	106.11412	 23.77909	118.21210	 14.17660	  5.19456	161.55524	701.03998	 45.90	
 15.299	 45.015	147.37236	112.56937	 18.82195	112.38445	 18.77738	  5.22216	161.59380	701.07001	 45.90	
 15.293	 38.572	147.44508	118.33096	 14.42099	106.36043	 23.97815	  5.21384	161.63196	701.06000	 45.90	
 15.288	 32.146	147.44482	123.16628	 10.86766	 98.92975	 30.15976	  5.16391	161.58316	700.97998	 45.90	
 15.300	 25.739	147.45784	127.29750	  7.80870	 92.30364	 36.56345	  5.06887	161.60579	701.08002	 45.90	
 15.307	 19.324	147.45244	130.41504	  5.37004	 85.00283	 43.37561	  5.07320	161.62024	701.00000	 45.90	
 15.291	 12.833	147.44292	132.74088	  3.47992	 76.74058	 50.03302	  5.08131	161.63191	700.95001	 45.90	
 15.298	  6.413	147.42157	134.19008	  1.69311	 68.22570	 56.40155	  5.12104	161.64809	700.97998	 46.00	
 15.300	  0.000	147.30603	134.57269	  1.97926	 60.61552	 63.25959	  5.17293	161.61430	701.01001	 46.00	
 15.298	 -6.413	147.26582	134.10797	  2.40960	 53.74517	 70.27037	  5.20705	161.63483	701.01001	 46.00	
 15.291	-12.833	147.17409	132.63464	  3.25231	 46.31148	 78.27243	  5.14961	161.62976	700.96997	 46.00	
 15.307	-19.324	147.03159	130.23616	  5.53836	 38.72677	 86.59145	  5.08380	161.64102	701.09998	 45.90	
 15.300	-25.739	146.88661	126.99455	  8.24899	 31.81903	 94.56166	  5.06999	161.63771	701.00000	 45.90	
 15.288	-32.146	146.72066	122.61140	 11.59297	 25.89920	101.65215	  5.13969	161.58722	700.97998	 45.80	
 15.293	-38.572	146.59404	117.70277	 15.58651	 20.40657	108.19229	  5.11978	161.62665	700.95001	 45.80	
 15.299	-45.015	146.43977	111.87048	 20.14299	 15.30223	115.10068	  5.18302	161.66093	700.96997	 45.80	
 15.305	-51.417	146.23907	105.54937	 24.95852	 10.58694	120.78974	  5.14912	161.61642	701.01001	 45.90	
 15.309	-57.858	146.11067	 98.71457	 30.49626	  6.66624	125.69177	  5.10636	161.59538	701.01001	 45.90	
 15.304	-64.289	146.01613	 91.27390	 36.57418	  3.61148	129.78625	  5.12984	161.61455	701.02002	 45.90	
 15.297	-70.709	145.89671	 83.56076	 43.17828	  1.26901	132.86935	  5.04158	161.64093	701.03998	 45.90	
 15.293	-77.103	145.72691	 75.51402	 50.15375	 -0.41893	135.01288	  5.01635	161.64635	701.09003	 46.00	
 15.293	-83.542	145.52673	 67.23103	 57.54171	 -1.29500	136.21611	  5.01066	161.61563	701.04999	 46.10	
 15.300	-90.000	145.41676	 60.36174	 64.29992	 -1.32547	136.58350	  4.96291	161.62146	700.98999	 46.00	
 15.293	-96.458	145.27893	 52.96334	 71.91685	 -1.27102	136.07123	  5.00059	161.61485	701.07001	 46.00	
 15.293	-102.897	145.20177	 45.54990	 80.08032	 -0.07860	134.60141	  5.03485	161.63043	700.98999	 46.10	
 15.297	-109.291	145.13831	 38.63689	 87.93818	  1.99335	132.16447	  5.08542	161.61922	701.03998	 46.00	
 15.304	-115.711	145.05350	 31.94013	 95.65923	  4.46160	128.82204	  5.16295	161.63274	700.96997	 46.10	
 15.309	-122.142	144.91664	 25.67485	102.87321	  7.65924	124.42368	  5.13246	161.62166	700.96002	 46.00	
 15.305	-128.583	144.93863	 20.20030	109.53110	 11.64528	119.23241	  5.08319	161.62277	700.90002	 46.00	
 15.299	-134.985	144.91809	 15.32766	115.68688	 16.01583	113.01583	  5.08608	161.60173	700.96002	 46.10	
 15.293	-141.428	144.94240	 10.76066	121.21844	 20.98409	106.97337	  5.02467	161.62921	701.03003	 46.10	
 15.288	-147.854	144.90967	  6.81295	126.14986	 26.41096	 99.37163	  5.03383	161.63049	701.09998	 46.10	
 15.300	-154.261	144.84627	  3.29771	130.20821	 32.34404	 91.87284	  4.97533	161.62927	700.96002	 46.20	
 15.307	-160.676	144.87526	 -0.36946	133.39639	 39.40819	 84.11724	  5.00006	161.64644	701.16998	 46.20	
 15.291	-167.167	145.01193	 -2.43769	135.63290	 47.03384	 76.10632	  5.11022	161.66248	701.06000	 46.20	
 15.298	-173.587	145.12544	 -3.27702	137.01926	 54.19120	 68.17616	  5.13187	161.66484	701.01001	 46.20	
 15.300	180.000	145.12054	 -3.61181	137.38646	 61.46478	 60.68934	  5.00585	161.64366	700.98999	 46.20	
 17.000	180.000	140.84462	-12.73897	142.18059	 58.41582	 57.48261	  4.94167	161.62494	701.09003	 46.20	
 16.990	-174.179	140.79785	-12.44444	141.80292	 51.37554	 64.56910	  5.00009	161.61687	701.03998	 46.10	
 17.009	-168.383	140.70738	-11.81198	140.58916	 43.65814	 72.39164	  4.97362	161.61588	701.08002	 46.10	
 17.000	-162.596	140.71053	-10.13751	138.43839	 36.42959	 80.42278	  4.91478	161.63396	701.03003	 46.10	
 16.990	-156.759	140.69209	 -7.84631	135.44720	 29.70524	 88.51736	  4.83304	161.66333	701.08002	 46.10	
 16.995	-150.919	140.62625	 -4.89031	131.78435	 23.22037	 96.13747	  4.81526	161.64867	701.04999	 46.00	
 16.988	-145.161	140.58911	 -0.42778	127.43684	 17.41119	103.37095	  4.83691	161.65009	701.03998	 46.00	
 17.014	-139.343	140.59267	  4.25758	122.23158	 11.95649	110.23814	  4.89288	161.66910	700.92999	 46.00	
 17.007	-133.546	140.59016	  8.93848	116.48090	  7.21392	116.91024	  4.87794	161.62570	700.97998	 46.00	
 17.001	-127.699	140.60085	 14.01427	110.04015	  2.71103	122.97983	  4.89785	161.66170	701.03998	 45.90	
 17.006	-121.937	140.63058	 19.52948	103.43106	 -1.16193	127.89105	  4.96146	161.66502	700.96997	 45.90	
 17.002	-116.134	140.72249	 25.74981	 96.13450	 -4.20068	132.33614	  4.96263	161.65652	701.04999	 45.90	
 17.001	-110.310	140.69998	 32.18532	 88.37566	 -6.81483	135.86255	  4.95438	161.62878	700.96002	 46.00	
 16.988	-104.517	140.83018	 39.05111	 80.43765	 -8.77255	138.49847	  4.94512	161.62834	701.13000	 46.00	
 17.008	-98.662	141.00000	 46.29280	 72.31809	-10.10807	140.32092	  4.84922	161.65463	701.03003	 46.10	
 16.996	-92.909	141.10277	 53.61217	 64.63004	-10.58420	141.18661	  4.87226	161.61743	701.09003	 46.10	
 16.996	-87.091	141.19775	 60.50565	 57.72123	-10.34732	141.39536	  4.95185	161.65302	701.00000	 46.20	
 17.012	-81.253	141.21559	 67.64340	 50.71426	-10.33102	140.60905	  4.94514	161.60611	701.16998	 46.20	
 16.988	-75.483	141.45869	 75.87637	 43.65214	 -9.04046	138.97812	  4.93874	161.61452	701.07001	 46.10	
 17.001	-69.690	141.60796	 84.02575	 36.82909	 -7.26781	136.73935	  4.90580	161.64771	701.13000	 46.10	
 17.002	-63.866	141.73843	 91.70386	 30.32781	 -4.74624	133.53192	  4.95381	161.66914	701.09003	 46.10	
 17.006	-58.063	141.86705	 99.15903	 24.26614	 -1.69072	129.45993	  4.97619	161.61705	701.08002	 46.10	
 17.001	-52.301	142.09653	106.05240	 18.86174	  1.99330	124.64747	  5.03000	161.65863	701.07001	 46.10	
 17.007	-46.454	142.24805	112.61808	 13.84748	  6.20617	119.00300	  5.03695	161.57242	701.15997	 46.10	
 17.014	-40.657	142.27687	118.70547	  9.08493	 10.73018	112.35873	  4.99969	161.58223	701.06000	 46.10	
 16.988	-34.839	142.55782	123.99879	  5.05821	 16.25472	105.74815	  5.01341	161.64618	701.08002	 46.00	
 16.995	-29.081	142.70732	128.73653	  1.38761	 22.22301	 98.59395	  4.98261	161.63663	700.96997	 46.00	
 16.990	-23.241	142.83284	132.48361	 -2.98386	 28.65359	 91.02931	  4.95601	161.60924	701.07001	 46.00	
 17.000	-17.404	142.97641	135.46867	 -5.42975	 35.50083	 83.00136	  4.91368	161.61032	701.13000	 46.00	
 17.009	-11.617	143.10812	137.87982	 -6.93008	 42.92005	 74.65696	  4.93097	161.63666	701.04999	 46.00	
 16.990	 -5.821	143.32158	139.07513	 -7.45322	 50.70281	 67.09167	  5.03674	161.62550	701.10999	 46.00	
 17.000	  0.000	143.38118	139.48009	 -7.86947	 57.60347	 60.52171	  5.00942	161.60995	701.04999	 46.00	
 16.990	  5.821	143.39772	139.10628	 -7.93071	 65.12941	 53.98595	  4.96905	161.62042	700.98999	 46.00	
 17.009	 11.617	143.37366	137.93234	 -7.25757	 72.69038	 47.26614	  4.96814	161.58438	701.02002	 46.00	
 17.000	 17.404	143.36076	135.79944	 -4.66001	 81.42466	 40.09777	  4.87889	161.54750	700.95001	 46.10	
 16.990	 23.241	143.37801	132.84177	 -1.98290	 89.24306	 33.08696	  4.96436	161.58051	701.09003	 46.20	
 16.995	 29.081	143.33493	129.16899	  0.70564	 96.13723	 26.37716	  4.98928	161.61879	700.98999	 46.30	
 16.988	 34.839	143.30687	124.67980	  4.02811	103.55512	 20.39318	  5.09311	161.60794	701.07001	 46.30	
 17.014	 40.657	143.11069	119.52108	  7.78344	110.23383	 14.73143	  5.07405	161.60509	701.03998	 46.30	
 17.007	 46.454	143.15466	113.39445	 12.50889	116.32857	  9.99568	  5.05803	161.62073	701.07001	 46.30	
 17.001	 52.301	143.19565	106.91167	 17.62028	122.07406	  5.59543	  5.07621	161.62881	700.96997	 46.30	
 17.006	 58.063	143.07675	100.10121	 22.87168	127.13876	  1.66743	  4.96576	161.61600	700.94000	 46.20	
 17.002	 63.866	142.99614	 92.54832	 28.90052	131.53534	 -1.41121	  4.98090	161.68274	701.03003	 46.20	
 17.001	 69.690	142.91087	 84.77106	 35.46052	135.02174	 -3.81302	  4.92156	161.71895	700.98999	 46.10	
 16.988	 75.483	142.92332	 76.35036	 42.34165	137.77216	 -5.58204	  5.06219	161.65718	701.04999	 46.20	
 17.012	 81.253	142.74338	 68.15654	 49.23869	139.48004	 -7.21088	  4.95351	161.70476	701.09998	 46.20	
 16.996	 87.091	142.72467	 61.54062	 55.80872	140.13853	 -7.54761	  4.95309	161.67813	701.04999	 46.20	
 16.996	 92.909	142.59123	 54.56275	 62.92073	140.26637	 -7.93159	  5.02055	161.65627	701.09998	 46.30	
 17.008	 98.662	142.44196	 47.08990	 70.56449	139.35843	 -7.58066	  5.07906	161.68619	701.03003	 46.30	
 16.988	104.517	142.38820	 39.65626	 78.68917	137.44803	 -6.40084	  5.18955	161.56477	700.96997	 46.30	
 17.001	110.310	142.27592	 32.57723	 86.62335	135.05058	 -4.57124	  5.08970	161.63501	701.03003	 46.40	
 17.002	116.134	142.18588	 26.20317	 94.43421	131.52927	 -1.98148	  4.92715	161.69437	701.00000	 46.40	
 17.006	121.937	142.10313	 20.23137	102.08231	127.18330	  1.10929	  4.82545	161.63623	700.96997	 46.40	
 17.001	127.699	142.02293	 14.84641	108.90572	122.19386	  4.72047	  4.68657	161.67612	701.06000	 46.40	
 17.007	133.546	141.88097	  9.31589	115.50615	116.57453	  8.87484	  4.66523	161.69356	701.01001	 46.50	
 17.014	139.343	141.73253	  3.16145	121.34430	110.22001	 13.52621	  4.74632	161.65895	700.90002	 46.50	
 16.988	145.161	141.61131	 -0.86395	126.72808	103.97190	 19.18535	  4.92100	161.66980	700.87000	 46.60	
 16.995	150.919	141.52519	 -4.23530	131.23849	 96.65754	 25.02350	  5.09090	161.61855	700.97998	 46.60	
 16.990	156.759	141.39279	 -7.15867	135.02943	 89.53536	 31.03182	  5.06799	161.66650	700.90997	 46.60	
 17.000	162.596	141.24123	 -9.57654	138.10289	 81.64354	 37.45800	  4.92748	161.62524	700.92999	 46.60	
 17.009	168.383	141.06235	-11.43273	140.43790	 72.71024	 44.59322	  4.83214	161.65390	701.02002	 46.70	
 16.990	174.179	140.96086	-12.36101	141.73685	 64.98853	 51.96092	  4.87978	161.65179	700.79999	 46.70	
 18.709	174.675	136.23051	-21.50202	146.19020	 61.49712	 48.15856	  4.82221	161.69679	700.84998	 46.80	
 18.703	169.441	136.33218	-20.38693	144.90274	 69.17371	 40.88604	  4.73369	161.63695	700.78998	 46.80	
 18.691	164.085	136.60677	-18.70938	142.88361	 76.73540	 34.27858	  4.80523	161.66460	700.87000	 46.90	
 18.706	158.818	136.72090	-16.75528	140.08055	 85.72447	 27.43949	  4.95448	161.69695	700.97998	 46.90	
 18.695	153.537	136.93520	-13.94790	136.45050	 93.31178	 21.11687	  4.98226	161.67303	700.96002	 46.90	
 18.704	148.255	137.08665	-10.83257	132.28229	100.58812	 15.04105	  4.89879	161.69658	700.89001	 46.90	
 18.698	142.952	137.16069	 -7.26953	127.34081	107.60424	  9.43142	  4.70544	161.72054	700.96997	 46.90	
 18.699	137.625	137.24884	 -3.11447	121.68240	113.74572	  4.57301	  4.52896	161.66968	700.91998	 46.80	
 18.705	132.343	137.38852	  1.92352	115.60488	119.94827	  0.38217	  4.55764	161.66307	701.08002	 46.70	
 18.713	127.067	137.46707	  7.99287	108.91964	125.50494	 -3.41622	  4.61329	161.64365	700.88000	 46.70	
 18.700	121.794	137.60468	 13.85762	101.95351	130.67055	 -6.74064	  4.75690	161.71811	700.90002	 46.70	
 18.698	116.504	137.71628	 19.87037	 94.51233	134.87598	 -9.64607	  4.86513	161.69254	700.91998	 46.70	
 18.707	111.165	137.74309	 26.15923	 86.57484	138.54369	-12.22484	  4.95335	161.64708	700.91998	 46.70	
 18.690	105.863	137.92911	 32.92146	 78.69839	141.24933	-14.00648	  4.98195	161.68945	700.96997	 46.70	
 18.696	100.583	137.97131	 40.10070	 70.70084	143.10335	-15.37609	  4.94745	161.64359	701.01001	 46.80	
 18.700	 95.309	138.01637	 47.71376	 62.83118	144.32750	-16.43600	  4.89482	161.68184	700.92999	 46.80	
 18.700	 90.000	138.15083	 55.13780	 55.27662	144.78909	-16.57281	  4.85409	161.69539	700.89001	 46.80	
 18.700	 84.691	138.21037	 61.49040	 49.07635	144.42644	-16.15430	  4.82311	161.67601	700.97998	 46.70	
 18.696	 79.417	138.35014	 68.58474	 42.50248	143.32135	-15.42193	  4.82908	161.70186	701.04999	 46.80	
 18.690	 74.137	138.41777	 76.78870	 35.47836	141.25505	-14.10913	  4.81913	161.62099	700.95001	 46.80	
 18.707	 68.835	138.50880	 85.04436	 28.76031	138.69925	-12.25193	  4.78520	161.66907	700.97998	 46.90	
 18.698	 63.496	138.55797	 92.81324	 22.28008	134.84637	 -9.63566	  4.80282	161.61426	700.87000	 46.90	
 18.700	 58.206	138.67238	100.21459	 16.43139	130.55484	 -6.55032	  4.81010	161.64917	701.07001	 46.90	
 18.713	 52.933	138.72244	107.29329	 10.98034	125.43796	 -3.01664	  4.82280	161.64719	700.94000	 46.90	
 18.705	 47.657	138.81332	113.91257	  6.06302	119.79616	  1.22955	  4.89611	161.60347	700.94000	 46.90	
 18.699	 42.375	138.82944	120.12199	  1.37975	113.52605	  5.88441	  4.92923	161.61330	700.88000	 46.90	
 18.698	 37.048	138.89333	125.61087	 -2.82222	107.32784	 11.34844	  4.89969	161.61487	701.03003	 47.00	
 18.704	 31.745	138.93590	130.54250	 -6.37282	 99.76310	 17.55401	  4.91347	161.58026	701.04999	 46.90	
 18.695	 26.463	138.94781	134.65677	 -9.22632	 93.02516	 23.47376	  4.88534	161.58315	701.01001	 46.90	
 18.706	 21.182	138.92389	138.12288	-11.76416	 85.35730	 29.65398	  4.84844	161.60161	700.90997	 46.90	
 18.691	 15.915	138.95012	140.64093	-14.09836	 76.80689	 36.30755	  4.80248	161.57620	701.03003	 46.90	
 18.703	 10.559	138.89476	142.60681	-16.08725	 69.04415	 43.56064	  4.81821	161.60912	700.90002	 46.90	
 18.709	  5.325	138.79282	143.79747	-16.97700	 61.47875	 51.08432	  4.80989	161.60582	700.98999	 46.80	
 18.700	  0.000	138.83809	144.10780	-16.91400	 53.87089	 58.34861	  4.87389	161.61647	700.92999	 46.80	
 18.709	 -5.325	138.68306	143.61595	-16.68619	 46.94731	 63.55002	  4.88612	161.52940	700.96002	 46.80	
 18.703	-10.559	138.67645	142.45700	-15.89554	 39.65325	 70.95738	  4.87401	161.59132	700.96002	 46.80	
 18.691	-15.915	138.49548	140.43851	-14.68751	 32.10037	 78.92177	  4.81990	161.56439	700.91998	 46.90	
 18.706	-21.182	138.46063	137.55266	-12.68922	 25.03140	 87.17577	  4.78836	161.64343	700.92999	 46.90	
 18.695	-26.463	138.28085	133.94327	 -9.63286	 18.44713	 95.06153	  4.83506	161.58037	700.91998	 47.00	
 18.704	-31.745	138.08376	129.76492	 -5.23143	 12.48181	102.12302	  4.86280	161.58177	700.84998	 47.00	
 18.698	-37.048	137.94292	124.72919	 -1.41358	  6.99140	109.26678	  4.83684	161.55226	700.92999	 46.90	
 18.699	-42.375	137.81839	118.99433	  2.85682	  2.07375	115.98676	  4.84670	161.56514	700.90002	 46.90	
 18.705	-47.657	137.67249	112.90995	  7.46679	 -2.38878	122.32027	  4.86588	161.60167	700.90997	 46.90	
 18.713	-52.933	137.43872	106.29594	 12.53060	 -6.39790	127.69588	  4.87237	161.55513	700.85999	 46.90	
 18.700	-58.206	137.32529	 99.07503	 18.00521	 -9.83893	132.69873	  4.83482	161.59886	700.90002	 46.90	
 18.698	-63.496	137.14996	 91.60797	 23.94939	-12.85206	136.66011	  4.79448	161.53519	700.90997	 46.80	
 18.707	-68.835	136.91136	 83.88814	 30.25644	-15.46128	139.98195	  4.77645	161.54652	700.90002	 46.70	
 18.690	-74.137	136.82100	 75.66969	 37.11968	-17.33034	142.56894	  4.83995	161.58479	700.91998	 46.70	
 18.696	-79.417	136.66748	 67.65305	 44.04788	-18.65318	143.99797	  4.83718	161.52071	700.87000	 46.60	
 18.700	-84.691	136.41377	 60.02962	 51.20124	-19.48603	145.09123	  4.79898	161.53078	700.89001	 46.60	
 18.700	-90.000	136.26573	 53.67714	 57.49436	-19.56001	145.32770	  4.74886	161.50140	700.90002	 46.50	
 18.700	-95.309	136.18886	 46.47953	 64.80932	-19.36787	144.86388	  4.72996	161.52461	700.91998	 46.50	
 18.696	-100.583	136.04478	 39.21430	 72.52074	-18.53651	143.74031	  4.75553	161.47339	700.92999	 46.50	
 18.690	-105.863	136.00053	 32.23993	 80.43809	-17.06920	141.73604	  4.74438	161.50519	700.95001	 46.50	
 18.707	-111.165	135.92577	 25.54540	 88.39870	-15.08593	138.98244	  4.77673	161.52866	700.84998	 46.50	
 18.698	-116.504	135.87495	 19.15663	 96.24406	-12.40004	135.27603	  4.76517	161.50621	700.90002	 46.50	
 18.700	-121.794	135.78468	 13.19233	103.46686	 -9.42744	130.82826	  4.84763	161.49365	700.89001	 46.60	
 18.713	-127.067	135.75821	  7.61912	110.15418	 -5.90530	125.86521	  4.76114	161.46495	700.94000	 46.60	
 18.705	-132.343	135.80717	  2.39756	116.64670	 -1.77204	120.11163	  4.78940	161.48891	700.94000	 46.60	
 18.699	-137.625	135.76016	 -2.84082	122.56982	  2.75890	113.43244	  4.76466	161.50156	700.89001	 46.60	
 18.698	-142.952	135.80095	 -7.71648	128.04016	  7.89488	106.76928	  4.70262	161.50716	700.92999	 46.70	
 18.704	-148.255	135.78769	-11.48852	132.78008	 13.46570	 99.87441	  4.71561	161.51660	700.83002	 46.70	
 18.695	-153.537	135.83067	-14.46719	136.77158	 19.62840	 92.20379	  4.69501	161.49521	700.85999	 46.70	
 18.706	-158.818	135.74557	-17.17891	140.20279	 26.10585	 84.29382	  4.71454	161.45235	700.85999	 46.80	
 18.691	-164.085	135.81363	-19.17699	142.97821	 33.21035	 76.30685	  4.78186	161.49570	700.82001	 46.80	
 18.703	-169.441	135.89900	-20.71994	145.01541	 40.55470	 68.26785	  4.86583	161.58934	700.91998	 46.80	
 18.709	-174.675	135.89799	-21.67877	146.11887	 47.59148	 61.17229	  4.88304	161.54454	700.88000	 46.90	
 18.700	180.000	135.96341	-22.01872	146.47786	 55.30905	 54.21271	  4.82938	161.54482	700.88000	 46.90	
 20.400	180.000	130.59706	-30.61167	150.18869	 50.84372	 49.82017	  4.79692	161.54219	700.95001	 47.00	
 20.401	-175.153	130.46913	-30.46227	149.84451	 44.19699	 57.49585	  4.85288	161.49889	700.81000	 47.00	
 20.407	-170.264	130.45016	-29.64996	148.83315	 36.89157	 65.11686	  4.80996	161.57735	700.82001	 47.10	
 20.410	-165.423	130.39340	-28.32662	147.07755	 29.37044	 71.88673	  4.75339	161.52985	700.75000	 47.10	
 20.392	-160.496	130.42218	-26.19223	144.62451	 22.15173	 79.79965	  4.71238	161.51364	700.76001	 47.10	
 20.401	-155.705	130.36026	-23.97933	141.51706	 15.66788	 87.58237	  4.63949	161.51775	700.82001	 47.00	
 20.405	-150.835	130.34331	-21.17106	137.64011	  9.61357	 95.57796	  4.62549	161.53889	700.67999	 47.00	
 20.397	-145.903	130.48982	-17.56159	133.08553	  4.07371	102.95335	  4.62771	161.53763	700.69000	 47.00	
 20.392	-141.062	130.51579	-14.00864	128.09921	 -0.91520	109.95154	  4.65812	161.55167	700.71997	 47.00	
 20.396	-136.227	130.53835	 -9.89034	122.58137	 -5.61325	116.38004	  4.62865	161.56128	700.77002	 47.00	
 20.408	-131.372	130.44908	 -4.87418	116.57449	 -9.98224	122.92527	  4.64840	161.56819	700.76001	 47.00	
 20.410	-126.511	130.41551	  0.74272	110.03926	-13.94584	128.34029	  4.67049	161.54704	700.82001	 47.00	
 20.400	-121.604	130.52383	  6.59110	103.09960	-17.33653	133.58009	  4.73482	161.58736	700.90002	 47.00	
 20.403	-116.741	130.52257	 12.59754	 95.86444	-20.36260	138.00958	  4.68509	161.57283	700.88000	 47.00	
 20.413	-111.900	130.51437	 18.76824	 88.12894	-23.03770	141.69014	  4.67960	161.57330	700.90997	 47.00	
 20.398	-107.004	130.64030	 25.56473	 80.01092	-25.17614	144.61488	  4.65460	161.61290	700.91998	 46.90	
 20.394	-102.132	130.68968	 32.13824	 72.35068	-26.64824	146.79210	  4.60716	161.61270	700.84998	 46.90	
 20.403	-97.332	130.75487	 39.09435	 64.62357	-27.75869	148.37657	  4.62614	161.61179	700.90002	 46.90	
 20.392	-92.440	130.81836	 46.32359	 57.01849	-28.32223	149.09984	  4.70156	161.58115	700.90002	 46.80	
 20.392	-87.560	130.93532	 52.53214	 50.86452	-28.44416	149.19753	  4.75712	161.60918	700.84003	 46.80	
 20.403	-82.668	131.03630	 59.84854	 43.88346	-28.12755	148.65070	  4.73305	161.58366	700.88000	 46.80	
 20.394	-77.868	131.26141	 67.43063	 36.99572	-27.08454	147.48390	  4.77673	161.61992	700.89001	 46.80	
 20.398	-72.996	131.44775	 75.20049	 30.16082	-25.56217	145.42183	  4.74035	161.60130	700.88000	 46.80	
 20.413	-68.100	131.66559	 83.49099	 23.60514	-23.66080	142.98318	  4.67754	161.63513	700.84003	 46.90	
 20.403	-63.259	131.84981	 91.15163	 17.43182	-21.16761	139.58455	  4.74040	161.60193	700.89001	 47.00	
 20.400	-58.396	132.02274	 98.58263	 11.65884	-18.23491	135.60855	  4.71175	161.60300	700.96002	 47.00	
 20.410	-53.489	132.18207	106.07168	  6.05604	-14.88509	130.40929	  4.73459	161.59570	700.78998	 47.10	
 20.408	-48.628	132.36873	112.70789	  0.96416	-11.12741	125.16120	  4.79501	161.62381	700.92999	 47.20	
 20.396	-43.773	132.54901	119.02059	 -3.60271	 -6.82179	119.08701	  4.73596	161.59807	700.87000	 47.30	
 20.392	-38.938	132.71342	124.74190	 -7.75902	 -2.16660	112.56144	  4.78182	161.59531	700.88000	 47.40	
 20.397	-34.097	132.84769	130.14857	-11.59225	  2.98420	105.63322	  4.79348	161.62219	700.91998	 47.30	
 20.405	-29.165	132.94066	134.84099	-15.02159	  8.67727	 98.35251	  4.77056	161.61453	700.88000	 47.30	
 20.401	-24.295	133.13043	138.82411	-18.29663	 14.80403	 90.74519	  4.74219	161.58221	700.87000	 47.30	
 20.392	-19.504	133.28598	142.09750	-21.40012	 21.23748	 82.87081	  4.67496	161.59766	701.06000	 47.30	
 20.410	-14.577	133.54594	144.78400	-22.33622	 28.40534	 74.86771	  4.75340	161.62291	700.95001	 47.20	
 20.407	 -9.736	133.57393	146.64409	-23.57539	 35.82900	 67.77335	  4.79514	161.61719	700.90997	 47.20	
 20.401	 -4.847	133.74667	147.64345	-24.32837	 43.71667	 60.80763	  4.84334	161.57796	700.94000	 47.10	
 20.400	  0.000	133.72606	148.04501	-24.45222	 49.76247	 54.44274	  4.80938	161.54642	700.91998	 47.10	
 20.401	  4.847	133.81204	147.75366	-24.37915	 57.45305	 46.89698	  4.78357	161.56505	700.84998	 47.10	
 20.407	  9.736	133.89566	146.80513	-23.50374	 65.21917	 39.73701	  4.77266	161.60429	700.98999	 47.20	
 20.410	 14.577	133.83832	145.16350	-22.25409	 72.84657	 33.20705	  4.74002	161.60037	700.88000	 47.20	
 20.392	 19.504	133.90547	142.68176	-20.54510	 80.42179	 26.81105	  4.74649	161.59586	700.96002	 47.30	
 20.401	 24.295	133.91806	139.54350	-18.63469	 88.95461	 20.47497	  4.75223	161.60385	700.90002	 47.40	
 20.405	 29.165	133.78064	135.73074	-16.25871	 96.28702	 13.69767	  4.80270	161.60886	700.88000	 47.40	
 20.397	 34.097	133.69247	131.16994	-13.05660	103.78334	  7.24554	  4.81760	161.56854	700.92999	 47.40	
 20.392	 38.938	133.79712	125.96154	 -9.18382	110.68663	  2.11101	  4.79692	161.57030	700.96002	 47.40	
 20.396	 43.773	133.62503	120.24678	 -5.13757	116.66366	 -2.76422	  4.76332	161.56665	700.90997	 47.40	
 20.408	 48.628	133.56540	113.97767	 -0.79381	122.76446	 -7.07174	  4.73890	161.57658	700.82001	 47.40	
 20.410	 53.489	133.52762	107.18907	  4.18183	128.33325	-10.98843	  4.69417	161.59431	700.76001	 47.50	
 20.400	 58.396	133.48151	 99.95768	  9.71874	133.52710	-14.40889	  4.69949	161.57407	700.82001	 47.50	
 20.403	 63.259	133.42610	 92.55928	 15.66738	138.00180	-17.40992	  4.67302	161.61249	700.81000	 47.40	
 20.413	 68.100	133.27455	 84.78411	 21.83697	141.41167	-19.98150	  4.66820	161.55093	700.88000	 47.40	
 20.398	 72.996	133.21088	 76.45354	 28.50440	144.37531	-21.90480	  4.66400	161.57703	700.85999	 47.40	
 20.394	 77.868	133.12990	 68.58945	 35.35129	146.54117	-23.34179	  4.70535	161.61484	700.84003	 47.30	
 20.403	 82.668	132.92365	 60.95884	 42.18607	147.89415	-24.43675	  4.75576	161.53026	700.89001	 47.40	
 20.392	 87.560	132.85080	 54.57765	 48.09215	148.55472	-24.93245	  4.67171	161.57104	700.95001	 47.30	
 20.392	 92.440	132.83258	 47.80457	 54.77809	148.58635	-24.99797	  4.72367	161.59135	700.90997	 47.40	
 20.403	 97.332	132.71922	 40.17077	 62.55797	147.91772	-24.43316	  4.73417	161.59668	700.91998	 47.50	
 20.394	102.132	132.65857	 33.09484	 70.28894	146.47072	-23.36891	  4.83057	161.59154	700.97998	 47.50	
 20.398	107.004	132.55449	 26.04473	 78.13880	144.32137	-21.90501	  4.78306	161.56851	700.94000	 47.60	
 20.413	111.900	132.42596	 19.35560	 86.11282	141.36986	-19.99586	  4.79472	161.58208	700.84003	 47.60	
 20.403	116.741	132.35379	 13.00419	 93.98899	137.87280	-17.48627	  4.75765	161.57634	700.94000	 47.60	
 20.400	121.604	132.28065	  6.65920	101.35410	133.52614	-14.56447	  4.68224	161.60181	700.84998	 47.60	
 20.410	126.511	132.18123	  0.54201	108.44927	128.36220	-11.32075	  4.56177	161.57253	700.90997	 47.60	
 20.408	131.372	132.02618	 -4.78420	115.25754	122.83076	 -7.70536	  4.50612	161.59787	700.96997	 47.50	
 20.396	136.227	131.95543	 -9.41540	121.54932	116.74164	 -3.70385	  4.49586	161.62288	700.96002	 47.50	
 20.392	141.062	131.90173	-13.51997	127.18717	110.83727	  0.78239	  4.51907	161.59816	700.95001	 47.40	
 20.397	145.903	131.65936	-17.30282	132.44250	104.14972	  5.66113	  4.66117	161.58382	700.90997	 47.40	
 20.405	150.835	131.54846	-20.50850	137.01183	 96.42004	 11.07225	  4.85404	161.60712	700.95001	 47.30	
 20.401	155.705	131.39415	-23.57126	141.07248	 89.14084	 16.89496	  4.92019	161.57620	700.90002	 47.20	
 20.392	160.496	131.26866	-25.96907	144.43396	 80.37193	 23.07494	  4.88114	161.64969	700.92999	 47.10	
 20.410	165.423	131.05313	-27.89401	146.93111	 72.74687	 30.07637	  4.77111	161.61789	700.92999	 47.10	
 20.407	170.264	130.92659	-29.24747	148.72031	 65.34974	 37.27437	  4.71210	161.64032	700.87000	 47.10	
 20.401	175.153	130.76578	-30.35199	149.93503	 57.20246	 44.35167	  4.75173	161.65160	700.96002	 47.10	
  0.141	 45.000	161.82884	 74.30518	 77.86897	 76.85302	 75.67008	  6.74287	161.66214	701.02002	 47.10	
  4.001	128.691	161.28249	 61.22232	 88.86097	 89.50506	 60.60351	  6.01856	161.59753	700.90997	 47.10	
  4.002	 76.995	161.47850	 77.15040	 72.76640	 93.37000	 57.24014	  6.18970	161.62819	700.94000	 47.20	
  4.002	 25.892	161.52858	 90.06692	 60.94334	 83.42558	 67.06509	  6.04757	161.63594	701.04999	 47.20	
  4.002	-25.892	161.51062	 89.92065	 61.32378	 67.54178	 83.56284	  5.91461	161.64052	701.03998	 47.20	
  4.002	-76.995	161.36191	 77.06229	 73.33545	 57.93565	 94.69823	  5.88616	161.69351	700.92999	 47.30	
  4.001	-128.691	161.15825	 60.93829	 89.27043	 61.44966	 89.97649	  5.85876	161.64494	701.03003	 47.30	
  4.000	180.000	161.13466	 54.27915	 96.54702	 75.29752	 74.95554	  5.79279	161.65466	701.03998	 47.20	
  8.000	180.000	158.01901	 35.30326	112.82121	 72.40104	 71.79891	  4.56405	161.63353	701.00000	 47.30	
  7.991	-152.370	157.88962	 39.07346	108.40970	 55.24252	 89.14725	  4.70759	161.61772	701.09003	 47.30	
  7.997	-124.550	157.94160	 49.78339	 96.06300	 42.27200	103.60909	  4.66101	161.61067	701.03998	 47.20	
  8.006	-96.837	158.14471	 64.96257	 79.19312	 36.76993	111.21160	  4.71204	161.60114	700.96002	 47.30	
  7.988	-69.228	158.44919	 83.38160	 61.88861	 38.65723	108.82584	  4.79113	161.57336	701.08002	 47.40	
  7.997	-41.563	158.69412	 98.78836	 48.52498	 47.55464	 98.60604	  4.84161	161.52977	700.90997	 47.40	
  8.008	-13.821	159.01479	107.74305	 40.88009	 64.10621	 81.55173	  4.92035	161.62422	700.91998	 47.40	
  8.008	 13.821	159.10677	107.80061	 40.76891	 81.54456	 63.68925	  4.85749	161.62585	700.87000	 47.40	
  7.997	 41.563	159.08302	 99.05202	 48.11914	 96.73354	 49.32323	  4.77278	161.66052	700.94000	 47.40	
  7.988	 69.228	158.95958	 83.66412	 61.14596	107.16039	 41.10546	  4.76886	161.64922	701.07001	 47.40	
  8.006	 96.837	158.72388	 65.29051	 78.16156	109.28939	 38.97105	  4.74884	161.60750	700.87000	 47.50	
  7.997	124.550	158.46231	 50.36705	 95.28741	102.58868	 43.97704	  4.80724	161.60725	700.94000	 47.50	
  7.991	152.370	158.20717	 39.41810	107.94485	 89.11739	 55.27714	  4.63437	161.59697	700.89001	 47.40	
 12.009	161.059	152.28107	 17.98027	123.69968	 85.04885	 50.01383	  4.83981	161.57198	700.98999	 47.40	
 12.013	142.081	152.59431	 25.47414	114.25878	101.72460	 36.82853	  5.02939	161.60577	700.90002	 47.30	
 12.006	123.113	152.82820	 37.73337	 99.92432	114.75092	 26.04722	  4.73771	161.56090	700.90002	 47.30	
 12.007	104.200	153.14328	 52.85033	 82.26719	122.76910	 19.54704	  4.76906	161.62297	700.88000	 47.20	
 11.989	 85.301	153.43790	 69.79624	 64.51549	124.25332	 19.19040	  4.66593	161.57768	700.95001	 47.20	
 12.013	 66.294	153.54918	 88.45432	 48.02332	119.36653	 23.11376	  4.77527	161.59137	700.95001	 47.20	
 12.012	 47.388	153.71094	104.89194	 34.43658	108.41973	 32.52103	  4.88696	161.59831	700.88000	 47.20	
 11.990	 28.440	153.83951	116.61722	 25.34568	 93.47974	 45.16774	  5.01351	161.55046	700.78003	 47.20	
 11.991	  9.464	153.87846	123.02739	 20.63962	 76.48691	 59.51690	  5.05469	161.57042	700.85999	 47.20	
 11.991	 -9.464	153.74168	122.87599	 20.61371	 57.57658	 77.29131	  5.16039	161.57097	700.87000	 47.20	
 11.990	-28.440	153.40508	116.41860	 25.79215	 41.37275	 95.13664	  5.05281	161.53134	700.91998	 47.20	
 12.012	-47.388	153.04691	104.29316	 35.33312	 28.00326	110.59649	  5.11934	161.52373	700.88000	 47.20	
 12.013	-66.294	152.69397	 88.19637	 49.03066	 19.34002	121.73464	  5.02941	161.53603	700.88000	 47.20	
 11.989	-85.301	152.45190	 69.17299	 65.74651	 16.29531	126.03501	  4.98166	161.55049	700.84998	 47.20	
 12.007	-104.200	152.11053	 52.38463	 83.65865	 17.43576	124.32632	  4.96322	161.53241	700.92999	 47.20	
 12.006	-123.113	151.91835	 37.14126	100.91551	 23.22265	115.83634	  4.92023	161.56522	700.87000	 47.20	
 12.013	-142.081	151.81737	 25.05242	114.97037	 34.63343	102.40219	  4.85975	161.55978	700.91998	 47.10	
 12.009	-161.059	151.88094	 17.76098	124.14787	 49.54958	 84.68562	  4.86866	161.61818	700.90002	 47.20	
 16.000	180.000	143.38054	 -7.41746	139.37415	 60.30782	 59.19989	  5.04611	161.60912	700.89001	 47.10	
 15.990	-165.604	143.17310	 -5.96268	137.01208	 43.22356	 77.20528	  5.01767	161.56856	700.91998	 47.10	
 16.002	-151.165	143.07838	  0.74619	129.91899	 27.05126	 95.58293	  4.92111	161.58955	700.95001	 47.00	
 16.002	-136.836	143.14928	 10.76354	118.37817	 14.48999	112.01711	  5.03503	161.58966	700.88000	 46.90	
 15.995	-122.439	143.18861	 22.90553	103.51994	  4.45179	125.47249	  5.09413	161.55342	700.81000	 46.90	
 15.993	-107.966	143.34572	 38.00103	 85.84644	 -2.17149	134.55426	  5.01992	161.58517	700.83002	 46.90	
 16.005	-93.629	143.52562	 54.72416	 67.25327	 -5.27357	138.42853	  4.93818	161.56906	700.78998	 47.00	
 15.992	-79.234	143.84532	 71.68076	 50.80196	 -4.53416	137.42772	  5.01627	161.53818	700.82001	 47.10	
 16.009	-64.774	144.21095	 90.70853	 34.62658	 -0.20017	131.69864	  5.04463	161.53967	700.92999	 47.20	
 15.997	-50.364	144.63913	107.33512	 21.31433	  7.98072	121.18932	  5.13878	161.57047	700.84998	 47.20	
 15.997	-36.045	144.88062	121.04318	 10.59747	 19.46602	106.44799	  5.08568	161.52539	700.85999	 47.20	
 16.000	-21.597	145.28070	130.92566	  2.34182	 33.76496	 89.19720	  5.00970	161.57672	700.82001	 47.20	
 16.003	 -7.169	145.64273	135.93324	 -2.09846	 51.43673	 70.12698	  5.13334	161.55949	700.89001	 47.20	
 16.003	  7.169	145.73962	135.94328	 -2.31266	 68.36519	 54.30710	  5.03650	161.53850	700.87000	 47.20	
 16.000	 21.597	145.73192	131.18726	  2.70632	 87.58409	 38.57848	  5.04459	161.55730	700.84998	 47.20	
 15.997	 36.045	145.68839	121.72986	  9.71177	104.24055	 23.18600	  5.16590	161.57269	700.84998	 47.10	
 15.997	 50.364	145.54533	107.91483	 20.21903	118.59023	 11.68230	  5.15876	161.54625	700.78998	 47.10	
 16.009	 64.774	145.26544	 91.06485	 33.34442	129.74391	  3.18633	  5.03268	161.52734	700.78998	 47.10	
 15.992	 79.234	145.15016	 72.00719	 49.40248	136.15135	 -0.91523	  5.02592	161.51433	700.84998	 47.00	
 16.005	 93.629	144.97316	 55.37394	 65.71607	137.23198	 -2.63804	  5.10030	161.54047	700.81000	 47.00	
 15.993	107.966	144.70551	 38.44454	 84.24048	133.38770	 -0.23434	  5.10804	161.53914	700.85999	 46.90	
 15.995	122.439	144.52277	 23.44925	102.40704	124.56063	  6.37565	  4.83797	161.57033	700.77002	 46.90	
 16.002	136.836	144.26277	 10.21762	117.47521	111.79259	 16.30443	  4.86181	161.56343	700.78003	 46.90	
 16.002	151.165	143.89949	  0.44474	129.29372	 96.14371	 28.43329	  5.17190	161.52534	700.79999	 47.00	
 15.990	165.604	143.62073	 -5.35307	136.72411	 78.44952	 44.20105	  4.96846	161.55406	700.79999	 46.90	
 20.003	168.362	132.21767	-26.78628	147.21031	 69.04242	 35.84063	  4.73772	161.53072	700.78003	 47.00	
 20.008	156.764	132.51004	-22.35865	141.18164	 87.75165	 19.67654	  4.90165	161.57294	700.76001	 47.10	
 20.000	145.147	132.98997	-14.89286	131.16707	105.21851	  6.43070	  4.68286	161.58475	700.71997	 47.10	
 19.995	133.545	133.30602	 -5.10460	117.82984	119.82490	 -4.26139	  4.45411	161.54216	700.65997	 47.10	
 20.009	121.926	133.60396	  8.12182	101.86256	132.62050	-12.53160	  4.67988	161.58548	700.77002	 47.10	
 20.005	110.327	133.82211	 22.97680	 84.01611	141.59634	-18.68850	  4.83534	161.57883	700.72998	 47.10	
 19.989	 98.733	134.02866	 39.17491	 65.62543	146.56360	-22.07338	  4.87074	161.54539	700.82001	 47.10	
 19.999	 87.075	134.13327	 56.15622	 48.33310	147.60579	-22.93437	  4.71943	161.52713	700.83002	 47.00	
 19.992	 75.457	134.41145	 72.87380	 33.09846	144.65649	-20.74807	  4.67511	161.53738	700.87000	 47.10	
 20.009	 63.844	134.56776	 91.80885	 17.85930	137.63672	-15.87167	  4.70424	161.48833	700.84003	 47.20	
 19.989	 52.269	134.83025	108.83594	  4.73771	126.35263	 -8.13523	  4.74399	161.51535	700.82001	 47.20	
 19.999	 40.602	134.93495	123.64779	 -6.08095	112.80773	  2.00427	  4.81958	161.58336	700.84003	 47.20	
 20.004	 29.051	135.05972	135.12740	-14.31101	 96.13943	 15.73565	  4.81965	161.55208	700.82001	 47.20	
 20.005	 17.433	135.12665	142.94658	-19.34972	 77.55502	 30.63630	  4.74466	161.55760	700.73999	 47.20	
 20.006	  5.780	135.05031	146.75569	-22.61199	 59.74843	 46.63729	  4.78417	161.54993	700.78003	 47.20	
 20.006	 -5.780	134.90800	146.55962	-22.29160	 43.12297	 63.12258	  4.81286	161.52435	700.82001	 47.10	
 20.005	-17.433	134.52319	142.49278	-20.32509	 25.41449	 79.84808	  4.77723	161.52184	700.71997	 47.20	
 20.004	-29.051	134.23264	134.29762	-13.19396	 10.44597	 98.24248	  4.77346	161.56471	700.77002	 47.20	
 19.999	-40.602	133.96281	122.35168	 -4.48440	 -1.92232	114.45051	  4.74667	161.54666	700.81000	 47.10	
 19.989	-52.269	133.52701	107.60020	  6.52328	-11.99284	128.45985	  4.74143	161.51503	700.95001	 47.10	
 20.009	-63.844	133.14453	 90.40952	 19.73682	-19.43031	139.27571	  4.73538	161.51642	700.87000	 47.20	
 19.992	-75.457	132.76456	 71.80299	 34.83509	-24.21787	145.60837	  4.75126	161.52594	700.83002	 47.20	
 19.999	-87.075	132.23126	 53.93480	 51.41799	-26.33065	148.25076	  4.73331	161.55029	700.83002	 47.10	
 19.989	-98.733	131.98621	 38.07229	 67.65139	-25.46835	147.08591	  4.64506	161.55089	700.84998	 47.10	
 20.005	-110.327	131.81203	 22.30481	 85.98181	-21.79870	142.00803	  4.69340	161.55791	700.87000	 47.10	
 20.009	-121.926	131.70760	  7.78557	103.54284	-15.37978	132.71965	  4.78107	161.55986	700.90997	 47.00	
 19.995	-133.545	131.73210	 -5.28248	119.03870	 -6.40273	119.89323	  4.67238	161.57317	700.79999	 47.00	
 20.000	-145.147	131.75461	-15.24555	131.91689	  4.90003	103.96012	  4.65036	161.56200	700.82001	 47.00	
 20.008	-156.764	131.62511	-22.61724	141.60797	 18.54021	 86.21619	  4.65747	161.54921	700.88000	 47.00	
 20.003	-168.362	131.71204	-27.01647	147.42760	 35.28251	 67.72041	  4.80859	161.56233	700.78998	 47.00	
 20.000	180.000	131.87401	-28.60789	149.39682	 52.36087	 50.40948	  4.82177	161.56026	700.88000	 47.10	
