FileType=PCF
NHL=14
Date=03/15/19	15:39:45
Facility=APL
Serial=16071-3
Customer=NASA
NP=6
Mach=0.380000
Calibration=1:1
CalPts=490
TstPts=95
PortNumbering=AP Standard
Units=Torr C m/s kg/m^3 deg mm 
Theta[deg]	Phi[deg]	P1[Torr]	P2[Torr]	P3[Torr]	P4[Torr]	P5[Torr]	P6[Torr]	Pt[Torr]	Ps[Abs,Torr]	Ts[C]	
  0.000	  0.000	 66.89600	 28.11975	 29.76345	 29.66963	 28.19753	  1.62445	 66.96619	702.20001	 33.50	
  1.691	128.401	 66.85098	 25.59428	 31.90877	 32.36199	 25.35930	  1.56701	 66.96909	702.15997	 33.50	
  1.692	 77.194	 66.86069	 28.67839	 28.80234	 33.08619	 24.72120	  1.63985	 66.94044	702.21002	 33.50	
  1.699	 26.182	 66.91339	 31.24110	 26.43893	 31.21713	 26.48662	  1.68342	 66.97884	702.28998	 33.60	
  1.699	-26.182	 66.93456	 31.42696	 26.49582	 27.86826	 29.68615	  1.61882	 66.99004	702.19000	 33.60	
  1.692	-77.194	 66.91072	 28.96081	 28.94987	 25.96341	 31.61377	  1.54017	 66.98013	702.09003	 33.70	
  1.691	-128.401	 66.88468	 25.80816	 31.97709	 26.60742	 30.84286	  1.48016	 66.97395	702.16998	 33.70	
  1.700	180.000	 66.86816	 24.32644	 33.30346	 29.55121	 28.03868	  1.49459	 66.99339	702.17999	 33.70	
  3.400	180.000	 66.66673	 20.47489	 36.70392	 29.19147	 27.76395	  1.24715	 66.95084	702.04999	 33.80	
  3.388	-152.325	 66.66061	 21.37986	 35.87796	 25.72272	 30.94128	  1.22490	 66.93267	702.14001	 33.80	
  3.397	-124.529	 66.74586	 23.69655	 33.63280	 23.24264	 34.00211	  1.23225	 66.98891	702.12000	 33.80	
  3.399	-96.763	 66.76408	 27.04604	 30.36277	 22.16215	 35.43151	  1.28148	 66.95920	702.17999	 33.90	
  3.394	-69.283	 66.80950	 30.59134	 26.95095	 22.59307	 34.96247	  1.36787	 66.94374	702.03003	 33.90	
  3.400	-41.398	 66.88989	 33.55544	 24.11528	 24.51087	 32.73574	  1.47047	 67.00952	702.01001	 33.90	
  3.401	-14.021	 66.88279	 35.08801	 22.51446	 27.48972	 29.58258	  1.56913	 66.97305	702.07001	 33.90	
  3.401	 14.021	 66.84692	 34.91266	 22.44495	 31.12993	 25.98882	  1.60631	 66.95034	702.08002	 34.00	
  3.400	 41.398	 66.83647	 33.18527	 23.95190	 34.22895	 23.05063	  1.61209	 66.98509	702.12000	 34.00	
  3.394	 69.283	 66.78290	 30.15726	 26.75382	 36.19702	 21.22306	  1.57960	 66.95616	702.13000	 34.00	
  3.399	 96.763	 66.76269	 26.69176	 30.13687	 36.60003	 20.84733	  1.50370	 66.98988	702.06000	 34.10	
  3.397	124.529	 66.69466	 23.39005	 33.44549	 35.29461	 21.99477	  1.40576	 66.96868	702.09998	 34.10	
  3.388	152.325	 66.66927	 21.17560	 35.76094	 32.63501	 24.49121	  1.29790	 66.96202	702.06000	 34.20	
  5.099	161.165	 66.23585	 17.04255	 39.30020	 32.26936	 23.95344	  0.94852	 66.94244	702.04999	 34.20	
  5.109	142.013	 66.25299	 18.56118	 37.50568	 35.52627	 20.83049	  1.02632	 66.96674	702.06000	 34.20	
  5.095	123.033	 66.28463	 21.09734	 34.78696	 38.02946	 18.48742	  1.14685	 66.95193	702.09003	 34.30	
  5.105	104.191	 66.35649	 24.32788	 31.43048	 39.57696	 17.13693	  1.23598	 66.96379	701.96997	 34.30	
  5.093	 85.207	 66.38094	 27.90789	 27.86075	 39.87809	 16.91647	  1.31668	 66.94521	702.04999	 34.30	
  5.104	 66.290	 66.44508	 31.47589	 24.50541	 38.99656	 17.75082	  1.38855	 66.93730	702.08002	 34.30	
  5.094	 47.331	 66.50886	 34.70521	 21.62966	 36.98458	 19.64985	  1.42401	 66.96272	702.02002	 34.40	
  5.089	 28.397	 66.57149	 37.07575	 19.61021	 34.13337	 22.32620	  1.43768	 66.97164	702.04999	 34.40	
  5.096	  9.576	 66.59366	 38.34824	 18.60364	 30.65445	 25.60845	  1.40826	 66.96543	702.03003	 34.40	
  5.096	 -9.576	 66.60380	 38.47401	 18.67102	 26.95305	 29.15344	  1.32859	 66.96203	702.08002	 34.40	
  5.089	-28.397	 66.63931	 37.32055	 19.81874	 23.70087	 32.78329	  1.25997	 66.99600	702.03998	 34.50	
  5.094	-47.331	 66.56931	 34.97585	 21.86242	 21.02745	 36.00137	  1.13702	 66.93716	702.21002	 34.50	
  5.104	-66.290	 66.53500	 31.92481	 24.75025	 19.19237	 38.15159	  1.03728	 66.91895	702.09998	 34.50	
  5.093	-85.207	 66.49902	 28.41897	 28.16418	 18.43955	 39.00169	  0.94044	 66.96364	702.26001	 34.60	
  5.105	-104.191	 66.46724	 24.75898	 31.74135	 18.68855	 38.78469	  0.88840	 66.97488	702.20001	 34.60	
  5.095	-123.033	 66.35850	 21.49800	 34.99231	 19.95130	 37.11845	  0.86306	 66.91965	702.03998	 34.60	
  5.109	-142.013	 66.30978	 18.92392	 37.69489	 22.05414	 34.26060	  0.83657	 66.94798	702.12000	 34.60	
  5.099	-161.165	 66.28259	 17.26533	 39.42916	 25.17185	 30.77494	  0.87165	 66.96507	702.21997	 34.60	
  5.100	180.000	 66.29459	 16.64785	 39.98946	 28.69081	 27.27955	  0.87935	 66.98579	702.16998	 34.70	
  6.800	180.000	 65.63158	 12.78794	 43.19301	 28.04426	 26.70238	  0.44976	 66.95045	702.19000	 34.70	
  6.796	-166.229	 65.65097	 13.24669	 42.78778	 24.65154	 30.17857	  0.42813	 66.93188	702.17999	 34.70	
  6.808	-152.311	 65.69612	 14.43140	 41.49797	 21.58102	 33.50939	  0.41279	 66.94397	702.17999	 34.70	
  6.795	-138.383	 65.79963	 16.34173	 39.40024	 19.00644	 36.71224	  0.41214	 66.98444	702.03003	 34.80	
  6.792	-124.591	 65.86774	 18.83108	 36.75606	 16.93525	 39.24868	  0.40593	 66.98721	702.15002	 34.80	
  6.787	-110.754	 65.85546	 21.80933	 33.56906	 15.42548	 41.28579	  0.42049	 66.92778	702.09003	 34.80	
  6.800	-96.985	 65.95325	 25.13793	 30.23379	 14.63003	 42.16479	  0.42131	 66.97237	702.15002	 34.80	
  6.800	-83.015	 65.98934	 28.71017	 26.72375	 14.58569	 42.14022	  0.48725	 66.94837	702.09998	 34.90	
  6.787	-69.246	 66.06163	 32.16359	 23.45105	 15.40889	 41.27711	  0.58500	 66.96235	702.13000	 34.90	
  6.792	-55.409	 66.08583	 35.36241	 20.49291	 16.91347	 39.72033	  0.64277	 66.95821	702.04999	 34.90	
  6.795	-41.617	 66.08621	 38.05713	 18.06773	 19.05617	 37.20575	  0.75893	 66.93427	702.03998	 34.90	
  6.808	-27.689	 66.10793	 40.20709	 16.27598	 21.68913	 33.74538	  0.86553	 66.95248	702.09003	 34.90	
  6.796	-13.771	 66.07250	 41.50943	 15.15392	 24.77747	 30.24351	  0.97410	 66.91000	702.09998	 35.00	
  6.800	  0.000	 66.09364	 41.91343	 14.65883	 28.19691	 26.73816	  1.05585	 66.95840	702.07001	 35.00	
  6.796	 13.771	 66.08981	 41.36081	 14.98663	 31.81334	 23.41927	  1.11977	 66.98828	702.09998	 35.00	
  6.808	 27.689	 66.02463	 39.92804	 16.01497	 35.24294	 20.19007	  1.14954	 66.96949	702.13000	 35.00	
  6.795	 41.617	 65.99850	 37.70107	 17.81399	 38.17884	 17.38728	  1.12598	 66.97791	702.07001	 35.10	
  6.792	 55.409	 65.92528	 34.85325	 20.17291	 40.60597	 15.21945	  1.08357	 66.96838	702.20001	 35.10	
  6.787	 69.246	 65.90018	 31.58867	 23.07700	 42.35606	 13.75850	  1.03891	 66.98295	702.17999	 35.10	
  6.800	 83.015	 65.83422	 28.08831	 26.34106	 43.16530	 12.90501	  0.97367	 66.97242	702.17999	 35.10	
  6.800	 96.985	 65.77607	 24.51055	 29.85210	 43.08712	 12.92477	  0.90517	 66.98715	702.12000	 35.10	
  6.787	110.754	 65.73116	 21.22229	 33.29009	 42.28269	 13.68416	  0.82731	 66.97793	702.06000	 35.10	
  6.792	124.591	 65.64484	 18.29688	 36.42484	 40.38050	 15.17355	  0.74739	 66.95856	702.09003	 35.10	
  6.795	138.383	 65.64109	 15.92787	 39.12412	 37.95971	 17.37622	  0.60297	 66.97176	702.02002	 35.10	
  6.808	152.311	 65.63102	 14.09422	 41.33326	 34.96941	 20.17814	  0.56593	 66.98447	702.07001	 35.20	
  6.796	166.229	 65.62413	 13.05649	 42.70603	 31.61070	 23.40049	  0.48729	 66.95955	701.94000	 35.20	
  8.491	168.704	 64.71687	  9.05689	 45.87563	 30.84589	 22.57110	  0.00000	 66.94498	702.08002	 35.20	
  8.502	157.493	 64.72861	  9.85445	 44.74061	 34.38344	 19.18033	  0.06737	 66.97794	702.07001	 35.30	
  8.494	146.194	 64.72536	 11.37144	 42.77146	 37.61124	 16.11053	  0.15276	 66.95793	702.03998	 35.30	
  8.495	135.039	 64.73463	 13.37687	 40.29710	 40.46552	 13.65237	  0.23685	 66.94112	701.84998	 35.30	
  8.487	123.723	 64.79324	 15.86547	 37.39485	 42.99992	 11.67008	  0.27960	 66.94767	701.96997	 35.30	
  8.492	112.575	 64.82638	 18.67843	 34.27872	 44.68495	 10.16646	  0.38899	 66.94770	702.12000	 35.30	
  8.510	101.220	 64.89539	 21.96352	 30.77966	 45.94817	  9.25987	  0.44973	 66.96787	702.00000	 35.30	
  8.500	 90.000	 64.95222	 25.41899	 27.25414	 46.32343	  9.01800	  0.51092	 66.95966	702.03998	 35.40	
  8.510	 78.780	 65.06872	 29.05473	 23.82405	 46.05833	  9.30601	  0.51410	 67.02465	702.01001	 35.40	
  8.492	 67.425	 65.09095	 32.62181	 20.56199	 44.84051	 10.17957	  0.57947	 66.98666	701.89001	 35.40	
  8.487	 56.277	 65.13218	 35.89281	 17.73555	 43.22883	 11.59162	  0.64979	 66.95987	701.95001	 35.40	
  8.495	 44.961	 65.21489	 38.93127	 15.27399	 40.77297	 13.64893	  0.70392	 66.98943	701.92999	 35.40	
  8.494	 33.806	 65.28122	 41.46889	 13.28957	 37.90076	 16.34864	  0.76327	 67.01802	701.97998	 35.40	
  8.502	 22.507	 65.30450	 43.44838	 11.71103	 34.64735	 19.28051	  0.75384	 66.98572	702.01001	 35.50	
  8.491	 11.296	 65.37027	 44.66097	 10.87041	 30.91600	 22.56529	  0.72299	 67.01077	702.07001	 35.50	
  8.500	  0.000	 65.38912	 45.16209	 10.66489	 27.40972	 25.99727	  0.65186	 67.01069	701.96997	 35.50	
  8.491	-11.296	 65.38018	 44.85102	 11.08802	 23.94172	 29.57377	  0.55752	 66.96890	702.03003	 35.50	
  8.502	-22.507	 65.40823	 43.74409	 12.07210	 20.80876	 33.03860	  0.46263	 66.96724	702.06000	 35.50	
  8.494	-33.806	 65.43266	 41.82265	 13.64694	 17.96289	 36.47583	  0.34756	 66.99304	701.97998	 35.50	
  8.495	-44.961	 65.42708	 39.37455	 15.66050	 15.40380	 39.81327	  0.19662	 67.00061	701.96997	 35.60	
  8.487	-56.277	 65.42125	 36.52948	 18.14228	 13.29775	 42.24125	  0.10545	 67.03928	702.08002	 35.60	
  8.492	-67.425	 65.34066	 33.30981	 20.97960	 11.76034	 43.96224	  0.03451	 67.00129	702.08002	 35.60	
  8.510	-78.780	 65.30825	 29.79545	 24.23623	 10.80103	 45.00169	 -0.01236	 67.01966	702.06000	 35.60	
  8.500	-90.000	 65.25484	 26.19397	 27.70644	 10.57425	 45.27354	 -0.09385	 67.02408	702.09003	 35.70	
  8.510	-101.220	 65.13931	 22.62887	 31.23792	 10.82770	 44.92936	 -0.11131	 66.98102	702.03003	 35.70	
  8.492	-112.575	 65.10522	 19.36362	 34.67677	 11.83825	 43.82608	 -0.10141	 66.97950	702.03003	 35.70	
  8.487	-123.723	 65.02292	 16.44541	 37.82322	 13.33265	 41.90695	 -0.13656	 66.95551	702.00000	 35.70	
  8.495	-135.039	 65.00133	 13.90104	 40.71871	 15.39694	 39.33217	 -0.12948	 67.00481	701.96002	 35.80	
  8.494	-146.194	 64.93968	 11.82510	 43.07947	 17.85188	 36.40445	 -0.13234	 66.97668	701.96997	 35.80	
  8.502	-157.493	 64.87630	 10.27040	 44.94443	 20.67356	 32.99166	 -0.11019	 66.98634	701.98999	 35.80	
  8.491	-168.704	 64.84227	  9.36812	 46.01568	 23.85908	 29.60119	 -0.06359	 66.99600	702.06000	 35.80	
  8.500	180.000	 64.79543	  8.93579	 46.34231	 27.27141	 26.01105	 -0.03127	 66.98276	701.95001	 35.80	
 10.200	180.000	 63.68666	  4.92741	 49.26426	 26.30717	 25.07834	 -0.61011	 66.98408	701.92999	 35.80	
 10.191	-170.497	 63.73169	  5.29695	 48.96173	 22.90776	 28.66889	 -0.73347	 67.00076	701.92999	 35.80	
 10.210	-161.034	 63.75221	  6.11299	 48.06722	 19.58175	 32.22371	 -0.85156	 66.99215	701.96997	 35.80	
 10.194	-151.526	 63.84422	  7.47248	 46.48560	 16.62902	 35.63425	 -1.01797	 67.00307	701.96002	 35.90	
 10.190	-142.105	 63.86890	  9.26583	 44.33825	 13.95608	 38.90276	 -0.65043	 66.98579	702.03998	 35.90	
 10.215	-132.646	 63.89942	 11.36549	 41.71618	 11.59927	 41.73152	 -0.70101	 66.95580	702.10999	 35.90	
 10.203	-123.092	 63.94988	 13.89336	 38.72736	  9.66823	 44.25550	 -0.90355	 66.95263	702.07001	 35.90	
 10.192	-113.678	 64.05597	 16.78393	 35.58417	  8.20814	 45.88327	 -0.77032	 67.00008	702.16998	 35.90	
 10.208	-104.249	 64.09305	 19.98041	 32.15565	  7.20428	 47.16256	 -0.69189	 66.96499	702.09998	 36.00	
 10.210	-94.801	 64.19575	 23.47170	 28.62348	  6.74163	 47.86250	 -0.69454	 66.99545	702.03003	 36.00	
 10.210	-85.199	 64.25558	 27.15108	 25.00099	  6.69269	 47.92731	 -0.62792	 67.00670	702.07001	 36.00	
 10.208	-75.751	 64.31323	 30.80562	 21.56109	  7.13604	 47.32849	 -0.56884	 67.00658	701.97998	 36.00	
 10.192	-66.322	 64.37881	 34.34046	 18.40707	  8.15441	 46.21769	 -0.54095	 67.01723	702.09003	 36.00	
 10.203	-56.908	 64.42830	 37.58142	 15.60031	  9.55811	 44.56880	 -0.52455	 67.04655	702.03003	 36.00	
 10.215	-47.354	 64.43102	 40.53481	 13.04632	 11.51500	 42.26753	 -0.44997	 67.01350	702.03003	 36.00	
 10.190	-37.895	 64.48515	 43.20478	 10.89378	 13.93635	 39.06918	 -0.29633	 67.02650	701.97998	 36.00	
 10.194	-28.474	 64.47544	 45.35676	  9.14965	 16.68042	 35.80296	 -0.17880	 67.00792	702.02002	 36.10	
 10.210	-18.966	 64.51156	 47.04483	  7.83196	 19.72156	 32.22375	 -0.12475	 67.06589	702.04999	 36.10	
 10.191	 -9.503	 64.46513	 47.95078	  7.18402	 23.07778	 28.62749	  0.04523	 67.02661	702.12000	 36.10	
 10.200	  0.000	 64.41443	 48.18997	  6.79950	 26.55925	 24.99761	  0.12461	 67.03487	701.92999	 36.10	
 10.191	  9.503	 64.37902	 47.70721	  6.94808	 30.09758	 21.46894	  0.10740	 67.01136	702.04999	 36.10	
 10.210	 18.966	 64.32565	 46.65449	  7.54780	 33.88919	 18.09076	  0.08803	 67.01601	701.96002	 36.10	
 10.194	 28.474	 64.26678	 44.93050	  8.82465	 37.35760	 14.97510	  0.26283	 66.98546	701.98999	 36.10	
 10.190	 37.895	 64.19254	 42.64989	 10.50320	 40.41117	 12.41264	  0.23993	 66.97041	701.78998	 36.10	
 10.215	 47.354	 64.18464	 39.92578	 12.64156	 43.39330	  9.98041	 -0.41924	 67.02428	701.92999	 36.10	
 10.203	 56.908	 64.09284	 36.82344	 15.13521	 45.51871	  7.94965	  0.04055	 67.01083	702.03998	 36.10	
 10.192	 66.322	 64.03368	 33.52884	 17.95020	 47.39310	  6.58238	 -0.49120	 67.00289	701.96002	 36.10	
 10.208	 75.751	 63.99038	 30.03826	 21.03290	 48.61716	  5.70973	 -0.11578	 67.02010	701.87000	 36.10	
 10.210	 85.199	 63.92792	 26.32368	 24.42155	 49.19691	  5.19607	 -0.05642	 67.01200	701.97998	 36.20	
 10.210	 94.801	 63.90008	 22.68282	 28.03475	 49.18528	  5.19590	 -0.06558	 67.03325	701.96002	 36.20	
 10.208	104.249	 63.81578	 19.23713	 31.61770	 48.49958	  5.60352	 -0.18042	 67.03636	701.96002	 36.20	
 10.192	113.678	 63.77360	 16.05314	 35.09917	 47.19716	  6.60501	 -0.19267	 67.01647	701.87000	 36.20	
 10.203	123.092	 63.68044	 13.24588	 38.23731	 45.27858	  8.07966	 -0.30773	 66.95199	701.96002	 36.20	
 10.215	132.646	 63.69394	 10.74053	 41.30605	 43.06448	 10.02433	 -0.31404	 67.02937	701.95001	 36.20	
 10.190	142.105	 63.70613	  8.70821	 44.00895	 40.03539	 12.39444	 -0.41073	 67.04586	701.75000	 36.30	
 10.194	151.526	 63.62105	  7.01610	 46.20616	 36.94453	 14.96131	 -0.46968	 66.99636	701.72998	 36.30	
 10.210	161.034	 63.63212	  5.77859	 47.88994	 33.56339	 18.11220	 -0.55477	 66.98665	701.90002	 36.30	
 10.191	170.497	 63.69803	  5.18817	 48.87334	 29.81470	 21.61183	 -0.58450	 67.01710	701.78998	 36.30	
 11.899	171.783	 62.34597	  1.24587	 51.59829	 28.71405	 20.46626	 -1.33108	 67.01801	701.88000	 36.30	
 11.890	163.610	 62.29647	  1.82431	 50.69862	 32.43418	 17.03516	 -1.66008	 67.01118	701.83002	 36.30	
 11.889	155.445	 62.27165	  2.64693	 49.26254	 35.97902	 13.92690	 -1.31394	 66.99532	701.96002	 36.30	
 11.909	147.299	 62.22251	  3.93973	 47.33163	 39.21854	 11.04623	 -1.58061	 66.97133	701.96002	 36.30	
 11.902	139.148	 62.29869	  5.81190	 44.94049	 42.40312	  8.48532	 -1.27442	 67.01945	701.84998	 36.30	
 11.894	130.867	 62.31497	  8.06511	 42.03816	 45.04889	  6.20828	 -1.15031	 67.00420	701.90997	 36.30	
 11.897	122.732	 62.33747	 10.49955	 38.97161	 47.45298	  4.40042	 -1.34572	 66.98430	701.92999	 36.30	
 11.903	114.597	 62.39951	 13.30223	 35.73876	 49.37639	  2.96499	 -0.92102	 67.01258	701.90997	 36.40	
 11.893	106.346	 62.51211	 16.48622	 32.26181	 50.72305	  1.99305	 -0.93744	 67.04529	701.81000	 36.40	
 11.892	 98.155	 62.51844	 19.87338	 28.57458	 51.56731	  1.33445	 -1.03140	 67.01312	701.85999	 36.40	
 11.900	 90.000	 62.53276	 23.36538	 24.98034	 51.88792	  1.18065	 -0.99098	 66.97868	701.92999	 36.40	
 11.892	 81.845	 62.63914	 27.01699	 21.53572	 51.68335	  1.44694	 -1.33444	 67.02038	701.87000	 36.40	
 11.893	 73.654	 62.68715	 30.72448	 18.24418	 50.87840	  2.07217	 -1.24802	 66.99275	701.73999	 36.40	
 11.903	 65.403	 62.75796	 34.25940	 15.18859	 49.60770	  2.95291	 -1.16161	 67.01864	701.79999	 36.40	
 11.897	 57.268	 62.81174	 37.54548	 12.41526	 47.74204	  4.28282	 -1.12562	 67.02055	701.70001	 36.40	
 11.894	 49.133	 62.86702	 40.70020	  9.92920	 45.28951	  6.25330	 -1.11739	 67.02023	701.70001	 36.40	
 11.902	 40.852	 62.94844	 43.69705	  7.74500	 42.83797	  8.53558	 -1.02558	 67.04225	701.84998	 36.40	
 11.909	 32.701	 62.98290	 46.15598	  5.93468	 39.62724	 11.06515	 -0.86083	 67.00050	701.83002	 36.40	
 11.889	 24.555	 63.05041	 48.09078	  4.53081	 36.35220	 13.81210	 -0.78066	 66.98993	701.87000	 36.40	
 11.890	 16.390	 63.12475	 49.61650	  3.53034	 32.64294	 16.95138	 -0.79753	 67.01709	701.85999	 36.40	
 11.899	  8.217	 63.16102	 50.59583	  2.90421	 29.00472	 20.40447	 -0.94389	 67.01870	701.84998	 36.40	
 11.900	  0.000	 63.18394	 50.96738	  2.71541	 25.50823	 23.92649	 -0.98749	 67.01302	701.94000	 36.40	
 11.899	 -8.217	 63.20015	 50.73254	  2.98266	 21.91973	 27.59565	 -0.81713	 66.99991	701.84003	 36.40	
 11.890	-16.390	 63.21976	 49.87259	  3.78834	 18.52576	 31.19449	 -1.16980	 66.97542	702.04999	 36.40	
 11.889	-24.555	 63.24400	 48.54345	  4.98282	 15.45862	 34.59818	 -1.18290	 66.98185	701.90002	 36.50	
 11.909	-32.701	 63.23793	 46.66128	  6.34786	 12.49306	 38.13721	 -1.31630	 67.00099	701.96002	 36.50	
 11.902	-40.852	 63.20351	 44.30957	  8.13011	  9.86436	 41.28312	 -1.43113	 66.98512	701.77002	 36.50	
 11.894	-49.133	 63.18743	 41.45500	 10.32596	  8.26897	 44.38702	 -1.32813	 67.00565	701.72998	 36.50	
 11.897	-57.268	 63.14507	 38.40887	 12.81400	  6.48419	 46.63482	 -1.45865	 66.98337	701.83002	 36.50	
 11.903	-65.403	 63.12783	 35.18274	 15.62220	  5.10049	 48.43401	 -1.47695	 67.01772	701.84003	 36.50	
 11.893	-73.654	 63.06040	 31.62546	 18.76475	  4.03293	 49.69609	 -1.20752	 66.99632	701.81000	 36.50	
 11.892	-81.845	 62.97210	 27.90806	 22.11526	  3.38383	 50.49836	 -1.30682	 66.98466	701.91998	 36.50	
 11.900	-90.000	 62.95450	 24.28251	 25.64125	  3.15975	 50.78997	 -1.27451	 67.02812	702.03998	 36.50	
 11.892	-98.155	 62.88640	 20.70796	 29.26117	  3.45661	 50.43718	 -1.47093	 67.00925	701.92999	 36.50	
 11.893	-106.346	 62.83811	 17.26557	 32.83240	  4.08539	 49.55690	 -1.44142	 67.00005	701.96002	 36.50	
 11.903	-114.597	 62.76015	 14.05970	 36.26764	  5.13211	 48.18664	 -1.43022	 66.99747	701.91998	 36.50	
 11.897	-122.732	 62.70863	 11.20474	 39.48655	  6.43744	 46.30037	 -1.43996	 67.02565	701.85999	 36.50	
 11.894	-130.867	 62.65429	  8.75020	 42.52651	  7.71265	 43.98027	 -1.45172	 67.00539	701.97998	 36.50	
 11.902	-139.148	 62.54219	  6.36524	 45.34058	  9.90217	 41.19617	 -1.52078	 66.97406	701.95001	 36.50	
 11.909	-147.299	 62.48824	  4.39818	 47.71882	 12.41606	 38.07716	 -1.48811	 66.98241	701.92999	 36.50	
 11.889	-155.445	 62.46399	  3.05449	 49.52541	 15.31240	 34.57899	 -1.48290	 66.97733	701.92999	 36.50	
 11.890	-163.610	 62.41301	  2.07608	 50.86042	 18.40221	 31.22771	 -1.53349	 66.99272	701.92999	 36.50	
 11.899	-171.783	 62.34100	  1.32855	 51.66642	 21.75370	 27.60564	 -1.59007	 66.95968	701.90997	 36.50	
 11.900	180.000	 62.34761	  1.06047	 51.92034	 25.19253	 23.97750	 -1.37222	 66.99692	701.98999	 36.50	
 13.600	180.000	 60.75895	 -2.89801	 54.39103	 23.93097	 22.73651	 -2.12453	 67.03147	701.90002	 36.50	
 13.608	-172.853	 60.79766	 -2.74190	 54.19654	 20.53194	 26.37181	 -2.02854	 67.03176	701.90997	 36.50	
 13.611	-165.583	 60.81032	 -2.25070	 53.50708	 17.09584	 30.04565	 -1.91307	 67.02074	701.90002	 36.60	
 13.601	-158.353	 60.90376	 -1.16639	 52.31309	 13.98812	 33.55363	 -1.82652	 67.01411	701.94000	 36.60	
 13.609	-151.210	 60.92359	  0.13987	 50.64860	 11.03290	 36.92397	 -1.78217	 66.98834	701.92999	 36.60	
 13.611	-143.999	 60.96543	  1.70229	 48.58842	  8.75199	 40.35312	 -1.77393	 67.03390	701.89001	 36.60	
 13.601	-136.825	 61.01583	  3.56692	 46.06333	  6.48967	 43.32435	 -1.75207	 66.98749	701.87000	 36.60	
 13.596	-129.640	 61.10947	  5.72927	 43.20455	  4.44449	 45.99390	 -1.66831	 67.01642	701.88000	 36.60	
 13.611	-122.431	 61.16282	  8.41015	 40.07065	  2.72307	 48.36352	 -1.59674	 67.03706	701.78998	 36.60	
 13.604	-115.211	 61.20415	 11.37111	 36.77517	  1.33488	 50.27464	 -1.58816	 67.00414	701.82001	 36.60	
 13.595	-108.042	 61.29020	 14.51258	 33.33897	  0.37449	 51.74483	 -1.61438	 67.00209	701.78998	 36.60	
 13.607	-100.793	 61.33272	 17.83509	 29.73826	 -0.37996	 52.82896	 -1.62564	 67.01965	701.82001	 36.60	
 13.601	-93.617	 61.37904	 21.32702	 26.12519	 -0.74324	 53.36481	 -1.65715	 67.01250	701.91998	 36.60	
 13.601	-86.383	 61.43272	 24.88535	 22.57429	 -0.74726	 53.39820	 -1.65136	 67.00404	701.88000	 36.60	
 13.607	-79.207	 61.48606	 28.53813	 19.17129	 -0.34785	 52.93566	 -1.66016	 67.00350	701.85999	 36.60	
 13.595	-71.958	 61.56287	 32.25693	 15.89970	  0.40865	 51.88761	 -1.69555	 67.00008	701.88000	 36.60	
 13.604	-64.789	 61.62652	 35.76084	 12.88239	  1.46301	 50.44265	 -1.75047	 67.03030	701.90002	 36.60	
 13.611	-57.569	 61.63274	 39.09391	 10.05547	  2.86672	 48.45227	 -1.83806	 66.99160	701.96002	 36.60	
 13.596	-50.360	 61.70042	 42.18645	  7.48723	  4.66562	 46.31579	 -1.89152	 67.04652	701.92999	 36.60	
 13.601	-43.175	 61.72603	 45.17982	  5.21018	  6.75315	 43.68261	 -1.84514	 67.00543	701.79999	 36.70	
 13.611	-36.001	 61.71835	 47.66613	  3.30071	  9.06335	 40.38844	 -1.76095	 67.00243	701.82001	 36.70	
 13.609	-28.790	 61.76646	 49.81633	  1.73532	 11.12982	 37.01414	 -1.68141	 67.01688	701.88000	 36.70	
 13.601	-21.647	 61.75705	 51.46200	  0.52506	 14.00111	 33.52047	 -1.66512	 66.99123	701.94000	 36.70	
 13.611	-14.417	 61.73473	 52.64964	 -0.50481	 17.16136	 30.00020	 -1.67850	 67.00822	701.87000	 36.70	
 13.608	 -7.147	 61.74749	 53.35431	 -1.06000	 20.67671	 26.31467	 -1.68417	 67.04342	701.91998	 36.70	
 13.600	  0.000	 61.66890	 53.51206	 -1.26368	 24.16072	 22.70882	 -1.64977	 66.98958	701.95001	 36.70	
 13.608	  7.147	 61.61845	 53.22487	 -1.18582	 27.64957	 19.15409	 -1.58138	 66.99533	701.91998	 36.70	
 13.611	 14.417	 61.60215	 52.41502	 -0.67302	 31.25631	 15.71176	 -1.45159	 66.99801	701.97998	 36.70	
 13.601	 21.647	 61.57473	 51.03971	  0.18125	 35.10980	 12.53689	 -1.32275	 67.02102	701.95001	 36.70	
 13.609	 28.790	 61.50212	 49.23927	  1.31132	 38.57962	  9.61535	 -1.37196	 66.99845	701.84003	 36.70	
 13.611	 36.001	 61.44794	 47.03038	  2.81628	 41.88720	  6.91240	 -1.53848	 67.03661	701.88000	 36.70	
 13.601	 43.175	 61.33842	 44.31907	  4.72917	 44.80498	  4.55039	 -1.68235	 66.95139	701.85999	 36.70	
 13.596	 50.360	 61.31694	 41.36140	  7.04872	 47.33610	  2.52760	 -1.74575	 66.99346	701.90002	 36.70	
 13.611	 57.569	 61.27797	 38.14320	  9.65193	 49.73702	  0.67175	 -1.76589	 67.00872	701.92999	 36.70	
 13.604	 64.789	 61.19683	 34.77253	 12.36562	 51.56107	 -0.70372	 -1.84699	 67.00699	701.84003	 36.70	
 13.595	 71.958	 61.16351	 31.28855	 15.33112	 52.97434	 -1.56320	 -1.90468	 67.03442	701.92999	 36.70	
 13.607	 79.207	 61.07509	 27.53699	 18.55150	 53.96438	 -2.21964	 -1.95902	 67.01397	701.90002	 36.70	
 13.601	 86.383	 60.99432	 23.88568	 21.86499	 54.39166	 -2.58756	 -2.04513	 66.97905	701.90002	 36.70	
 13.601	 93.617	 60.94081	 20.32634	 25.36629	 54.38924	 -2.81774	 -2.02957	 67.01360	701.83002	 36.70	
 13.607	100.793	 60.89621	 16.83750	 29.04407	 53.80911	 -2.49728	 -1.97663	 67.01567	701.89001	 36.70	
 13.595	108.042	 60.81578	 13.53756	 32.68715	 52.73071	 -1.73978	 -1.99154	 66.97124	701.83002	 36.70	
 13.604	115.211	 60.80727	 10.55062	 36.21185	 51.39306	 -0.67238	 -2.08137	 67.00048	701.83002	 36.70	
 13.611	122.431	 60.76727	  7.77517	 39.53450	 49.54477	  0.75860	 -2.08914	 67.01338	701.90997	 36.70	
 13.596	129.640	 60.69728	  5.17751	 42.61913	 47.20388	  2.49651	 -2.16956	 66.98643	701.92999	 36.70	
 13.601	136.825	 60.67833	  3.01714	 45.58371	 44.47501	  4.56091	 -2.19900	 67.01958	701.82001	 36.80	
 13.611	143.999	 60.64814	  1.11816	 48.17898	 41.47058	  7.00519	 -2.13917	 66.99284	701.78998	 36.80	
 13.609	151.210	 60.64535	 -0.27366	 50.35190	 38.14000	  9.85764	 -2.14390	 66.99551	701.90997	 36.80	
 13.601	158.353	 60.64449	 -1.35789	 52.04361	 34.76490	 12.68306	 -2.16728	 66.99166	701.87000	 36.80	
 13.611	165.583	 60.67528	 -2.13859	 53.33044	 30.97544	 15.84078	 -2.18853	 67.01175	701.92999	 36.80	
 13.608	172.853	 60.72045	 -2.58815	 54.11653	 27.32295	 19.04854	 -2.17664	 66.99848	701.89001	 36.80	
 15.298	173.587	 58.90038	 -6.55397	 56.33213	 25.86853	 17.90970	 -2.49778	 67.02271	701.97998	 36.80	
 15.291	167.167	 58.84517	 -6.11209	 55.60277	 29.41576	 14.60665	 -2.57667	 66.97677	701.94000	 36.80	
 15.307	160.676	 58.81636	 -5.43618	 54.50455	 33.15715	 11.39489	 -2.60809	 66.99410	702.00000	 36.80	
 15.300	154.261	 58.84351	 -4.44840	 52.98249	 36.75830	  8.44605	 -2.64910	 67.01326	701.97998	 36.80	
 15.288	147.854	 58.84488	 -3.15837	 51.03298	 40.19369	  5.71764	 -2.67230	 67.00484	701.98999	 36.80	
 15.293	141.428	 58.89698	 -1.51767	 48.69900	 43.47394	  3.26940	 -2.73850	 67.04285	701.95001	 36.80	
 15.299	134.985	 58.87204	  0.34919	 45.93325	 46.09902	  1.01959	 -2.78961	 66.98492	701.96002	 36.80	
 15.305	128.583	 58.90567	  2.43798	 42.95282	 48.90519	 -1.05884	 -2.77346	 67.02270	701.89001	 36.90	
 15.309	122.142	 58.88881	  4.99758	 39.74881	 51.20589	 -2.81922	 -2.67631	 66.98576	701.92999	 36.90	
 15.304	115.711	 58.95710	  7.69820	 36.40256	 53.18718	 -4.26786	 -2.62782	 66.99162	701.91998	 36.90	
 15.297	109.291	 59.00070	 10.65966	 32.88124	 54.65794	 -5.37786	 -2.64770	 67.00478	701.85999	 36.90	
 15.293	102.897	 59.06987	 13.80523	 29.30225	 55.76293	 -6.17374	 -2.63594	 67.02847	702.07001	 36.90	
 15.293	 96.458	 59.09457	 17.20517	 25.58491	 56.52934	 -6.65058	 -2.66368	 67.00429	701.96002	 36.90	
 15.300	 90.000	 59.10294	 20.72147	 21.97376	 56.80240	 -6.80291	 -2.69920	 66.99267	701.96997	 36.90	
 15.293	 83.542	 59.24339	 24.28759	 18.75277	 56.58145	 -6.28167	 -2.67267	 67.01814	702.03003	 36.90	
 15.293	 77.103	 59.32414	 27.94245	 15.48833	 55.89907	 -5.87551	 -2.61871	 67.04021	702.06000	 36.90	
 15.297	 70.709	 59.38737	 31.59418	 12.40678	 54.86771	 -5.16185	 -2.60475	 67.03159	702.01001	 36.90	
 15.304	 64.289	 59.43737	 35.12907	  9.47916	 53.38133	 -4.21991	 -2.52555	 67.01507	702.01001	 36.90	
 15.309	 57.858	 59.51065	 38.55353	  6.67007	 51.48336	 -2.82948	 -2.42516	 67.01807	702.02002	 36.90	
 15.305	 51.417	 59.58065	 41.77080	  4.05080	 49.16896	 -1.14514	 -2.38447	 67.02669	702.03998	 36.90	
 15.299	 45.015	 59.63801	 44.85130	  1.83663	 46.41373	  0.77592	 -2.35649	 67.01328	702.06000	 36.90	
 15.293	 38.572	 59.68560	 47.60699	 -0.11398	 43.84548	  2.91143	 -2.21690	 67.01283	702.03998	 37.00	
 15.288	 32.146	 59.75741	 50.04492	 -1.73960	 40.65355	  5.41888	 -2.04668	 67.01378	702.03998	 36.90	
 15.300	 25.739	 59.77296	 52.06680	 -3.08087	 37.20043	  8.23716	 -1.95956	 66.98225	702.01001	 36.90	
 15.307	 19.324	 59.83002	 53.63124	 -4.05052	 33.18143	 11.21853	 -1.96088	 66.98463	702.07001	 36.90	
 15.291	 12.833	 59.96410	 54.85519	 -4.71057	 29.81939	 14.51607	 -2.03193	 67.06331	702.01001	 36.90	
 15.298	  6.413	 59.94155	 55.59133	 -5.14386	 26.18846	 17.83582	 -2.12371	 67.01119	702.09998	 37.00	
 15.300	  0.000	 59.96020	 55.91674	 -5.23362	 22.67262	 21.29688	 -2.18692	 67.02733	701.91998	 37.00	
 15.298	 -6.413	 59.97860	 55.75003	 -4.97919	 19.15957	 24.93095	 -2.15148	 67.00579	702.00000	 37.00	
 15.291	-12.833	 59.98077	 55.15234	 -4.65171	 15.72350	 28.54409	 -2.09238	 66.97998	701.84998	 37.00	
 15.307	-19.324	 60.02531	 54.17117	 -3.77757	 13.08605	 32.11545	 -2.03793	 67.02066	701.94000	 37.00	
 15.300	-25.739	 60.00033	 52.71004	 -2.64939	 10.42998	 35.56739	 -1.99152	 66.99021	701.94000	 37.00	
 15.288	-32.146	 59.98429	 50.85103	 -1.32150	  7.60265	 39.11653	 -1.98642	 67.00327	702.08002	 37.00	
 15.293	-38.572	 59.99397	 48.54930	  0.36901	  5.08669	 42.30615	 -2.02091	 67.00307	702.04999	 37.00	
 15.299	-45.015	 59.97040	 45.88001	  2.30599	  2.78996	 45.54346	 -2.05564	 67.01449	701.97998	 37.00	
 15.305	-51.417	 59.94574	 42.88752	  4.54645	  0.78442	 47.92359	 -2.01387	 67.03425	701.95001	 37.00	
 15.309	-57.858	 59.87326	 39.74154	  7.14757	 -0.88131	 50.27607	 -1.93610	 66.98898	702.06000	 37.00	
 15.304	-64.289	 59.87830	 36.39819	 10.01419	 -2.27598	 52.30233	 -1.86373	 67.02041	702.07001	 37.00	
 15.297	-70.709	 59.86036	 32.89207	 13.00177	 -3.26525	 53.84518	 -1.77308	 67.02810	702.07001	 37.00	
 15.293	-77.103	 59.75107	 29.21818	 16.13915	 -3.97521	 54.86917	 -1.70804	 66.95266	702.03003	 37.00	
 15.293	-83.542	 59.71063	 25.56572	 19.52247	 -4.39604	 55.55185	 -1.65775	 66.95992	702.01001	 37.00	
 15.300	-90.000	 59.65569	 22.02846	 22.90535	 -4.56635	 55.75016	 -1.63626	 66.96880	702.04999	 37.00	
 15.293	-96.458	 59.60934	 18.53085	 26.48153	 -4.44068	 55.49226	 -1.59022	 66.98360	701.94000	 37.00	
 15.293	-102.897	 59.54795	 15.08653	 30.10761	 -3.98177	 54.78983	 -1.60189	 66.96551	701.89001	 37.00	
 15.297	-109.291	 59.53429	 11.86732	 33.66591	 -3.28584	 53.73900	 -1.57200	 67.02087	701.94000	 37.00	
 15.304	-115.711	 59.40650	  8.76055	 37.08622	 -2.37016	 52.22059	 -1.55893	 66.99187	701.98999	 37.00	
 15.309	-122.142	 59.28911	  6.03671	 40.37282	 -1.04590	 50.24154	 -1.58954	 66.95172	701.92999	 37.00	
 15.305	-128.583	 59.28576	  3.37257	 43.53640	  0.63160	 47.81902	 -1.67541	 66.99431	702.03998	 37.00	
 15.299	-134.985	 59.28265	  1.00027	 46.50772	  2.59975	 45.19213	 -1.74092	 67.00629	701.97998	 37.00	
 15.293	-141.428	 59.23531	 -0.96678	 49.17432	  4.88037	 42.26591	 -1.82768	 67.00362	701.98999	 37.00	
 15.288	-147.854	 59.14035	 -2.65832	 51.42968	  7.37485	 39.00502	 -1.88145	 66.98880	701.96997	 37.00	
 15.300	-154.261	 59.09867	 -4.08644	 53.28807	 10.11401	 35.58633	 -1.94138	 66.98421	702.02002	 37.00	
 15.307	-160.676	 59.01856	 -5.27337	 54.72387	 12.53018	 32.14423	 -2.02383	 66.94698	701.98999	 37.00	
 15.291	-167.167	 58.97280	 -6.26744	 55.78554	 15.70214	 28.54055	 -2.12531	 67.00205	701.90002	 37.00	
 15.298	-173.587	 58.93130	 -6.63609	 56.37516	 19.08964	 24.84992	 -2.25958	 66.98177	701.90002	 37.00	
 15.300	180.000	 58.90905	 -6.69677	 56.55197	 22.46441	 21.20920	 -2.39748	 66.99070	701.88000	 37.00	
 17.000	180.000	 56.83903	-10.63836	 58.72100	 20.74991	 19.79839	 -2.50609	 66.99498	701.82001	 37.00	
 16.990	-174.179	 56.92008	-10.25823	 58.56532	 17.43676	 22.79297	 -2.34942	 66.99737	701.75000	 37.10	
 17.009	-168.383	 56.95199	-10.05914	 58.03889	 14.16287	 26.26881	 -2.18385	 67.02995	701.85999	 37.10	
 17.000	-162.596	 56.98243	 -9.46760	 57.00298	 11.62973	 30.32802	 -2.03700	 66.98899	701.83002	 37.10	
 16.990	-156.759	 57.03630	 -8.31750	 55.61106	  8.68239	 33.93789	 -1.93869	 66.96859	701.90002	 37.10	
 16.995	-150.919	 57.08505	 -6.98720	 53.92741	  5.83866	 37.39838	 -1.82554	 66.98490	701.94000	 37.10	
 16.988	-145.161	 57.16983	 -5.48939	 51.91780	  3.29371	 40.76682	 -1.75883	 67.00459	701.90997	 37.10	
 17.014	-139.343	 57.16818	 -3.76196	 49.50428	  0.89828	 43.92228	 -1.69646	 66.96574	701.90002	 37.10	
 17.007	-133.546	 57.25681	 -1.72504	 46.74347	 -1.23595	 46.70703	 -1.59333	 66.99159	701.95001	 37.10	
 17.001	-127.699	 57.29727	  0.56832	 43.64665	 -3.13172	 49.55021	 -1.51904	 66.99264	701.90997	 37.20	
 17.006	-121.937	 57.33797	  3.09759	 40.56813	 -4.71517	 51.83274	 -1.47371	 66.98947	701.90002	 37.20	
 17.002	-116.134	 57.39118	  6.03329	 37.25035	 -6.03818	 53.82956	 -1.43444	 66.98357	702.01001	 37.10	
 17.001	-110.310	 57.48858	  8.99799	 33.77916	 -7.02277	 55.49044	 -1.46168	 67.00504	702.03998	 37.20	
 16.988	-104.517	 57.57402	 12.08056	 30.18554	 -7.75549	 56.61729	 -1.45573	 66.98349	701.90002	 37.20	
 17.008	-98.662	 57.54796	 15.40830	 26.48773	 -8.39935	 57.46263	 -1.46596	 66.97025	702.07001	 37.20	
 16.996	-92.909	 57.64172	 18.84527	 23.00667	 -8.47870	 57.89841	 -1.46503	 67.01563	702.00000	 37.20	
 16.996	-87.091	 57.69618	 22.23616	 19.69230	 -8.45094	 57.92776	 -1.51087	 67.00448	701.96997	 37.20	
 17.012	-81.253	 57.65917	 25.74814	 16.29796	 -8.33779	 57.49718	 -1.60772	 66.94897	702.03003	 37.20	
 16.988	-75.483	 57.78700	 29.37232	 13.13745	 -7.77444	 56.71577	 -1.68780	 66.97952	702.03998	 37.20	
 17.001	-69.690	 57.81288	 33.00313	 10.04094	 -7.05755	 55.57439	 -1.71910	 66.94798	702.01001	 37.20	
 17.002	-63.866	 57.87896	 36.58813	  7.05949	 -6.00566	 53.93737	 -1.79055	 66.96835	702.03003	 37.20	
 17.006	-58.063	 57.91727	 39.95960	  4.23920	 -4.71702	 51.93554	 -1.83449	 67.00902	701.97998	 37.20	
 17.001	-52.301	 57.92323	 43.04288	  1.71766	 -3.15891	 49.75673	 -1.88897	 66.99470	701.95001	 37.20	
 17.007	-46.454	 57.95388	 46.15882	 -0.58211	 -1.28566	 47.14436	 -1.95169	 66.97078	701.97998	 37.20	
 17.014	-40.657	 57.98756	 49.00455	 -2.57118	  0.86837	 44.25830	 -2.01184	 66.99942	701.90997	 37.20	
 16.988	-34.839	 58.00010	 51.41726	 -4.28916	  3.31082	 41.10345	 -2.05142	 66.96000	701.90997	 37.20	
 16.995	-29.081	 58.00915	 53.44558	 -5.76346	  5.88096	 37.66776	 -2.09619	 66.97554	701.92999	 37.20	
 16.990	-23.241	 58.08717	 55.14924	 -6.90650	  8.86500	 34.01773	 -2.15605	 67.00738	702.00000	 37.20	
 17.000	-17.404	 58.03325	 56.44764	 -7.93108	 11.90961	 30.44812	 -2.24956	 66.97298	701.83002	 37.20	
 17.009	-11.617	 58.01025	 57.37839	 -8.68459	 14.90229	 26.84738	 -2.36162	 66.96607	701.87000	 37.30	
 16.990	 -5.821	 58.02996	 57.85051	 -8.77764	 17.53164	 23.33856	 -2.52814	 66.96430	701.85999	 37.20	
 17.000	  0.000	 57.96538	 58.00977	 -9.14854	 20.90969	 19.80434	 -2.64436	 66.96395	701.83002	 37.20	
 16.990	  5.821	 57.97631	 57.76030	 -9.09506	 24.53246	 16.46141	 -2.58832	 66.98613	701.97998	 37.20	
 17.009	 11.617	 57.88277	 57.03855	 -8.81198	 28.14928	 13.00790	 -2.58811	 66.95880	701.94000	 37.20	
 17.000	 17.404	 57.86331	 55.94405	 -8.14286	 31.77966	  9.85684	 -2.53192	 66.97234	701.92999	 37.20	
 16.990	 23.241	 57.83999	 54.46577	 -7.22139	 35.45417	  6.81552	 -2.52483	 66.99490	701.91998	 37.20	
 16.995	 29.081	 57.75602	 52.65696	 -6.12618	 39.13900	  3.90348	 -2.60004	 66.97160	702.01001	 37.20	
 16.988	 34.839	 57.65530	 50.46624	 -4.76939	 42.44285	  1.22179	 -2.77238	 66.96636	701.92999	 37.20	
 17.014	 40.657	 57.61175	 47.92151	 -3.05232	 45.39695	 -1.09026	 -2.92408	 66.96741	701.94000	 37.30	
 17.007	 46.454	 57.59676	 45.07912	 -1.07489	 48.16870	 -3.10477	 -3.01615	 67.00648	701.87000	 37.20	
 17.001	 52.301	 57.51555	 41.87217	  1.14833	 50.85692	 -4.93498	 -3.03019	 66.99015	701.90997	 37.30	
 17.006	 58.063	 57.41179	 38.65125	  3.64347	 53.02604	 -6.47042	 -3.07148	 66.94929	701.84003	 37.30	
 17.002	 63.866	 57.38496	 35.21923	  6.45402	 54.91678	 -7.81268	 -3.21111	 66.97733	701.89001	 37.30	
 17.001	 69.690	 57.34075	 31.67121	  9.37453	 56.39021	 -8.80396	 -3.28859	 66.96946	701.98999	 37.30	
 16.988	 75.483	 57.28128	 28.02945	 12.44679	 57.54028	 -9.49869	 -3.29615	 66.95537	702.00000	 37.30	
 17.012	 81.253	 57.20089	 24.41008	 15.58827	 58.41953	 -9.96121	 -3.37098	 66.98528	701.90997	 37.30	
 16.996	 87.091	 57.10000	 20.97877	 18.63446	 58.76273	-10.47563	 -3.39601	 66.95588	701.87000	 37.30	
 16.996	 92.909	 57.06078	 17.47395	 22.04141	 58.74202	-10.69160	 -3.36574	 66.99780	701.94000	 37.30	
 17.008	 98.662	 56.99038	 14.05854	 25.58866	 58.32576	-10.42245	 -3.32208	 66.97090	701.84998	 37.30	
 16.988	104.517	 56.97411	 10.78833	 29.27637	 57.44561	 -9.76700	 -3.29081	 66.95273	701.85999	 37.30	
 17.001	110.310	 56.92521	  7.72598	 32.88806	 56.16110	 -8.89226	 -3.27083	 66.95380	701.87000	 37.30	
 17.002	116.134	 56.88234	  4.75800	 36.46990	 54.68963	 -7.83332	 -3.24093	 66.99258	701.84003	 37.30	
 17.006	121.937	 56.80174	  2.05535	 39.81156	 52.72717	 -6.39995	 -3.26114	 66.96143	701.92999	 37.30	
 17.001	127.699	 56.80407	 -0.27403	 42.96651	 50.47403	 -4.75514	 -3.31287	 66.95011	702.03998	 37.30	
 17.007	133.546	 56.81338	 -2.39306	 46.12389	 47.75443	 -2.72464	 -3.31333	 66.97742	701.89001	 37.30	
 17.014	139.343	 56.78471	 -4.41873	 49.00404	 45.05769	 -0.56477	 -3.25210	 67.00420	702.01001	 37.30	
 16.988	145.161	 56.75583	 -6.09551	 51.41023	 42.01480	  1.73779	 -3.16474	 66.94633	701.84998	 37.30	
 16.995	150.919	 56.72787	 -7.60049	 53.54472	 38.64187	  4.18060	 -3.04557	 66.98164	701.88000	 37.30	
 16.990	156.759	 56.76802	 -8.70715	 55.31966	 35.04202	  6.99916	 -2.97208	 66.99846	701.84998	 37.30	
 17.000	162.596	 56.74368	 -9.54082	 56.71461	 31.35049	  9.95352	 -2.87148	 66.97026	701.82001	 37.30	
 17.009	168.383	 56.76508	-10.19849	 57.80163	 27.75993	 13.15110	 -2.77725	 66.99664	701.85999	 37.30	
 16.990	174.179	 56.80120	-10.58998	 58.49711	 24.17529	 16.52017	 -2.66624	 66.96315	701.82001	 37.30	
 18.709	174.675	 54.45025	-14.52417	 60.30645	 22.26366	 14.91831	 -2.55931	 66.94543	701.88000	 37.30	
 18.703	169.441	 54.42510	-14.17911	 59.70489	 25.83657	 11.63282	 -2.73363	 66.94503	701.89001	 37.30	
 18.691	164.085	 54.41818	-13.56341	 58.75370	 29.45651	  8.45306	 -2.91171	 66.92744	701.88000	 37.40	
 18.706	158.818	 54.39478	-12.84213	 57.44917	 32.94729	  5.50590	 -3.05130	 66.92905	701.90002	 37.40	
 18.695	153.537	 54.43138	-11.80694	 55.76200	 36.70808	  2.74388	 -3.23435	 66.96053	701.82001	 37.40	
 18.704	148.255	 54.42309	-10.55619	 53.83822	 40.22631	  0.11462	 -3.34260	 66.94453	701.83002	 37.40	
 18.698	142.952	 54.46899	 -9.01871	 51.59995	 43.46510	 -2.21793	 -3.44372	 66.94476	702.06000	 37.40	
 18.699	137.625	 54.47234	 -7.21631	 48.94692	 46.20879	 -4.44184	 -3.56942	 66.93494	701.96997	 37.40	
 18.705	132.343	 54.50954	 -5.21262	 46.02491	 49.22439	 -6.55541	 -3.67041	 66.95809	701.84998	 37.40	
 18.713	127.067	 54.50996	 -3.04933	 42.87420	 51.81152	 -8.42758	 -3.73305	 66.92717	701.88000	 37.40	
 18.700	121.794	 54.57462	 -0.65109	 39.70758	 53.98254	 -9.88072	 -3.71558	 66.91908	701.90997	 37.40	
 18.698	116.504	 54.62935	  1.84781	 36.34695	 55.90579	-11.23860	 -3.71786	 66.94451	701.89001	 37.40	
 18.707	111.165	 54.61848	  4.67207	 32.71259	 57.64344	-12.44568	 -3.76794	 66.90763	702.00000	 37.40	
 18.690	105.863	 54.68479	  7.73391	 29.09601	 58.98814	-13.33600	 -3.82547	 66.93835	701.94000	 37.40	
 18.696	100.583	 54.71808	 10.84364	 25.44740	 59.87907	-14.01727	 -3.87614	 66.95310	701.84998	 37.40	
 18.700	 95.309	 54.72850	 14.14968	 21.87655	 60.42241	-14.40532	 -3.90546	 66.93410	701.97998	 37.40	
 18.700	 90.000	 54.77758	 17.62092	 18.35558	 60.72241	-14.54639	 -3.99893	 66.94711	702.00000	 37.40	
 18.700	 84.691	 54.88094	 20.93110	 15.35079	 60.58777	-14.06516	 -4.02574	 66.94956	701.96002	 37.40	
 18.696	 79.417	 54.93981	 24.27458	 12.37728	 59.93699	-13.74064	 -3.96508	 66.91044	702.02002	 37.40	
 18.690	 74.137	 55.01635	 27.89360	  9.23012	 59.06381	-13.26225	 -3.89031	 66.91696	701.96002	 37.40	
 18.707	 68.835	 55.07421	 31.54634	  6.19463	 57.89362	-12.52030	 -3.84875	 66.92783	701.90997	 37.40	
 18.698	 63.496	 55.17196	 35.22494	  3.34082	 56.16205	-11.37326	 -3.77609	 66.93634	701.97998	 37.40	
 18.700	 58.206	 55.23007	 38.66637	  0.68195	 54.29527	-10.06918	 -3.67191	 66.95189	701.90002	 37.40	
 18.713	 52.933	 55.27841	 41.77059	 -1.75553	 52.14339	 -8.68973	 -3.62703	 66.96582	701.96002	 37.40	
 18.705	 47.657	 55.30104	 44.97155	 -3.94109	 49.55669	 -6.97974	 -3.56888	 66.91274	701.84998	 37.40	
 18.699	 42.375	 55.38746	 48.02525	 -5.89123	 46.61040	 -5.01817	 -3.50900	 66.94427	701.90997	 37.40	
 18.698	 37.048	 55.43978	 50.70379	 -7.65721	 43.87929	 -2.75269	 -3.37314	 66.93307	701.97998	 37.40	
 18.704	 31.745	 55.47687	 53.03623	 -9.19933	 40.69993	 -0.33606	 -3.22369	 66.94091	701.91998	 37.40	
 18.695	 26.463	 55.56050	 55.01019	-10.36721	 37.17667	  2.39705	 -3.07088	 66.92186	702.07001	 37.40	
 18.706	 21.182	 55.59449	 56.68301	-11.38646	 33.50707	  5.26039	 -3.01562	 66.92208	702.10999	 37.40	
 18.691	 15.915	 55.65603	 58.02400	-12.20685	 29.98917	  8.21030	 -2.95404	 66.92569	701.95001	 37.50	
 18.703	 10.559	 55.66442	 59.07362	-12.81077	 26.28737	 11.46154	 -2.92132	 66.90128	702.00000	 37.40	
 18.709	  5.325	 55.69640	 59.73485	-13.08070	 22.63750	 14.65341	 -2.90402	 66.93513	701.95001	 37.50	
 18.700	  0.000	 55.72515	 59.97332	-13.06237	 19.01787	 18.06333	 -2.84482	 66.92755	701.97998	 37.50	
 18.709	 -5.325	 55.77886	 59.86923	-12.80780	 16.49688	 21.37189	 -2.68317	 66.92731	701.97998	 37.50	
 18.703	-10.559	 55.82878	 59.47009	-12.74135	 13.54613	 24.85616	 -2.40422	 66.97306	701.92999	 37.50	
 18.691	-15.915	 55.82016	 58.57016	-12.02787	 10.29581	 28.59747	 -2.27113	 66.91396	701.90002	 37.50	
 18.706	-21.182	 55.80021	 57.35176	-11.15116	  7.14060	 32.27371	 -2.17328	 66.91826	701.96002	 37.50	
 18.695	-26.463	 55.79584	 55.76205	-10.05888	  4.21593	 35.77066	 -2.04148	 66.93188	701.87000	 37.50	
 18.704	-31.745	 55.76842	 53.92147	 -8.78579	  1.62075	 39.21039	 -1.95969	 66.89851	701.94000	 37.50	
 18.698	-37.048	 55.75557	 51.72935	 -7.22056	 -0.89544	 42.63730	 -1.91766	 66.90688	702.02002	 37.50	
 18.699	-42.375	 55.71465	 49.12412	 -5.40437	 -3.19159	 45.77405	 -1.83467	 66.91402	701.98999	 37.50	
 18.705	-47.657	 55.69847	 46.22275	 -3.41271	 -5.18947	 48.47861	 -1.74900	 66.91235	702.01001	 37.50	
 18.713	-52.933	 55.68431	 43.10833	 -1.15620	 -6.88718	 51.10668	 -1.69359	 66.90549	702.00000	 37.50	
 18.700	-58.206	 55.67323	 40.00056	  1.28381	 -8.37178	 53.39342	 -1.61634	 66.93024	702.00000	 37.50	
 18.698	-63.496	 55.62336	 36.61837	  3.97424	 -9.66419	 55.40477	 -1.58523	 66.90196	701.96002	 37.50	
 18.707	-68.835	 55.52962	 33.00349	  6.85194	-10.69933	 56.94152	 -1.56639	 66.86894	701.90002	 37.50	
 18.690	-74.137	 55.50234	 29.36382	  9.94682	-11.35434	 58.21862	 -1.59858	 66.88472	702.02002	 37.50	
 18.696	-79.417	 55.45032	 25.75885	 13.12165	-11.90626	 59.21129	 -1.51873	 66.91943	702.02002	 37.50	
 18.700	-84.691	 55.41436	 22.20483	 16.37262	-12.10252	 59.77456	 -1.47118	 66.93254	701.98999	 37.50	
 18.700	-90.000	 55.33621	 18.89860	 19.53332	-12.11643	 59.90355	 -1.36836	 66.88723	701.98999	 37.50	
 18.700	-95.309	 55.30198	 15.59036	 22.82527	-12.25982	 59.74841	 -1.33061	 66.91782	701.94000	 37.50	
 18.696	-100.583	 55.24182	 12.14476	 26.40003	-12.07641	 59.12064	 -1.30836	 66.88384	702.10999	 37.50	
 18.690	-105.863	 55.25745	  9.17998	 30.02934	-11.52772	 58.27264	 -1.32492	 66.93525	702.06000	 37.50	
 18.707	-111.165	 55.14249	  6.07153	 33.59293	-10.74076	 56.93679	 -1.32004	 66.89987	702.06000	 37.50	
 18.698	-116.504	 55.08933	  3.02410	 37.12799	 -9.70935	 55.21292	 -1.31117	 66.89985	701.91998	 37.60	
 18.700	-121.794	 55.07949	  0.23762	 40.44224	 -8.39570	 53.16474	 -1.30846	 66.91288	702.04999	 37.60	
 18.713	-127.067	 55.01365	 -2.19568	 43.58267	 -6.83630	 50.89304	 -1.34794	 66.92639	701.91998	 37.60	
 18.705	-132.343	 54.96612	 -4.39282	 46.64952	 -5.04379	 48.23640	 -1.39596	 66.91870	701.96002	 37.60	
 18.699	-137.625	 54.94959	 -6.39759	 49.50875	 -3.02083	 45.38375	 -1.48399	 66.90822	701.98999	 37.60	
 18.698	-142.952	 54.90134	 -8.26471	 52.04157	 -0.77473	 42.27147	 -1.56456	 66.92291	701.95001	 37.60	
 18.704	-148.255	 54.82890	 -9.93014	 54.26849	  1.66385	 38.81839	 -1.61515	 66.92482	702.01001	 37.60	
 18.695	-153.537	 54.76495	-11.28005	 56.07196	  4.28513	 35.55791	 -1.73456	 66.92539	701.92999	 37.60	
 18.706	-158.818	 54.72827	-12.50346	 57.72435	  7.09678	 32.04022	 -1.80337	 66.93790	701.91998	 37.60	
 18.691	-164.085	 54.59136	-13.47132	 58.91649	 10.05795	 28.30393	 -1.94291	 66.86184	701.89001	 37.60	
 18.703	-169.441	 54.59601	-13.95886	 59.81788	 13.14792	 24.30028	 -2.15411	 66.91728	701.91998	 37.60	
 18.709	-174.675	 54.50307	-14.44143	 60.37654	 15.81993	 21.11782	 -2.25746	 66.90257	701.89001	 37.60	
 18.700	180.000	 54.48256	-14.59901	 60.49961	 18.77583	 18.18719	 -2.41166	 66.91794	701.88000	 37.60	
 20.400	180.000	 52.00457	-18.29292	 62.05297	 16.71749	 16.35221	 -2.18560	 66.91621	701.90997	 37.60	
 20.401	-175.153	 52.01800	-18.16977	 61.91640	 14.53383	 19.16415	 -2.09850	 66.87238	701.92999	 37.60	
 20.407	-170.264	 52.06096	-17.94728	 61.50893	 11.51738	 22.46938	 -1.98409	 66.88483	701.96997	 37.60	
 20.410	-165.423	 52.08118	-17.38528	 60.70508	  8.44940	 26.05859	 -1.79829	 66.87154	701.87000	 37.60	
 20.392	-160.496	 52.16874	-16.49361	 59.53591	  5.46991	 29.91033	 -1.69368	 66.86936	701.96997	 37.60	
 20.401	-155.705	 52.23200	-15.45547	 58.09569	  2.68247	 33.49185	 -1.59533	 66.89912	701.84998	 37.60	
 20.405	-150.835	 52.30481	-14.18931	 56.34432	  0.08845	 36.85594	 -1.53601	 66.90889	701.94000	 37.60	
 20.397	-145.903	 52.37759	-12.68336	 54.27726	 -2.44816	 40.25984	 -1.42481	 66.86563	701.90002	 37.60	
 20.392	-141.062	 52.48151	-10.92910	 51.96089	 -4.71370	 43.62411	 -1.42044	 66.90578	701.92999	 37.60	
 20.396	-136.227	 52.54435	 -9.06152	 49.35763	 -6.79566	 46.68277	 -1.36169	 66.89936	701.90002	 37.60	
 20.408	-131.372	 52.52856	 -7.11147	 46.46125	 -8.75245	 49.39719	 -1.31899	 66.90153	701.96002	 37.60	
 20.410	-126.511	 52.54533	 -4.96309	 43.28572	-10.52961	 51.92367	 -1.28172	 66.87639	701.91998	 37.60	
 20.400	-121.604	 52.60113	 -2.50050	 40.11301	-12.03029	 54.31390	 -1.22613	 66.88127	701.94000	 37.60	
 20.403	-116.741	 52.57651	  0.07599	 36.80224	-13.26456	 56.37173	 -1.23843	 66.85953	701.96997	 37.60	
 20.413	-111.900	 52.61924	  2.88675	 33.36357	-14.21495	 58.08346	 -1.24791	 66.87480	702.01001	 37.60	
 20.398	-107.004	 52.75606	  6.02672	 29.78337	-14.93058	 59.48866	 -1.26734	 66.89351	701.90002	 37.60	
 20.394	-102.132	 52.79543	  9.19852	 26.18935	-15.46135	 60.56432	 -1.22118	 66.86922	701.95001	 37.60	
 20.403	-97.332	 52.83321	 12.31661	 22.65801	-15.74335	 61.18130	 -1.24419	 66.85213	701.97998	 37.60	
 20.392	-92.440	 52.88184	 15.64805	 19.17630	-15.77985	 61.51231	 -1.23939	 66.86846	702.02002	 37.60	
 20.392	-87.560	 52.92478	 18.66927	 16.21077	-15.65977	 61.56044	 -1.31733	 66.84861	702.04999	 37.60	
 20.403	-82.668	 52.94755	 21.98204	 13.05164	-15.82327	 61.26878	 -1.40068	 66.88494	701.94000	 37.60	
 20.394	-77.868	 52.98638	 25.54090	  9.86183	-15.54693	 60.64910	 -1.42772	 66.87103	702.03003	 37.70	
 20.398	-72.996	 53.02847	 29.10659	  6.76487	-14.99729	 59.64866	 -1.45809	 66.82816	702.06000	 37.70	
 20.413	-68.100	 53.03370	 32.73767	  3.72020	-14.31104	 58.26968	 -1.46127	 66.82883	702.09998	 37.70	
 20.403	-63.259	 53.10043	 36.31099	  0.92484	-13.31104	 56.67880	 -1.44825	 66.84882	702.06000	 37.70	
 20.400	-58.396	 53.13440	 39.66853	 -1.60019	-12.05058	 54.70985	 -1.44481	 66.82185	702.07001	 37.70	
 20.410	-53.489	 53.19124	 42.87217	 -3.96775	-10.61129	 52.39328	 -1.50986	 66.84044	701.97998	 37.70	
 20.408	-48.628	 53.20863	 45.99900	 -6.17804	 -8.98924	 49.72917	 -1.56034	 66.80360	702.04999	 37.70	
 20.396	-43.773	 53.24748	 48.96579	 -8.15219	 -7.17876	 47.01419	 -1.61968	 66.82406	702.00000	 37.70	
 20.392	-38.938	 53.28806	 51.67909	 -9.98322	 -5.11786	 44.01235	 -1.66820	 66.87392	702.00000	 37.70	
 20.397	-34.097	 53.29609	 53.98268	-11.59802	 -2.78620	 40.79819	 -1.74901	 66.86182	702.15002	 37.70	
 20.405	-29.165	 53.28730	 56.02513	-13.06955	 -0.21049	 37.12117	 -1.84545	 66.84875	702.06000	 37.70	
 20.401	-24.295	 53.29269	 57.84540	-14.26979	  2.48570	 33.84837	 -1.98162	 66.84590	702.15002	 37.70	
 20.392	-19.504	 53.32673	 59.26683	-15.19338	  5.44010	 30.33169	 -2.07138	 66.84364	702.06000	 37.70	
 20.410	-14.577	 53.32974	 60.44407	-16.05135	  8.61518	 26.53572	 -2.22574	 66.88014	702.02002	 37.70	
 20.407	 -9.736	 53.28330	 61.10327	-16.52800	 11.79241	 22.75130	 -2.37531	 66.83276	702.09998	 37.70	
 20.401	 -4.847	 53.29618	 61.48848	-16.57820	 14.42580	 19.76696	 -2.68422	 66.83810	702.02002	 37.70	
 20.400	  0.000	 53.25412	 61.59282	-16.79007	 17.73658	 16.38961	 -2.81205	 66.83358	702.03003	 37.70	
 20.401	  4.847	 53.23346	 61.38478	-16.82559	 20.52112	 12.97541	 -2.94054	 66.83240	702.03003	 37.70	
 20.407	  9.736	 53.18609	 60.81253	-16.62433	 24.21672	  9.59198	 -3.03407	 66.83077	702.03998	 37.70	
 20.410	 14.577	 53.14338	 59.90663	-16.17295	 27.85268	  6.54356	 -3.15480	 66.83907	701.96997	 37.70	
 20.392	 19.504	 53.12128	 58.61271	-15.38467	 31.48682	  3.71438	 -3.30698	 66.83051	701.96997	 37.70	
 20.401	 24.295	 53.07631	 57.17273	-14.50549	 35.01105	  0.76060	 -3.43523	 66.86726	701.91998	 37.70	
 20.405	 29.165	 52.96707	 55.22938	-13.46293	 38.49852	 -1.93175	 -3.59427	 66.82536	701.94000	 37.70	
 20.397	 34.097	 52.98045	 52.99122	-12.09974	 41.99786	 -4.48447	 -3.71155	 66.86556	701.97998	 37.70	
 20.392	 38.938	 52.92097	 50.57512	-10.45854	 45.15013	 -6.75309	 -3.85187	 66.84376	702.03998	 37.70	
 20.396	 43.773	 52.85186	 47.86011	 -8.75213	 47.73624	 -8.85579	 -3.95704	 66.84019	702.00000	 37.70	
 20.408	 48.628	 52.77559	 44.70023	 -6.84072	 50.70219	-10.70970	 -4.03620	 66.82755	701.85999	 37.70	
 20.410	 53.489	 52.74937	 41.50525	 -4.61691	 53.15385	-12.19525	 -4.11096	 66.83607	701.87000	 37.70	
 20.400	 58.396	 52.67797	 38.35521	 -2.28055	 55.38419	-13.64176	 -4.17429	 66.82581	702.02002	 37.70	
 20.403	 63.259	 52.59930	 34.86624	  0.26077	 57.28809	-14.96786	 -4.27111	 66.82252	702.00000	 37.70	
 20.413	 68.100	 52.52747	 31.23273	  2.96298	 58.97252	-16.11442	 -4.32340	 66.84760	701.98999	 37.70	
 20.398	 72.996	 52.49680	 27.53354	  5.90577	 60.30731	-16.93637	 -4.37381	 66.86730	701.85999	 37.70	
 20.394	 77.868	 52.43343	 23.88885	  8.98716	 61.27144	-17.46484	 -4.46971	 66.85229	701.96002	 37.80	
 20.403	 82.668	 52.31649	 20.59790	 11.80372	 61.84717	-17.76032	 -4.57429	 66.84927	702.00000	 37.80	
 20.392	 87.560	 52.25017	 17.53808	 14.55292	 62.13899	-18.11471	 -4.53678	 66.85786	701.85999	 37.80	
 20.392	 92.440	 52.18830	 14.12755	 17.92474	 62.11560	-18.21186	 -4.42177	 66.85162	701.96002	 37.80	
 20.403	 97.332	 52.17485	 10.67696	 21.53778	 61.80730	-17.97524	 -4.40938	 66.88359	701.84998	 37.80	
 20.394	102.132	 52.13463	  7.57774	 25.08084	 61.15079	-17.53907	 -4.32355	 66.85218	701.94000	 37.80	
 20.398	107.004	 52.07509	  4.48623	 28.69610	 60.14074	-16.88736	 -4.25069	 66.81800	702.00000	 37.80	
 20.413	111.900	 52.05302	  1.55948	 32.36867	 58.76712	-15.91285	 -4.21202	 66.84048	701.98999	 37.80	
 20.403	116.741	 52.07199	 -1.01650	 35.92312	 57.14017	-14.71344	 -4.13535	 66.85583	701.94000	 37.80	
 20.400	121.604	 52.03548	 -3.46862	 39.28763	 55.16837	-13.46746	 -4.08403	 66.83315	701.95001	 37.80	
 20.410	126.511	 51.99114	 -5.78733	 42.55037	 52.96634	-11.94549	 -3.99174	 66.81478	701.90997	 37.80	
 20.408	131.372	 51.95941	 -7.96676	 45.70314	 50.41567	-10.18091	 -3.90679	 66.84344	701.88000	 37.80	
 20.396	136.227	 51.93864	 -9.93616	 48.65258	 47.42025	 -8.24218	 -3.75179	 66.84077	702.01001	 37.80	
 20.392	141.062	 51.95037	-11.72086	 51.36839	 44.72569	 -6.16857	 -3.65006	 66.84610	701.92999	 37.80	
 20.397	145.903	 51.93292	-13.45003	 53.77502	 41.54156	 -3.93465	 -3.50452	 66.85069	701.98999	 37.80	
 20.405	150.835	 51.85425	-14.92005	 55.88599	 38.09875	 -1.53496	 -3.33628	 66.85208	701.91998	 37.80	
 20.401	155.705	 51.85302	-15.86292	 57.71355	 34.35027	  1.11763	 -3.16977	 66.84392	702.07001	 37.80	
 20.392	160.496	 51.86757	-16.70107	 59.20993	 30.92492	  3.92029	 -2.94211	 66.84071	702.02002	 37.80	
 20.410	165.423	 51.86206	-17.44715	 60.47636	 27.33774	  6.88685	 -2.74591	 66.85218	702.00000	 37.80	
 20.407	170.264	 51.88943	-17.91361	 61.31943	 23.77642	  9.93565	 -2.54642	 66.85340	702.03003	 37.80	
 20.401	175.153	 51.92617	-18.18774	 61.80899	 20.13824	 13.17751	 -2.37635	 66.85544	702.03998	 37.80	
  0.141	 45.000	 66.84838	 28.38136	 29.47055	 29.95561	 27.90457	  1.60578	 66.85968	702.01001	 37.80	
  4.001	128.691	 66.53738	 22.08445	 34.51226	 35.90368	 21.08858	  1.26493	 66.88121	701.90002	 37.80	
  4.002	 76.995	 66.62830	 29.40052	 27.20838	 37.65861	 19.56024	  1.48110	 66.87441	701.96002	 37.80	
  4.002	 25.892	 66.72860	 35.46370	 21.66860	 33.01513	 23.92395	  1.54941	 66.87197	702.06000	 37.80	
  4.002	-25.892	 66.76376	 35.63704	 21.77980	 25.40749	 31.40529	  1.40826	 66.90727	702.14001	 37.80	
  4.002	-76.995	 66.68149	 29.77084	 27.39669	 20.99824	 36.62939	  1.18491	 66.86265	702.00000	 37.80	
  4.001	-128.691	 66.56480	 22.40070	 34.65250	 22.41501	 34.56414	  1.06792	 66.85480	702.03003	 37.80	
  4.000	180.000	 66.49268	 19.15436	 37.77354	 29.09142	 27.55666	  1.09359	 66.86822	702.03003	 37.80	
  8.000	180.000	 64.98138	 10.16957	 45.33028	 27.47608	 26.23237	  0.07696	 66.86115	702.01001	 37.80	
  7.991	-152.370	 65.05029	 12.00056	 43.27710	 19.98380	 34.25564	 -0.11040	 66.82592	701.96997	 37.80	
  7.997	-124.550	 65.18392	 17.12790	 37.58349	 14.46138	 41.01400	  0.00515	 66.85585	702.00000	 37.80	
  8.006	-96.837	 65.31939	 24.57181	 29.86362	 11.82414	 44.22703	  0.03084	 66.84107	702.09998	 37.80	
  7.988	-69.228	 65.46826	 32.80844	 21.99869	 12.70033	 43.31916	  0.17869	 66.86977	701.94000	 37.80	
  7.997	-41.563	 65.52454	 39.68012	 15.86478	 16.99200	 38.44741	  0.37847	 66.85834	702.04999	 37.80	
  8.008	-13.821	 65.57613	 43.78199	 12.43047	 23.68602	 30.35900	  0.66476	 66.88659	702.06000	 37.80	
  8.008	 13.821	 65.46289	 43.58713	 12.15523	 31.83695	 22.24733	  0.83788	 66.86650	701.98999	 37.80	
  7.997	 41.563	 65.37476	 39.15524	 15.54559	 39.35473	 15.28083	  0.81792	 66.86214	702.03003	 37.80	
  7.988	 69.228	 65.24660	 31.99643	 21.62630	 44.17509	 11.12296	  0.73167	 66.86157	702.07001	 37.80	
  8.006	 96.837	 65.06244	 23.70360	 29.45606	 45.22858	 10.17781	  0.56731	 66.82568	701.96002	 37.80	
  7.997	124.550	 64.97453	 16.47584	 37.23492	 42.13364	 12.72828	  0.39798	 66.84515	701.97998	 37.80	
  7.991	152.370	 64.94178	 11.63375	 43.09871	 35.59551	 18.45836	  0.21874	 66.86903	701.98999	 37.90	
 12.009	161.059	 62.05016	  1.82688	 50.34021	 33.47606	 15.88545	 -1.74732	 66.84668	702.00000	 37.90	
 12.013	142.081	 62.06020	  4.92787	 45.86244	 41.23793	  9.20465	 -1.64565	 66.86271	702.00000	 37.90	
 12.006	123.113	 62.09323	 10.25536	 39.05475	 47.35867	  4.24266	 -1.48466	 66.83189	701.98999	 37.90	
 12.007	104.200	 62.25469	 17.21509	 31.22111	 51.00008	  1.55604	 -1.24009	 66.86351	702.07001	 37.90	
 11.989	 85.301	 62.39888	 25.35786	 22.82353	 51.88090	  1.10058	 -1.35244	 66.87547	701.96002	 37.90	
 12.013	 66.294	 62.50688	 33.86798	 15.27252	 49.78193	  2.64613	 -1.23453	 66.85856	702.06000	 37.90	
 12.012	 47.388	 62.62928	 41.35300	  9.20630	 44.79897	  6.55598	 -1.14751	 66.83723	702.09003	 37.90	
 11.990	 28.440	 62.80125	 47.26439	  4.95637	 37.86040	 12.36395	 -0.82647	 66.82806	702.14001	 37.90	
 11.991	  9.464	 62.92227	 50.56083	  2.72500	 29.38280	 19.79674	 -0.97784	 66.85126	702.03998	 37.90	
 11.991	 -9.464	 63.01255	 50.79286	  2.82313	 21.18205	 28.15623	 -1.02620	 66.87840	702.08002	 37.90	
 11.990	-28.440	 63.01351	 47.93314	  5.31715	 13.69798	 36.41354	 -1.27350	 66.88293	702.10999	 37.90	
 12.012	-47.388	 62.94699	 42.30161	  9.52658	  8.36385	 43.92573	 -1.30393	 66.87239	702.12000	 37.90	
 12.013	-66.294	 62.84814	 34.93845	 15.72522	  4.69689	 48.65106	 -1.53144	 66.81589	702.12000	 37.90	
 11.989	-85.301	 62.74776	 26.49952	 23.42852	  3.03454	 50.76011	 -1.49735	 66.85207	702.02002	 37.90	
 12.007	-104.200	 62.61572	 18.23648	 31.78541	  3.57449	 49.93504	 -1.49904	 66.84905	701.94000	 37.90	
 12.006	-123.113	 62.47871	 11.11872	 39.55658	  6.26245	 46.22196	 -1.47330	 66.84717	701.98999	 37.90	
 12.013	-142.081	 62.37127	  5.57343	 46.25770	 10.54554	 40.17207	 -1.56490	 66.87578	702.00000	 37.90	
 12.009	-161.059	 62.21393	  2.16783	 50.52046	 17.21358	 32.27910	 -1.56737	 66.84937	701.97998	 37.90	
 16.000	180.000	 57.97907	 -8.24662	 57.26802	 21.71657	 20.60130	 -2.49338	 66.82609	702.04999	 37.90	
 15.990	-165.604	 58.07234	 -7.61961	 56.24804	 13.96528	 29.04767	 -2.12430	 66.86435	702.06000	 37.90	
 16.002	-151.165	 58.15585	 -4.92391	 52.99316	  7.53471	 37.17995	 -1.87686	 66.82977	702.04999	 37.90	
 16.002	-136.836	 58.31163	 -0.93903	 47.61749	  1.85395	 44.65738	 -1.75977	 66.83820	701.98999	 37.90	
 15.995	-122.439	 58.42481	  4.68386	 40.59008	 -2.48429	 50.74697	 -1.55516	 66.87573	702.13000	 37.90	
 15.993	-107.966	 58.58144	 11.52765	 32.62698	 -5.02727	 54.70840	 -1.56187	 66.81715	702.07001	 37.90	
 16.005	-93.629	 58.67506	 19.33311	 24.23015	 -6.18046	 56.49310	 -1.59292	 66.83141	702.02002	 37.90	
 15.992	-79.234	 58.79597	 27.55141	 16.34864	 -5.83721	 55.92356	 -1.69999	 66.83559	702.13000	 37.90	
 16.009	-64.774	 58.95829	 36.03858	  9.11647	 -3.95620	 53.12172	 -1.87011	 66.87269	702.01001	 37.90	
 15.997	-50.364	 58.98802	 43.55545	  2.83885	 -0.41750	 47.96674	 -2.03109	 66.83427	702.03003	 37.90	
 15.997	-36.045	 59.08611	 50.02982	 -1.82700	  4.65566	 41.33835	 -2.07420	 66.85988	702.13000	 37.90	
 16.000	-21.597	 59.07782	 54.30920	 -4.94372	 11.18987	 33.17976	 -2.14020	 66.81418	702.03998	 37.90	
 16.003	 -7.169	 59.05228	 56.42013	 -6.48695	 17.85377	 24.93823	 -2.33183	 66.81329	702.02002	 37.90	
 16.003	  7.169	 58.98494	 56.26314	 -6.72579	 25.99337	 16.72164	 -2.36200	 66.82545	702.02002	 37.90	
 16.000	 21.597	 58.91336	 53.75305	 -5.28208	 34.56336	  9.16125	 -2.23509	 66.83772	702.08002	 37.90	
 15.997	 36.045	 58.76459	 49.09187	 -2.28948	 42.74182	  2.57938	 -2.44290	 66.85825	702.07001	 37.90	
 15.997	 50.364	 58.61240	 42.43486	  2.32317	 49.17017	 -2.22385	 -2.67528	 66.82610	702.03003	 37.90	
 16.009	 64.774	 58.47507	 34.75035	  8.50653	 54.09691	 -5.76427	 -2.84435	 66.83022	702.03003	 37.90	
 15.992	 79.234	 58.34608	 26.23447	 15.69642	 56.91109	 -7.52085	 -2.92223	 66.84270	702.08002	 37.90	
 16.005	 93.629	 58.14797	 17.99105	 23.30141	 57.37300	 -8.37433	 -3.00432	 66.83986	702.00000	 37.90	
 15.993	107.966	 58.03654	 10.27741	 31.79305	 55.52898	 -7.10765	 -2.92761	 66.83680	701.96002	 37.90	
 15.995	122.439	 57.98255	  3.61017	 39.93961	 51.62992	 -4.15470	 -2.95182	 66.86765	702.10999	 37.90	
 16.002	136.836	 57.90695	 -1.54882	 47.09328	 45.45122	  0.39635	 -3.01565	 66.80166	702.03003	 37.90	
 16.002	151.165	 57.86605	 -5.42687	 52.65602	 38.33613	  5.94944	 -2.83471	 66.83780	702.02002	 37.90	
 15.990	165.604	 57.90459	 -7.53571	 56.01165	 29.92299	 12.90875	 -2.73013	 66.82611	702.04999	 37.90	
 20.003	168.362	 52.45557	-16.89944	 60.66461	 25.49516	  9.25766	 -2.66202	 66.84709	702.07001	 38.00	
 20.008	156.764	 52.39779	-15.25867	 57.77571	 33.71497	  2.32700	 -3.15583	 66.81193	702.08002	 37.90	
 20.000	145.147	 52.51514	-12.27810	 53.21062	 42.05219	 -3.55559	 -3.52137	 66.83606	702.03998	 37.90	
 19.995	133.545	 52.52408	 -8.12906	 46.96968	 48.90848	 -8.49907	 -3.83354	 66.83463	702.07001	 37.90	
 20.009	121.926	 52.61533	 -2.94819	 39.57085	 54.68724	-12.51665	 -4.01492	 66.81676	701.98999	 37.90	
 20.005	110.327	 52.67630	  3.06937	 31.42735	 58.90337	-15.39418	 -4.13393	 66.85156	701.98999	 37.90	
 19.989	 98.733	 52.75977	 10.28787	 22.96551	 61.25173	-16.95157	 -4.28433	 66.82980	701.98999	 37.90	
 19.999	 87.075	 52.83681	 18.28034	 14.77600	 61.76661	-17.16567	 -4.44787	 66.82639	701.97998	 38.00	
 19.992	 75.457	 53.04916	 26.00809	  8.05327	 60.51614	-16.30989	 -4.35869	 66.87161	701.96002	 38.00	
 20.009	 63.844	 53.20652	 34.57575	  1.26096	 57.21323	-14.23651	 -4.18411	 66.85323	701.94000	 37.90	
 19.989	 52.269	 53.39408	 42.29831	 -4.38560	 52.34689	-10.96466	 -3.99706	 66.83043	702.07001	 38.00	
 19.999	 40.602	 53.53679	 49.52946	 -9.05466	 46.06422	 -6.67171	 -3.82155	 66.86755	701.96002	 38.00	
 20.004	 29.051	 53.56930	 54.98181	-12.61630	 38.51274	 -1.14732	 -3.50170	 66.80124	702.09998	 38.00	
 20.005	 17.433	 53.73735	 58.83991	-14.86004	 30.20124	  5.57128	 -3.22025	 66.83745	702.06000	 38.00	
 20.006	  5.780	 53.77631	 60.93186	-15.98780	 21.62223	 12.78409	 -2.98969	 66.82920	702.03998	 38.00	
 20.006	 -5.780	 53.84381	 61.04807	-15.66974	 14.36510	 20.67998	 -2.70703	 66.81922	702.01001	 38.00	
 20.005	-17.433	 53.90416	 59.44973	-14.72830	  7.34554	 28.98599	 -2.18820	 66.86546	702.08002	 38.00	
 20.004	-29.051	 53.87862	 55.73809	-12.20063	  0.59123	 37.12293	 -1.93425	 66.83170	701.91998	 38.00	
 19.999	-40.602	 53.84180	 50.58413	 -8.60938	 -5.05853	 44.97829	 -1.73430	 66.85354	702.00000	 38.00	
 19.989	-52.269	 53.78193	 43.55316	 -3.79611	 -9.34016	 51.49723	 -1.61006	 66.79523	701.94000	 38.00	
 20.009	-63.844	 53.65117	 35.99646	  1.87923	-12.57366	 56.53286	 -1.47438	 66.80753	701.95001	 38.00	
 19.992	-75.457	 53.55993	 27.58219	  8.85164	-14.40651	 59.73638	 -1.49742	 66.82005	702.00000	 38.00	
 19.999	-87.075	 53.51602	 19.40679	 16.36082	-14.76665	 61.16596	 -1.37767	 66.84200	702.01001	 38.00	
 19.989	-98.733	 53.39801	 11.84908	 24.01308	-14.81511	 60.63753	 -1.29957	 66.84885	702.02002	 38.00	
 20.005	-110.327	 53.20615	  4.49680	 32.36183	-13.66093	 58.18723	 -1.28255	 66.81353	702.01001	 38.00	
 20.009	-121.926	 53.10545	 -2.03192	 40.32797	-11.11593	 53.86820	 -1.23477	 66.81305	701.96002	 38.00	
 19.995	-133.545	 53.02147	 -7.24769	 47.58652	 -7.09936	 48.03452	 -1.38438	 66.76790	701.90002	 38.00	
 20.000	-145.147	 52.87551	-11.59265	 53.60540	 -2.10997	 40.78199	 -1.50239	 66.75397	702.00000	 38.00	
 20.008	-156.764	 52.71033	-14.83830	 58.02550	  3.88123	 32.88666	 -1.66807	 66.78880	702.03998	 38.00	
 20.003	-168.362	 52.62137	-16.82843	 60.79246	 10.82789	 24.10910	 -1.98010	 66.80022	701.97998	 38.00	
 20.000	180.000	 52.51959	-17.37785	 61.61368	 17.18889	 16.79330	 -2.28879	 66.81171	702.00000	 38.00	
