FileType=PCF
NHL=14
Date=03/15/19	16:15:30
Facility=APL
Serial=16071-3
Customer=NASA
NP=6
Mach=0.450000
Calibration=1:1
CalPts=490
TstPts=95
PortNumbering=AP Standard
Units=Torr C m/s kg/m^3 deg mm 
Theta[deg]	Phi[deg]	P1[Torr]	P2[Torr]	P3[Torr]	P4[Torr]	P5[Torr]	P6[Torr]	Pt[Torr]	Ps[Abs,Torr]	Ts[C]	
  0.000	  0.000	 91.64030	 39.00071	 41.22033	 41.32246	 38.85215	  2.11683	 91.62628	702.03003	 39.40	
  1.691	128.401	 91.58353	 35.89598	 44.11382	 44.82965	 34.84285	  2.04497	 91.62225	702.03003	 39.50	
  1.692	 77.194	 91.65026	 39.84590	 39.96495	 45.77279	 34.11486	  2.16196	 91.66393	701.95001	 39.60	
  1.699	 26.182	 91.68539	 43.27929	 36.69964	 43.32941	 36.56775	  2.19290	 91.68956	701.91998	 39.60	
  1.699	-26.182	 91.75431	 43.44510	 36.76419	 39.14140	 41.01218	  2.13231	 91.72205	701.97998	 39.70	
  1.692	-77.194	 91.72149	 40.11175	 40.13580	 36.53285	 43.78748	  2.01965	 91.69391	701.97998	 39.70	
  1.691	-128.401	 91.71114	 36.16739	 44.27020	 37.46418	 42.78052	  1.93070	 91.73332	701.78998	 39.80	
  1.700	180.000	 91.69695	 34.16785	 46.10760	 41.25961	 38.67693	  1.93460	 91.74649	701.91998	 39.80	
  3.400	180.000	 91.46845	 28.87152	 50.77830	 40.81422	 38.29861	  1.65045	 91.74413	701.95001	 39.90	
  3.388	-152.325	 91.54504	 30.11429	 49.66353	 36.38008	 43.23841	  1.60483	 91.79771	701.92999	 39.90	
  3.397	-124.529	 91.53294	 33.32107	 46.47441	 32.91985	 46.92217	  1.62279	 91.72104	701.81000	 40.00	
  3.399	-96.763	 91.67503	 37.75170	 42.12490	 32.02180	 48.64747	  1.69251	 91.81908	701.90997	 40.00	
  3.394	-69.283	 91.66661	 42.37331	 37.38687	 31.98860	 47.95854	  1.78725	 91.74578	701.96002	 40.10	
  3.400	-41.398	 91.71736	 46.37968	 33.66585	 34.53455	 45.22610	  1.93565	 91.77539	701.90997	 40.10	
  3.401	-14.021	 91.76418	 48.54050	 31.52313	 38.69775	 40.83618	  2.05919	 91.78265	701.84003	 40.10	
  3.401	 14.021	 91.75582	 48.42255	 31.49071	 43.42492	 35.93843	  2.13422	 91.80830	701.88000	 40.20	
  3.400	 41.398	 91.70572	 46.02632	 33.54184	 47.44064	 31.88955	  2.16054	 91.81423	701.87000	 40.20	
  3.394	 69.283	 91.66322	 41.89103	 37.23308	 49.96662	 29.47815	  2.11702	 91.81244	701.92999	 40.30	
  3.399	 96.763	 91.65401	 37.26165	 41.93876	 50.39042	 29.06533	  2.01324	 91.84017	701.84003	 40.30	
  3.397	124.529	 91.58637	 32.95166	 46.44305	 48.57549	 30.65600	  1.87063	 91.83566	701.90002	 40.40	
  3.388	152.325	 91.57282	 29.90541	 49.65846	 45.07982	 34.11019	  1.73203	 91.86267	701.91998	 40.40	
  5.099	161.165	 90.99241	 24.17826	 54.45826	 44.58856	 33.38331	  1.26796	 91.81101	701.94000	 40.40	
  5.109	142.013	 91.01643	 26.39079	 51.96858	 48.92596	 29.02091	  1.38277	 91.83748	701.90002	 40.50	
  5.095	123.033	 91.07828	 29.85790	 48.18865	 52.36315	 25.95930	  1.53180	 91.82232	701.92999	 40.50	
  5.105	104.191	 91.16361	 34.31168	 43.71906	 54.61646	 24.21482	  1.67730	 91.85577	701.98999	 40.60	
  5.093	 85.207	 91.26227	 39.00630	 38.81778	 55.07615	 23.95480	  1.78765	 91.89591	701.91998	 40.60	
  5.104	 66.290	 91.32362	 43.78322	 34.37473	 53.65543	 25.00940	  1.87704	 91.88431	701.90002	 40.60	
  5.094	 47.331	 91.37753	 48.10084	 30.38560	 50.90196	 27.51621	  1.90811	 91.88370	701.95001	 40.70	
  5.089	 28.397	 91.46906	 51.37333	 27.36852	 47.10870	 31.25704	  1.93171	 91.90828	702.04999	 40.70	
  5.096	  9.576	 91.50419	 53.13297	 25.96849	 42.67755	 35.67034	  1.88409	 91.89969	701.95001	 40.70	
  5.096	 -9.576	 91.54367	 53.26534	 26.03076	 37.83278	 40.67297	  1.80061	 91.90083	701.98999	 40.70	
  5.089	-28.397	 91.57255	 51.70657	 27.58241	 33.66697	 45.40912	  1.67943	 91.94712	702.03998	 40.80	
  5.094	-47.331	 91.52566	 48.65691	 30.65559	 30.56037	 49.23524	  1.50830	 91.91891	701.95001	 40.80	
  5.104	-66.290	 91.52378	 44.49053	 34.64301	 27.97736	 52.14432	  1.38306	 91.95286	701.95001	 40.80	
  5.093	-85.207	 91.48463	 39.72140	 39.27629	 27.02055	 53.35898	  1.25716	 91.96397	701.95001	 40.90	
  5.105	-104.191	 91.37659	 34.90623	 44.16576	 27.42981	 53.04399	  1.20858	 91.93468	701.97998	 40.90	
  5.095	-123.033	 91.32739	 30.44075	 48.58696	 29.46312	 50.71222	  1.15301	 91.96543	701.97998	 41.00	
  5.109	-142.013	 91.25647	 26.78884	 52.30901	 32.30425	 47.38110	  1.13048	 91.95975	702.01001	 41.00	
  5.099	-161.165	 91.19615	 24.35750	 54.65219	 35.59642	 42.77804	  1.15171	 91.94935	701.92999	 41.10	
  5.100	180.000	 91.14570	 23.52220	 55.37608	 40.30554	 37.80226	  1.18468	 91.92520	701.96997	 41.10	
  6.800	180.000	 90.29179	 18.30543	 59.63928	 39.42252	 36.85859	  0.61164	 91.93544	701.89001	 41.10	
  6.796	-166.229	 90.36787	 18.92303	 59.15779	 34.82490	 41.85384	  0.60469	 91.98350	701.95001	 41.20	
  6.808	-152.311	 90.42172	 20.50483	 57.52095	 31.52217	 46.63396	  0.56711	 91.96289	701.94000	 41.20	
  6.795	-138.383	 90.52873	 23.20120	 54.66005	 27.54034	 50.68937	  0.56111	 91.99030	701.94000	 41.20	
  6.792	-124.591	 90.59323	 26.69724	 50.97615	 24.68581	 54.08866	  0.54118	 91.97301	701.82001	 41.20	
  6.787	-110.754	 90.69453	 31.01118	 46.69110	 22.66335	 56.59710	  0.58310	 91.98147	701.90002	 41.30	
  6.800	-96.985	 90.75072	 35.59204	 42.12778	 21.57927	 57.79795	  0.59457	 91.98236	701.92999	 41.30	
  6.800	-83.015	 90.84545	 40.31197	 37.27888	 21.60942	 57.80950	  0.67708	 92.02423	701.95001	 41.30	
  6.787	-69.246	 90.89378	 44.96381	 32.96819	 22.68127	 56.63763	  0.76615	 91.99751	701.98999	 41.30	
  6.792	-55.409	 90.95515	 49.33740	 28.60535	 24.70191	 54.17323	  0.88163	 92.02044	701.89001	 41.40	
  6.795	-41.617	 90.98853	 53.01109	 25.26705	 27.61667	 50.83831	  1.01840	 92.02431	701.96002	 41.40	
  6.808	-27.689	 91.00612	 55.85633	 22.72596	 31.58871	 46.72770	  1.18500	 92.04408	702.04999	 41.40	
  6.796	-13.771	 90.94125	 57.40739	 21.17739	 35.08766	 42.01905	  1.32891	 91.94968	702.03003	 41.50	
  6.800	  0.000	 90.97209	 57.93305	 20.57712	 39.87649	 37.13295	  1.42604	 92.02660	702.03998	 41.50	
  6.796	 13.771	 90.88219	 57.20525	 20.97079	 44.51155	 32.51262	  1.50432	 91.98701	702.08002	 41.50	
  6.808	 27.689	 90.85217	 55.36906	 22.36942	 48.95412	 27.96727	  1.52217	 92.03217	702.03998	 41.60	
  6.795	 41.617	 90.80572	 52.35620	 24.85973	 52.83748	 24.35448	  1.52321	 92.05659	702.09003	 41.60	
  6.792	 55.409	 90.76400	 48.47955	 28.21671	 56.12719	 21.69637	  1.49051	 92.04162	702.07001	 41.60	
  6.787	 69.246	 90.72713	 44.06321	 32.55424	 58.38054	 19.73556	  1.45596	 92.06482	702.06000	 41.70	
  6.800	 83.015	 90.63163	 39.33025	 36.85455	 59.48864	 18.76373	  1.36963	 92.04129	702.01001	 41.70	
  6.800	 96.985	 90.59028	 34.69797	 41.69183	 59.46666	 18.78659	  1.26494	 92.07034	702.09998	 41.70	
  6.787	110.754	 90.52368	 30.10263	 46.31067	 58.16261	 19.90068	  1.15462	 92.04735	702.09003	 41.70	
  6.792	124.591	 90.49676	 26.12688	 50.61451	 55.86149	 21.89589	  1.03500	 92.08224	701.96997	 41.70	
  6.795	138.383	 90.45734	 22.78881	 54.35402	 52.37085	 24.79836	  0.93695	 92.10944	702.06000	 41.80	
  6.808	152.311	 90.39275	 20.33363	 57.28670	 48.31488	 28.39652	  0.80679	 92.06366	702.03998	 41.80	
  6.796	166.229	 90.43562	 18.91985	 59.09244	 43.87724	 32.80584	  0.70351	 92.08847	701.97998	 41.80	
  8.491	168.704	 89.23717	 13.44572	 63.16091	 42.92237	 31.63753	  0.04882	 92.05793	701.95001	 41.90	
  8.502	157.493	 89.25278	 14.60230	 61.75743	 47.59873	 27.19806	  0.11880	 92.12087	701.95001	 41.90	
  8.494	146.194	 89.20410	 16.66507	 59.24147	 51.88379	 23.24011	  0.22055	 92.01884	701.98999	 41.90	
  8.495	135.039	 89.27909	 19.37351	 56.00090	 55.96165	 19.98184	  0.36204	 92.07218	701.94000	 41.90	
  8.487	123.723	 89.33920	 22.72912	 52.06640	 59.24287	 17.26020	  0.45813	 92.08929	702.00000	 41.90	
  8.492	112.575	 89.35271	 26.61533	 47.69358	 61.64016	 15.07405	  0.54931	 92.07916	702.00000	 41.90	
  8.510	101.220	 89.42990	 31.11417	 42.98038	 63.25386	 13.65601	  0.66794	 92.10249	701.94000	 41.90	
  8.500	 90.000	 89.50536	 36.02679	 38.10604	 63.81017	 13.26304	  0.76383	 92.09988	702.03003	 41.90	
  8.510	 78.780	 89.53080	 40.69992	 33.51525	 63.41831	 13.55397	  0.80847	 92.06857	702.04999	 41.90	
  8.492	 67.425	 89.65538	 45.55130	 28.79825	 61.95786	 14.82865	  0.86153	 92.08602	701.95001	 42.00	
  8.487	 56.277	 89.72522	 49.99228	 24.84144	 59.60614	 16.93074	  0.95222	 92.09621	701.96002	 42.00	
  8.495	 44.961	 89.83723	 54.05899	 21.56375	 56.38277	 19.74206	  1.01292	 92.12231	702.03998	 42.00	
  8.494	 33.806	 89.83443	 57.33283	 18.91599	 52.45326	 23.09949	  1.05474	 92.05453	701.94000	 42.10	
  8.502	 22.507	 89.95080	 60.00455	 16.94924	 48.08078	 27.15283	  1.01652	 92.10183	701.96002	 42.10	
  8.491	 11.296	 89.99050	 61.58748	 15.80226	 43.42038	 31.61977	  0.99193	 92.10960	702.01001	 42.10	
  8.500	  0.000	 90.00379	 62.19717	 15.47943	 38.64349	 36.24069	  0.88262	 92.07384	701.95001	 42.20	
  8.491	-11.296	 90.06536	 61.80177	 15.95636	 34.63677	 41.15596	  0.75539	 92.09958	701.96002	 42.20	
  8.502	-22.507	 90.10300	 60.44344	 17.23906	 30.11817	 46.05466	  0.61539	 92.12693	702.00000	 42.20	
  8.494	-33.806	 90.13454	 58.10474	 19.31949	 26.20641	 50.42648	  0.48177	 92.12965	702.03003	 42.20	
  8.495	-44.961	 90.09537	 54.97680	 21.97226	 22.82329	 54.29709	  0.32683	 92.08271	701.94000	 42.20	
  8.487	-56.277	 90.10139	 51.00935	 25.47594	 20.02323	 57.70198	  0.20708	 92.14053	702.00000	 42.20	
  8.492	-67.425	 90.02332	 46.70461	 29.49843	 17.86751	 60.71511	  0.07723	 92.13164	702.02002	 42.20	
  8.510	-78.780	 89.89597	 41.88736	 34.13319	 16.51414	 62.18962	 -0.00724	 92.08082	702.03998	 42.30	
  8.500	-90.000	 89.90186	 37.18878	 38.66169	 16.12004	 62.69337	 -0.08221	 92.14921	702.06000	 42.30	
  8.510	-101.220	 89.75903	 32.30219	 43.48710	 16.38981	 62.20464	 -0.12041	 92.08800	702.01001	 42.30	
  8.492	-112.575	 89.68264	 27.68675	 48.16078	 17.71964	 60.29789	 -0.11549	 92.06962	702.00000	 42.30	
  8.487	-123.723	 89.65194	 23.61814	 52.53506	 19.74601	 57.32069	 -0.11882	 92.13104	701.94000	 42.30	
  8.495	-135.039	 89.53217	 20.04911	 56.42978	 22.26929	 54.30159	 -0.11289	 92.07277	702.03998	 42.30	
  8.494	-146.194	 89.50343	 17.22550	 59.60634	 25.40440	 50.49494	 -0.12756	 92.11786	702.03998	 42.30	
  8.502	-157.493	 89.39163	 14.97939	 61.94341	 30.05143	 46.05046	 -0.06397	 92.07738	701.96997	 42.30	
  8.491	-168.704	 89.34225	 13.81008	 63.30871	 33.65631	 41.19503	 -0.04516	 92.10088	702.00000	 42.30	
  8.500	180.000	 89.34962	 13.19762	 63.79973	 38.42800	 36.29810	 -0.01422	 92.12836	701.94000	 42.40	
 10.200	180.000	 87.80640	  8.12270	 67.69019	 37.09176	 34.97614	 -0.78308	 92.10464	702.00000	 42.40	
 10.191	-170.497	 87.87717	  8.58970	 67.30132	 33.26139	 39.97462	 -0.79747	 92.11230	702.04999	 42.40	
 10.210	-161.034	 87.92125	  9.67393	 66.08595	 28.39623	 44.95280	 -0.81738	 92.12672	702.02002	 42.40	
 10.194	-151.526	 87.97653	 11.36360	 63.95621	 23.80534	 49.57079	 -1.00793	 92.08756	702.09998	 42.40	
 10.190	-142.105	 88.07225	 13.75152	 61.23683	 20.20102	 53.87962	 -0.88902	 92.09595	702.08002	 42.40	
 10.215	-132.646	 88.12374	 16.76151	 57.82528	 17.33937	 57.54508	 -0.88757	 92.10736	702.04999	 42.50	
 10.203	-123.092	 88.17656	 20.27155	 53.72419	 14.91682	 61.02822	 -0.89532	 92.08353	702.06000	 42.50	
 10.192	-113.678	 88.32322	 24.26467	 49.34016	 13.08174	 63.59068	 -0.85335	 92.13140	701.97998	 42.50	
 10.208	-104.249	 88.37506	 28.95323	 44.71559	 11.75684	 65.66775	 -0.82783	 92.09845	702.09003	 42.50	
 10.210	-94.801	 88.45246	 33.53263	 39.86009	 11.26663	 66.51916	 -0.87096	 92.10760	702.00000	 42.50	
 10.210	-85.199	 88.56614	 38.57803	 35.15087	 11.38678	 66.51406	 -0.81023	 92.15492	702.03998	 42.50	
 10.208	-75.751	 88.59167	 43.39815	 30.26513	 12.06090	 65.69420	 -0.73007	 92.08250	702.13000	 42.50	
 10.192	-66.322	 88.69012	 48.11856	 25.96313	 13.41198	 64.07899	 -0.70617	 92.11401	702.08002	 42.50	
 10.203	-56.908	 88.73274	 52.47724	 22.05946	 15.23883	 61.23811	 -0.67388	 92.14726	702.06000	 42.60	
 10.215	-47.354	 88.76291	 56.61330	 18.58962	 17.75967	 57.72401	 -0.51933	 92.15581	702.14001	 42.60	
 10.190	-37.895	 88.81947	 60.01556	 15.79351	 20.93467	 53.82868	 -0.38456	 92.13836	702.09003	 42.60	
 10.194	-28.474	 88.82990	 62.75803	 13.48659	 24.72668	 49.47298	 -0.19700	 92.12981	702.09003	 42.60	
 10.210	-18.966	 88.83857	 64.83727	 11.64512	 28.89408	 44.83445	 -0.07459	 92.17466	702.09998	 42.70	
 10.191	 -9.503	 88.75845	 65.93272	 10.50654	 33.44710	 39.79682	  0.06942	 92.11346	702.20001	 42.70	
 10.200	  0.000	 88.75307	 66.31753	 10.12668	 37.52615	 34.85623	  0.18007	 92.15617	702.09003	 42.70	
 10.191	  9.503	 88.66869	 65.69801	 10.39175	 42.32211	 30.11244	  0.25076	 92.12438	702.02002	 42.70	
 10.210	 18.966	 88.56506	 64.29932	 11.32833	 47.12834	 25.55917	  0.31583	 92.11775	702.09998	 42.70	
 10.194	 28.474	 88.51119	 61.99380	 13.10791	 51.62651	 21.58719	  0.31053	 92.11064	702.00000	 42.70	
 10.190	 37.895	 88.47885	 59.13915	 15.37255	 55.71215	 18.09196	  0.39806	 92.14868	702.06000	 42.70	
 10.215	 47.354	 88.34444	 55.48268	 18.08657	 59.73336	 14.76702	 -0.19203	 92.08462	702.10999	 42.70	
 10.203	 56.908	 88.27306	 51.22238	 21.52397	 62.89472	 11.96120	  0.16144	 92.09364	701.97998	 42.70	
 10.192	 66.322	 88.25578	 46.73350	 25.37229	 65.32817	 10.05598	 -0.30986	 92.16357	702.07001	 42.70	
 10.208	 75.751	 88.15802	 41.96715	 29.56174	 67.10192	  8.73673	  0.05840	 92.14535	702.09003	 42.70	
 10.210	 85.199	 88.06604	 37.23703	 34.37683	 67.87634	  7.74443	  0.04112	 92.11126	702.08002	 42.80	
 10.210	 94.801	 88.01083	 32.19711	 39.07713	 67.86984	  7.74567	 -0.02255	 92.13162	702.14001	 42.80	
 10.208	104.249	 87.97044	 27.35695	 44.10358	 66.87666	  8.35775	 -0.13631	 92.14234	702.07001	 42.80	
 10.192	113.678	 87.91405	 23.00162	 48.77156	 64.96882	  9.71070	 -0.20379	 92.13644	702.12000	 42.80	
 10.203	123.092	 87.89532	 19.18039	 53.16766	 62.53627	 11.73279	 -0.27599	 92.18081	702.03998	 42.80	
 10.215	132.646	 87.81906	 15.77225	 57.32051	 59.31768	 14.85888	 -0.33058	 92.17392	702.17999	 42.80	
 10.190	142.105	 87.80231	 13.01791	 60.88288	 55.22425	 18.10103	 -0.44446	 92.15974	702.16998	 42.80	
 10.194	151.526	 87.78590	 10.77481	 63.75637	 51.08319	 21.67956	 -0.57472	 92.16326	702.19000	 42.80	
 10.210	161.034	 87.74670	  9.13945	 65.93282	 46.57206	 25.87092	 -0.66618	 92.12510	702.15002	 42.80	
 10.191	170.497	 87.83364	  8.34196	 67.25593	 41.81206	 30.40586	 -0.71802	 92.15966	702.09003	 42.80	
 11.899	171.783	 86.00635	  2.62549	 70.98479	 40.25554	 29.09712	 -1.57334	 92.11851	702.09003	 42.80	
 11.890	163.610	 86.02540	  3.39604	 69.81499	 45.17299	 24.56577	 -1.66329	 92.17561	702.13000	 42.80	
 11.889	155.445	 85.97977	  4.72845	 67.80823	 49.87267	 20.23494	 -1.49717	 92.17332	702.15997	 42.90	
 11.909	147.299	 85.94799	  6.77988	 65.28539	 54.20348	 16.33296	 -1.41200	 92.17287	702.12000	 42.90	
 11.902	139.148	 85.98748	  9.29807	 62.16883	 58.53323	 12.43753	 -1.29664	 92.19360	702.21997	 42.90	
 11.894	130.867	 86.00681	 12.26693	 58.42596	 62.27082	  9.24518	 -1.18068	 92.16795	702.15997	 42.90	
 11.897	122.732	 86.01139	 15.63926	 54.13200	 65.42077	  6.75459	 -1.16941	 92.10455	702.16998	 42.90	
 11.903	114.597	 86.16467	 19.40519	 49.72315	 68.21366	  4.77290	 -1.08660	 92.21589	702.12000	 42.90	
 11.893	106.346	 86.22641	 23.69245	 45.01814	 69.91183	  3.43350	 -0.98668	 92.18659	702.17999	 42.90	
 11.892	 98.155	 86.25812	 28.28807	 39.97951	 71.11418	  2.64774	 -0.89721	 92.14555	702.13000	 42.90	
 11.900	 90.000	 86.26743	 33.12805	 35.20044	 71.50999	  2.41769	 -0.81763	 92.08599	702.19000	 42.90	
 11.892	 81.845	 86.39068	 38.09962	 30.48641	 71.22353	  2.78007	 -1.79410	 92.14170	702.06000	 42.90	
 11.893	 73.654	 86.45976	 42.92098	 25.94121	 70.10876	  3.59845	 -0.91643	 92.15200	702.09003	 42.90	
 11.903	 65.403	 86.51978	 47.74517	 21.79067	 68.54575	  4.69966	 -1.66509	 92.15952	702.09998	 42.90	
 11.897	 57.268	 86.58727	 52.21960	 17.99950	 65.77151	  6.72516	 -1.24364	 92.13710	702.10999	 42.90	
 11.894	 49.133	 86.65636	 56.54966	 14.49148	 62.67933	  8.98294	 -1.58345	 92.13017	702.12000	 42.90	
 11.902	 40.852	 86.72686	 60.35690	 11.52034	 58.96463	 12.01124	 -0.58101	 92.11379	702.13000	 42.90	
 11.909	 32.701	 86.83160	 63.60529	  9.08266	 54.63750	 15.59631	 -0.50395	 92.12282	702.16998	 42.90	
 11.889	 24.555	 86.93253	 66.24916	  7.17743	 50.36580	 19.35576	 -1.12882	 92.15597	702.19000	 42.90	
 11.890	 16.390	 87.01408	 68.29077	  5.67957	 45.58900	 23.74383	 -0.58689	 92.14462	702.15997	 43.00	
 11.899	  8.217	 87.05598	 69.54793	  4.73453	 40.76417	 28.50306	 -0.98486	 92.11739	702.20001	 43.00	
 11.900	  0.000	 87.09486	 70.05882	  4.32486	 36.63395	 33.55384	 -0.68114	 92.12365	702.17999	 43.00	
 11.899	 -8.217	 87.09013	 69.78839	  4.68442	 31.87482	 38.45753	 -0.80538	 92.07861	702.20001	 43.00	
 11.890	-16.390	 87.17492	 68.75423	  5.68086	 27.30666	 43.35155	 -1.14040	 92.11366	702.20001	 43.00	
 11.889	-24.555	 87.19482	 66.99780	  7.35009	 23.02189	 48.19017	 -1.18791	 92.14313	702.14001	 43.00	
 11.909	-32.701	 87.16355	 64.56460	  9.50531	 19.15285	 52.76076	 -1.27243	 92.13799	702.15997	 43.00	
 11.902	-40.852	 87.13718	 61.49997	 12.07259	 15.73608	 57.00974	 -1.49287	 92.15379	702.15002	 43.00	
 11.894	-49.133	 87.08189	 57.79158	 15.21745	 12.80205	 60.93272	 -1.40229	 92.09954	702.15997	 43.10	
 11.897	-57.268	 87.04969	 53.60398	 18.65393	 10.46980	 64.19778	 -1.49136	 92.10206	702.13000	 43.10	
 11.903	-65.403	 86.97727	 49.17366	 22.42714	  8.49196	 67.09399	 -1.63071	 92.12035	702.19000	 43.10	
 11.893	-73.654	 86.91145	 44.45182	 26.60840	  7.13158	 68.89851	 -1.51266	 92.10780	702.12000	 43.10	
 11.892	-81.845	 86.83560	 39.52952	 31.25769	  6.30126	 69.99093	 -1.54722	 92.12851	702.21002	 43.10	
 11.900	-90.000	 86.75739	 34.64015	 36.04981	  5.93786	 70.30463	 -1.57387	 92.14239	702.10999	 43.10	
 11.892	-98.155	 86.70139	 29.91483	 40.77183	  6.24056	 69.98737	 -1.59808	 92.11333	702.13000	 43.10	
 11.893	-106.346	 86.65504	 25.04876	 45.66491	  7.02431	 68.80988	 -1.63611	 92.12651	702.20001	 43.10	
 11.903	-114.597	 86.54733	 20.65512	 50.31531	  8.39717	 66.69449	 -1.81012	 92.12434	702.17999	 43.10	
 11.897	-122.732	 86.52226	 16.80330	 54.77814	 10.35950	 64.15652	 -1.83424	 92.15111	702.13000	 43.10	
 11.894	-130.867	 86.42996	 13.22986	 58.90835	 12.62400	 60.86086	 -1.72386	 92.16110	702.19000	 43.10	
 11.902	-139.148	 86.36639	 10.05224	 62.60856	 15.41762	 57.03779	 -1.78029	 92.18579	702.20001	 43.10	
 11.909	-147.299	 86.29617	  7.49502	 65.68926	 18.30834	 52.89191	 -1.81148	 92.16331	702.28998	 43.10	
 11.889	-155.445	 86.22575	  5.59959	 68.13675	 22.30502	 48.31895	 -2.02867	 92.11554	702.23999	 43.10	
 11.890	-163.610	 86.16996	  4.11889	 70.00356	 26.85109	 43.48375	 -1.99784	 92.15378	702.20001	 43.10	
 11.899	-171.783	 86.11789	  2.94531	 71.13892	 31.50658	 38.57988	 -1.78461	 92.18044	702.25000	 43.10	
 11.900	180.000	 86.10538	  2.55621	 71.43938	 36.43492	 33.59887	 -1.59664	 92.16666	702.33002	 43.10	
 13.600	180.000	 83.96735	 -3.23750	 74.91690	 34.55425	 32.06043	 -2.64441	 92.17686	702.16998	 43.10	
 13.608	-172.853	 83.93239	 -3.18404	 74.64003	 29.83978	 36.74068	 -2.73478	 92.13086	702.22998	 43.10	
 13.611	-165.583	 83.96529	 -2.46849	 73.67485	 25.18576	 41.77987	 -2.62097	 92.13728	702.19000	 43.20	
 13.601	-158.353	 84.11394	 -0.89586	 72.03650	 20.44372	 46.40425	 -2.47029	 92.17496	702.17999	 43.20	
 13.609	-151.210	 84.10163	  1.30609	 69.70141	 16.74279	 51.45772	 -2.45306	 92.10104	702.21997	 43.20	
 13.611	-143.999	 84.14924	  3.58304	 66.84654	 13.41174	 55.94656	 -2.40598	 92.12055	702.25000	 43.20	
 13.601	-136.825	 84.26904	  6.28893	 63.56576	 10.28933	 59.69750	 -2.35790	 92.11810	702.27002	 43.20	
 13.596	-129.640	 84.34725	  9.47693	 59.88418	  7.60250	 63.64680	 -2.28495	 92.15529	702.17999	 43.20	
 13.611	-122.431	 84.37395	 13.20659	 55.59451	  5.20039	 66.86858	 -2.20637	 92.12164	702.10999	 43.20	
 13.604	-115.211	 84.43723	 17.26209	 51.01797	  3.30394	 69.58440	 -2.13808	 92.11967	702.21997	 43.20	
 13.595	-108.042	 84.54016	 21.49307	 46.39043	  1.95510	 71.41338	 -2.19653	 92.11278	702.25000	 43.20	
 13.607	-100.793	 84.62945	 25.88923	 41.58214	  1.01440	 72.81198	 -2.23980	 92.14728	702.15997	 43.30	
 13.601	-93.617	 84.61250	 30.70265	 36.76540	  0.47648	 73.50212	 -2.25714	 92.09970	702.13000	 43.30	
 13.601	-86.383	 84.71980	 35.56517	 31.95918	  0.51434	 73.55135	 -2.21519	 92.13622	702.09998	 43.30	
 13.607	-79.207	 84.78037	 40.38679	 27.27204	  0.99684	 72.92132	 -2.19533	 92.11928	702.09003	 43.30	
 13.595	-71.958	 84.86835	 45.31937	 22.86334	  1.97545	 71.78912	 -2.22969	 92.10976	702.21997	 43.30	
 13.604	-64.789	 84.99491	 50.06083	 18.73686	  3.32005	 69.93767	 -2.42408	 92.15678	702.13000	 43.30	
 13.611	-57.569	 85.00269	 54.48639	 14.85964	  5.25480	 67.33537	 -2.52102	 92.10680	702.16998	 43.30	
 13.596	-50.360	 85.02539	 58.84932	 11.24240	  7.63657	 63.72580	 -2.55728	 92.10035	702.10999	 43.30	
 13.601	-43.175	 85.02472	 62.56744	  8.11479	 10.38172	 59.86188	 -2.47897	 92.06004	702.15002	 43.30	
 13.611	-36.001	 85.12101	 65.90208	  5.14370	 13.59012	 55.87560	 -2.42914	 92.13355	702.22998	 43.30	
 13.609	-28.790	 85.19096	 68.73740	  2.79654	 17.38870	 51.34866	 -2.29626	 92.15543	702.09003	 43.30	
 13.601	-21.647	 85.18520	 71.01155	  1.12113	 21.20978	 46.55045	 -2.30446	 92.14157	702.14001	 43.30	
 13.611	-14.417	 85.16217	 72.63486	 -0.08841	 25.42801	 41.70905	 -2.38381	 92.18164	702.09003	 43.30	
 13.608	 -7.147	 85.06741	 73.46235	 -0.80878	 30.18139	 36.69202	 -2.12354	 92.08959	702.09998	 43.30	
 13.600	  0.000	 85.08686	 73.72003	 -1.17214	 34.91298	 31.85749	 -2.29593	 92.14729	702.08002	 43.30	
 13.608	  7.147	 84.98914	 73.22514	 -1.00023	 39.36169	 27.20275	 -2.23095	 92.11831	702.09998	 43.30	
 13.611	 14.417	 84.92188	 72.07596	 -0.31990	 43.95523	 22.54680	 -2.07207	 92.14983	702.09003	 43.30	
 13.601	 21.647	 84.82897	 70.25072	  0.62088	 48.81715	 18.11266	 -1.95257	 92.12630	702.12000	 43.30	
 13.609	 28.790	 84.80568	 67.84323	  2.13715	 53.34496	 13.63918	 -1.99381	 92.15955	702.13000	 43.30	
 13.611	 36.001	 84.68316	 64.76692	  4.23538	 57.65093	  9.93749	 -2.13121	 92.11784	702.07001	 43.40	
 13.601	 43.175	 84.67274	 61.40499	  7.14422	 61.91132	  6.68289	 -2.34197	 92.20403	702.07001	 43.40	
 13.596	 50.360	 84.56432	 57.47764	 10.42742	 65.38654	  3.90292	 -2.40719	 92.14175	702.14001	 43.40	
 13.611	 57.569	 84.52757	 53.12316	 14.04688	 68.70940	  1.62182	 -2.43226	 92.15599	701.97998	 43.40	
 13.604	 64.789	 84.41306	 48.44320	 17.91634	 71.03421	  0.01342	 -2.50732	 92.15194	702.15002	 43.40	
 13.595	 71.958	 84.31799	 43.65021	 22.07336	 73.04222	 -1.32822	 -2.61964	 92.16261	702.09003	 43.40	
 13.607	 79.207	 84.23946	 38.69720	 26.53001	 74.37695	 -2.19490	 -2.70496	 92.16355	702.06000	 43.40	
 13.601	 86.383	 84.13611	 33.80885	 31.10429	 74.90446	 -2.28878	 -2.68387	 92.10390	702.00000	 43.40	
 13.601	 93.617	 84.09038	 28.92988	 35.77073	 74.89413	 -2.50258	 -2.48382	 92.14243	702.09998	 43.40	
 13.607	100.793	 84.03437	 24.23163	 40.49865	 74.20799	 -2.12440	 -2.68039	 92.14861	702.09003	 43.40	
 13.595	108.042	 83.99821	 19.77272	 45.56157	 72.81054	 -1.09195	 -2.75428	 92.14386	702.15002	 43.40	
 13.604	115.211	 83.98117	 15.74216	 50.23914	 70.79094	  0.44206	 -2.24277	 92.19292	702.16998	 43.40	
 13.611	122.431	 83.87201	 11.93497	 54.82328	 68.21755	  2.39555	 -2.84250	 92.11808	702.15997	 43.40	
 13.596	129.640	 83.86575	  8.46053	 59.19147	 64.95982	  4.23755	 -2.63038	 92.17503	702.14001	 43.40	
 13.601	136.825	 83.81806	  5.00996	 62.94066	 61.38591	  7.25328	 -2.33617	 92.12972	702.16998	 43.40	
 13.611	143.999	 83.81796	  2.34526	 66.30841	 57.18391	 10.64237	 -3.00095	 92.14001	702.19000	 43.50	
 13.609	151.210	 83.82091	  0.25448	 69.27431	 52.68838	 14.38472	 -2.94628	 92.14172	702.17999	 43.50	
 13.601	158.353	 83.82240	 -1.36696	 71.63033	 48.19281	 18.28395	 -3.03405	 92.13973	702.21002	 43.50	
 13.611	165.583	 83.79009	 -2.62623	 73.42081	 43.30226	 22.56244	 -2.78979	 92.11062	702.13000	 43.50	
 13.608	172.853	 83.84561	 -3.22388	 74.47974	 38.31646	 27.14892	 -2.66966	 92.10110	702.17999	 43.50	
 15.298	173.587	 81.47726	 -8.79368	 77.62969	 37.00273	 25.49920	 -3.43621	 92.17581	702.04999	 43.50	
 15.291	167.167	 81.44259	 -8.17304	 76.69681	 41.21251	 20.97440	 -3.56483	 92.17547	702.08002	 43.50	
 15.307	160.676	 81.34837	 -7.26040	 75.16648	 46.13162	 16.52213	 -3.60125	 92.13990	702.07001	 43.50	
 15.300	154.261	 81.37386	 -5.81807	 73.03974	 50.83060	 12.50965	 -3.64580	 92.15824	702.09998	 43.50	
 15.288	147.854	 81.41907	 -3.91638	 70.33496	 55.39031	  8.74714	 -3.63972	 92.19083	702.09003	 43.50	
 15.293	141.428	 81.42940	 -1.59733	 67.08073	 59.95335	  5.31486	 -3.74355	 92.17793	702.13000	 43.50	
 15.299	134.985	 81.41129	  1.08138	 63.52136	 63.96820	  2.47038	 -3.78480	 92.14743	702.17999	 43.50	
 15.305	128.583	 81.41750	  4.06332	 59.62860	 67.57860	 -0.17670	 -3.74455	 92.14175	702.19000	 43.60	
 15.309	122.142	 81.38157	  7.92172	 55.20428	 70.53871	 -2.77648	 -3.66640	 92.13853	702.06000	 43.60	
 15.304	115.711	 81.47374	 11.79283	 50.61584	 73.25754	 -4.52900	 -3.65906	 92.17142	702.09998	 43.60	
 15.297	109.291	 81.49931	 15.85276	 45.92202	 75.41793	 -6.13150	 -3.62727	 92.14549	702.16998	 43.60	
 15.293	102.897	 81.57858	 20.09480	 40.97543	 76.84131	 -7.27692	 -3.59706	 92.16513	702.12000	 43.60	
 15.293	 96.458	 81.58380	 24.68744	 36.10738	 77.72797	 -7.95972	 -3.59344	 92.09757	702.07001	 43.60	
 15.300	 90.000	 81.66070	 29.49804	 31.26916	 78.12971	 -8.21932	 -3.60328	 92.17050	702.01001	 43.60	
 15.293	 83.542	 81.79260	 34.36386	 26.88453	 77.90717	 -7.79505	 -3.65911	 92.19083	701.94000	 43.60	
 15.293	 77.103	 81.82165	 39.13305	 22.47729	 77.00851	 -7.40763	 -3.57871	 92.13916	702.04999	 43.60	
 15.297	 70.709	 81.88611	 44.00681	 18.18414	 75.60236	 -6.40670	 -3.52829	 92.14047	702.03998	 43.60	
 15.304	 64.289	 82.01374	 48.83885	 13.99605	 73.59120	 -4.93663	 -3.40796	 92.16507	701.96002	 43.60	
 15.309	 57.858	 82.10570	 53.50861	 10.05991	 70.90872	 -2.90535	 -3.29164	 92.18561	702.03003	 43.60	
 15.305	 51.417	 82.21270	 58.01698	  6.51367	 68.02546	 -0.63419	 -3.21455	 92.20498	702.06000	 43.60	
 15.299	 45.015	 82.25754	 61.97959	  3.44858	 64.48671	  1.94103	 -3.17523	 92.14912	702.01001	 43.60	
 15.293	 38.572	 82.35538	 65.58607	  0.77086	 60.50346	  4.94724	 -3.04252	 92.17760	702.03003	 43.70	
 15.288	 32.146	 82.45117	 68.89651	 -1.37584	 56.01938	  8.13526	 -2.92059	 92.18146	702.13000	 43.70	
 15.300	 25.739	 82.48843	 71.70255	 -3.18552	 51.49487	 11.68097	 -2.79261	 92.16396	702.10999	 43.70	
 15.307	 19.324	 82.57099	 73.91953	 -4.55234	 46.84538	 15.87062	 -2.80571	 92.16029	702.03003	 43.60	
 15.291	 12.833	 82.68327	 75.54673	 -5.57214	 41.82661	 20.41821	 -2.89192	 92.14777	702.09998	 43.60	
 15.298	  6.413	 82.76482	 76.61884	 -6.48744	 37.64460	 24.95120	 -2.97371	 92.17044	702.03998	 43.60	
 15.300	  0.000	 82.79236	 77.00838	 -6.49412	 32.78642	 29.72448	 -3.05105	 92.14977	702.09003	 43.60	
 15.298	 -6.413	 82.87309	 76.86454	 -6.18300	 28.19748	 34.95696	 -2.97878	 92.17149	702.06000	 43.60	
 15.291	-12.833	 82.84631	 76.06245	 -5.81444	 23.81224	 39.75060	 -2.87281	 92.12630	702.12000	 43.60	
 15.307	-19.324	 82.86041	 74.69042	 -4.82800	 19.62638	 44.61720	 -2.79402	 92.13938	701.96002	 43.60	
 15.300	-25.739	 82.83301	 72.63645	 -3.31768	 15.45133	 49.58694	 -2.71912	 92.12103	702.16998	 43.60	
 15.288	-32.146	 82.86946	 70.05511	 -1.40524	 11.59315	 54.22626	 -2.69046	 92.16116	702.06000	 43.70	
 15.293	-38.572	 82.82706	 66.91272	  0.88815	  8.05127	 58.48935	 -2.72342	 92.12064	702.09998	 43.70	
 15.299	-45.015	 82.73615	 63.42020	  3.96844	  4.65631	 62.55206	 -2.71181	 92.10519	702.07001	 43.70	
 15.305	-51.417	 82.65582	 59.56528	  7.25226	  1.67682	 66.28649	 -2.70987	 92.09355	702.14001	 43.70	
 15.309	-57.858	 82.61005	 55.19446	 10.81889	 -0.73661	 69.76704	 -2.64617	 92.10363	702.06000	 43.70	
 15.304	-64.289	 82.60893	 50.66578	 14.78966	 -2.63917	 72.36044	 -2.54502	 92.17311	702.07001	 43.70	
 15.297	-70.709	 82.54669	 45.92755	 18.98220	 -4.07382	 74.24143	 -2.44401	 92.16777	702.15002	 43.70	
 15.293	-77.103	 82.50011	 41.09816	 23.28734	 -5.01288	 75.64671	 -2.42265	 92.13286	702.00000	 43.70	
 15.293	-83.542	 82.43790	 36.24351	 27.84194	 -5.46655	 76.59230	 -2.31562	 92.16714	702.03998	 43.70	
 15.300	-90.000	 82.34756	 31.61664	 32.43875	 -5.38009	 76.78162	 -2.23598	 92.10841	702.02002	 43.70	
 15.293	-96.458	 82.29733	 26.86791	 37.28598	 -5.15609	 76.45326	 -2.22871	 92.13245	702.00000	 43.70	
 15.293	-102.897	 82.25578	 22.25883	 42.10849	 -4.38128	 75.49400	 -2.18873	 92.14068	702.06000	 43.70	
 15.297	-109.291	 82.15095	 17.80283	 46.82065	 -3.35067	 74.07008	 -2.16689	 92.12802	702.03003	 43.80	
 15.304	-115.711	 82.00849	 13.44862	 51.43590	 -1.99157	 72.04031	 -2.18282	 92.12506	702.03998	 43.70	
 15.309	-122.142	 81.89209	  9.28519	 56.03092	 -0.12519	 69.38354	 -2.20380	 92.10028	702.00000	 43.70	
 15.305	-128.583	 81.91783	  5.66669	 60.32283	  2.25317	 66.29153	 -2.23880	 92.14342	702.04999	 43.70	
 15.299	-134.985	 81.90039	  2.24703	 64.18556	  4.92419	 62.50312	 -2.34107	 92.14111	701.98999	 43.70	
 15.293	-141.428	 81.81744	 -0.83144	 67.66245	  7.99721	 58.64260	 -2.45420	 92.12663	702.08002	 43.70	
 15.288	-147.854	 81.73340	 -3.28539	 70.79829	 11.40339	 54.32778	 -2.55769	 92.13839	702.02002	 43.70	
 15.300	-154.261	 81.59640	 -5.29807	 73.39420	 15.15668	 49.59411	 -2.60501	 92.08245	702.12000	 43.70	
 15.307	-160.676	 81.57420	 -6.96032	 75.43840	 18.70746	 44.72851	 -2.72932	 92.11042	702.15002	 43.80	
 15.291	-167.167	 81.47359	 -8.21646	 76.83523	 23.45211	 39.73328	 -2.86868	 92.06663	702.08002	 43.80	
 15.298	-173.587	 81.45745	 -8.84124	 77.67536	 28.06253	 34.77456	 -3.07004	 92.11298	702.06000	 43.80	
 15.300	180.000	 81.44518	 -8.80745	 77.89784	 32.59985	 30.22869	 -3.24504	 92.11696	702.09998	 43.70	
 17.000	180.000	 78.64967	-14.58489	 80.83304	 30.70019	 27.90633	 -3.35853	 92.11964	702.15002	 43.80	
 16.990	-174.179	 78.71391	-14.57750	 80.64323	 26.14551	 32.56238	 -3.11428	 92.14939	702.02002	 43.70	
 17.009	-168.383	 78.79515	-13.91080	 79.78265	 21.41297	 37.49539	 -2.93648	 92.14492	702.08002	 43.70	
 17.000	-162.596	 78.86105	-12.75860	 78.51405	 17.27069	 42.35039	 -2.75630	 92.11608	702.02002	 43.80	
 16.990	-156.759	 78.92123	-11.17267	 76.62878	 13.08281	 47.29663	 -2.63086	 92.09049	702.10999	 43.80	
 16.995	-150.919	 78.93659	 -9.35166	 74.27414	  9.09278	 51.68292	 -2.52842	 92.08976	702.20001	 43.80	
 16.988	-145.161	 79.05218	 -7.13927	 71.49155	  5.58688	 56.66658	 -2.40606	 92.12045	702.15997	 43.80	
 17.014	-139.343	 79.12199	 -4.65775	 68.20264	  2.02102	 60.94465	 -2.29803	 92.15347	702.14001	 43.80	
 17.007	-133.546	 79.19362	 -1.76716	 64.55414	 -1.16358	 64.87970	 -2.24422	 92.14396	702.12000	 43.80	
 17.001	-127.699	 79.22709	  1.39330	 60.52218	 -3.88093	 68.52270	 -2.12354	 92.10558	702.08002	 43.80	
 17.006	-121.937	 79.22302	  5.03028	 56.30310	 -6.31132	 71.43824	 -2.06921	 92.09515	702.23999	 43.80	
 17.002	-116.134	 79.28033	  9.20729	 51.76214	 -8.10647	 74.22070	 -2.05806	 92.08070	702.09998	 43.80	
 17.001	-110.310	 79.39471	 13.67290	 47.00710	 -9.66781	 76.40116	 -1.98799	 92.09837	702.08002	 43.80	
 16.988	-104.517	 79.50587	 18.14970	 42.24719	-10.73985	 78.04391	 -2.05994	 92.10452	702.00000	 43.90	
 17.008	-98.662	 79.46267	 22.72254	 37.27492	-11.56294	 79.18653	 -2.00331	 92.07973	702.06000	 43.90	
 16.996	-92.909	 79.56557	 27.38309	 32.51081	-11.61306	 79.69259	 -2.16988	 92.06281	702.14001	 43.90	
 16.996	-87.091	 79.57430	 31.85294	 28.09833	-11.61761	 79.72531	 -2.16817	 92.04543	702.09003	 43.80	
 17.012	-81.253	 79.66599	 36.52211	 23.59027	-11.47358	 79.28291	 -2.27561	 92.12105	702.03998	 43.90	
 16.988	-75.483	 79.72789	 41.32705	 19.13589	-10.64962	 78.15547	 -2.36312	 92.05888	702.02002	 43.80	
 17.001	-69.690	 79.78049	 46.13055	 14.79522	 -9.64105	 76.52905	 -2.41162	 92.08080	701.98999	 43.80	
 17.002	-63.866	 79.80157	 50.85854	 10.63585	 -8.20503	 74.31396	 -2.53252	 92.01137	701.94000	 43.80	
 17.006	-58.063	 79.86423	 55.40493	  6.74284	 -6.39508	 71.86103	 -2.58380	 92.03615	701.98999	 43.80	
 17.001	-52.301	 79.85979	 59.80159	  3.30487	 -4.21900	 68.81352	 -2.65780	 92.00349	702.01001	 43.80	
 17.007	-46.454	 79.91341	 63.83469	 -0.02327	 -1.63694	 65.24324	 -2.72411	 92.04138	702.02002	 43.90	
 17.014	-40.657	 79.92413	 67.45168	 -3.12201	  1.22330	 60.92053	 -2.79408	 92.00655	702.12000	 43.90	
 16.988	-34.839	 79.98754	 70.75977	 -5.44921	  4.53177	 56.76715	 -2.83058	 92.01949	701.98999	 43.90	
 16.995	-29.081	 80.03320	 73.63205	 -7.53597	  8.36914	 52.32582	 -2.87188	 92.03646	702.10999	 43.90	
 16.990	-23.241	 80.12486	 75.97733	 -9.06745	 12.97235	 47.38140	 -2.95189	 92.01084	702.09998	 43.90	
 17.000	-17.404	 80.11195	 77.70007	 -9.97208	 17.46240	 42.29209	 -3.04705	 91.98246	702.09998	 43.90	
 17.009	-11.617	 80.14595	 79.00842	-10.84243	 21.86730	 37.35222	 -3.18342	 92.08182	702.02002	 43.90	
 16.990	 -5.821	 80.12366	 79.61686	-11.54163	 26.05924	 32.83957	 -3.46839	 92.01084	702.08002	 43.90	
 17.000	  0.000	 80.03313	 79.93835	-12.11618	 30.41995	 28.15182	 -3.62936	 92.03748	702.08002	 43.90	
 16.990	  5.821	 79.95636	 79.42709	-11.74337	 35.29943	 23.50636	 -3.59617	 92.01244	702.04999	 43.90	
 17.009	 11.617	 79.91123	 78.54780	-11.10289	 40.20332	 18.34826	 -3.61370	 92.02254	702.09998	 43.90	
 17.000	 17.404	 79.81961	 77.11063	-10.31439	 44.38078	 13.92342	 -3.60162	 92.04237	702.09003	 43.90	
 16.990	 23.241	 79.75212	 75.10438	 -9.11911	 49.26968	  9.83491	 -3.61284	 92.03468	702.13000	 43.90	
 16.995	 29.081	 79.63553	 72.54597	 -7.63668	 54.02129	  5.85772	 -3.65859	 92.02609	702.08002	 44.00	
 16.988	 34.839	 79.55396	 69.52902	 -5.72943	 58.32883	  2.30363	 -3.80052	 92.03392	702.03998	 43.90	
 17.014	 40.657	 79.45338	 66.08688	 -3.42046	 62.74104	 -1.05324	 -3.98096	 92.03017	702.06000	 43.90	
 17.007	 46.454	 79.36509	 62.32929	 -0.65288	 66.56399	 -3.89528	 -4.06427	 91.95486	702.02002	 43.90	
 17.001	 52.301	 79.29097	 58.19041	  2.43741	 70.05688	 -6.42082	 -4.12454	 91.98333	702.00000	 43.90	
 17.006	 58.063	 79.21526	 53.75695	  5.88393	 72.89469	 -8.45434	 -4.23587	 91.97398	702.01001	 44.00	
 17.002	 63.866	 79.12206	 48.99806	  9.72488	 75.59164	 -9.79504	 -4.35503	 92.00578	702.03003	 44.00	
 17.001	 69.690	 79.08896	 44.17039	 13.96133	 77.72006	-11.31403	 -4.42584	 92.04794	702.03998	 44.00	
 16.988	 75.483	 78.99201	 39.19102	 18.27207	 79.25729	-12.41989	 -4.43849	 92.01550	702.12000	 44.00	
 17.012	 81.253	 78.92435	 34.43538	 22.52064	 80.39896	-13.14381	 -4.54936	 92.08534	702.09998	 44.00	
 16.996	 87.091	 78.84239	 29.87754	 26.52932	 80.82538	-13.44985	 -4.59247	 92.05827	702.13000	 44.00	
 16.996	 92.909	 78.77201	 25.10218	 31.19441	 80.79929	-13.53351	 -4.55776	 92.04932	702.07001	 44.00	
 17.008	 98.662	 78.70326	 20.48118	 36.08083	 80.23453	-13.13136	 -4.49220	 92.04900	702.10999	 44.00	
 16.988	104.517	 78.70910	 15.99131	 41.06418	 79.08320	-12.18573	 -4.48472	 92.05589	701.98999	 44.00	
 17.001	110.310	 78.64734	 11.74628	 45.95150	 77.56490	-11.00735	 -4.47622	 92.05943	702.12000	 44.00	
 17.002	116.134	 78.58030	  7.71710	 50.75818	 75.45288	 -9.43689	 -4.44416	 92.05704	702.06000	 44.00	
 17.006	121.937	 78.60691	  3.56434	 55.32737	 72.73475	 -7.37070	 -4.51337	 92.09141	702.09003	 44.00	
 17.001	127.699	 78.58242	  0.28489	 59.71327	 69.83828	 -5.10373	 -4.54911	 92.09293	702.15002	 44.00	
 17.007	133.546	 78.58947	 -2.76554	 63.83437	 66.22121	 -2.43941	 -4.53504	 92.11709	702.13000	 44.00	
 17.014	139.343	 78.51849	 -5.62018	 67.54833	 62.19082	  0.50229	 -4.45365	 92.09409	702.13000	 44.00	
 16.988	145.161	 78.47129	 -7.96758	 70.86514	 57.77018	  3.65544	 -4.28185	 92.03942	702.09998	 44.10	
 16.995	150.919	 78.51049	 -9.96506	 73.87408	 53.36056	  7.09139	 -4.16828	 92.09492	702.09003	 44.10	
 16.990	156.759	 78.49421	-11.70189	 76.28144	 48.66107	 10.86670	 -4.04319	 92.07393	702.15002	 44.10	
 17.000	162.596	 78.49347	-12.93664	 78.18113	 43.83533	 14.87162	 -3.96964	 92.07532	702.07001	 44.10	
 17.009	168.383	 78.50534	-13.85907	 79.51285	 39.61000	 18.83693	 -3.84418	 92.05250	702.21002	 44.10	
 16.990	174.179	 78.58279	-14.34682	 80.32893	 34.82107	 23.32806	 -3.65003	 92.06731	702.16998	 44.10	
 18.709	174.675	 75.49972	-19.73289	 82.99966	 32.36993	 21.03330	 -3.55912	 92.02682	702.10999	 44.10	
 18.703	169.441	 75.47391	-19.18241	 82.27005	 37.13513	 16.61464	 -3.77622	 92.06452	702.19000	 44.10	
 18.691	164.085	 75.51289	-18.35658	 80.88989	 41.99946	 12.29699	 -3.98202	 92.10077	702.19000	 44.10	
 18.706	158.818	 75.48378	-17.35010	 79.20441	 46.14100	  8.32876	 -4.12215	 92.07591	702.13000	 44.10	
 18.695	153.537	 75.49285	-15.77923	 76.99867	 50.92995	  4.57001	 -4.32026	 92.05562	702.17999	 44.10	
 18.704	148.255	 75.52460	-13.98181	 74.30231	 55.48104	  1.10140	 -4.49381	 92.04739	702.09998	 44.10	
 18.698	142.952	 75.53199	-11.87312	 71.12592	 59.73755	 -1.93992	 -4.64209	 92.01172	702.12000	 44.10	
 18.699	137.625	 75.54428	 -9.48713	 67.59021	 64.26675	 -4.90899	 -4.84040	 92.06351	702.19000	 44.10	
 18.705	132.343	 75.43778	 -6.78519	 63.73276	 68.16787	 -7.59954	 -4.97336	 91.96838	702.19000	 44.10	
 18.713	127.067	 75.55080	 -3.77705	 59.63813	 71.37105	 -9.96626	 -5.05191	 92.04572	702.09998	 44.10	
 18.700	121.794	 75.63516	 -0.38356	 55.21457	 74.53855	-11.98423	 -5.12189	 92.04323	702.22998	 44.10	
 18.698	116.504	 75.70948	  3.30874	 50.66461	 77.15628	-13.79082	 -5.17383	 92.03181	702.21997	 44.00	
 18.707	111.165	 75.66109	  7.45467	 45.79312	 79.39787	-15.82381	 -5.18134	 92.05669	702.15997	 44.00	
 18.690	105.863	 75.74005	 11.67473	 40.98967	 81.11446	-17.09871	 -5.20309	 92.07851	702.17999	 44.10	
 18.696	100.583	 75.74098	 15.99929	 36.06868	 82.39249	-18.07173	 -5.25196	 92.07884	702.12000	 44.10	
 18.700	 95.309	 75.74224	 20.59874	 31.11155	 83.17544	-18.71666	 -5.30487	 92.04008	702.15997	 44.00	
 18.700	 90.000	 75.83016	 25.25358	 26.30612	 83.45403	-18.87418	 -5.37450	 92.05209	702.23999	 44.10	
 18.700	 84.691	 75.89756	 29.88560	 21.75411	 83.22601	-18.55989	 -5.42271	 92.02045	702.21002	 44.10	
 18.696	 79.417	 75.99680	 34.17065	 18.07316	 82.51115	-18.12254	 -5.35705	 92.01087	701.51001	 44.10	
 18.690	 74.137	 76.08954	 39.01848	 13.63633	 81.32448	-17.34178	 -5.35431	 92.01700	701.50000	 44.10	
 18.707	 68.835	 76.16105	 44.06865	  9.41941	 79.67922	-16.14143	 -5.20606	 92.00621	701.46997	 44.10	
 18.698	 63.496	 76.34748	 49.05077	  5.44399	 77.62027	-14.41670	 -5.05827	 92.10142	702.09998	 44.10	
 18.700	 58.206	 76.42451	 53.73417	  1.77903	 74.98797	-12.68592	 -4.97848	 92.09943	702.23999	 44.10	
 18.713	 52.933	 76.44154	 58.20218	 -1.60535	 71.98691	-10.79183	 -4.89898	 92.08273	701.76001	 44.10	
 18.705	 47.657	 76.50130	 62.38294	 -4.58014	 68.70441	 -8.45294	 -4.77102	 92.03054	702.17999	 44.10	
 18.699	 42.375	 76.60497	 66.28777	 -7.33073	 64.87108	 -5.76449	 -4.70270	 92.05490	701.39001	 44.10	
 18.698	 37.048	 76.72442	 69.90913	 -9.75140	 60.56646	 -2.71879	 -4.51584	 92.09243	702.01001	 44.20	
 18.704	 31.745	 76.74470	 73.06004	-11.78237	 56.35590	  0.57816	 -4.35731	 92.06278	701.34998	 44.20	
 18.695	 26.463	 76.84728	 75.83640	-13.37860	 51.83621	  4.32288	 -4.23199	 92.03721	702.22998	 44.20	
 18.706	 21.182	 76.88301	 78.13908	-14.73744	 47.00676	  8.25479	 -4.14902	 92.03352	702.22998	 44.20	
 18.691	 15.915	 76.99466	 79.93180	-15.82267	 42.94674	 12.42300	 -4.07022	 92.07256	702.21997	 44.20	
 18.703	 10.559	 77.03857	 81.30193	-16.49838	 37.83559	 16.17246	 -4.01017	 92.04832	702.20001	 44.20	
 18.709	  5.325	 77.02135	 82.14548	-16.98096	 32.86818	 20.73757	 -3.93144	 92.03149	701.91998	 44.20	
 18.700	  0.000	 77.10218	 82.52368	-17.11263	 28.27096	 25.57676	 -3.82126	 92.09533	702.06000	 44.20	
 18.709	 -5.325	 77.16986	 82.41054	-16.72356	 23.95592	 30.34015	 -3.61089	 92.10796	702.15997	 44.20	
 18.703	-10.559	 77.15176	 81.86358	-16.39456	 19.69315	 34.81693	 -3.27141	 92.07351	702.21997	 44.20	
 18.691	-15.915	 77.22362	 80.65011	-15.56687	 15.02197	 39.86172	 -3.12810	 92.05079	702.14001	 44.20	
 18.706	-21.182	 77.23178	 79.07159	-14.59212	 10.19955	 44.86597	 -2.98465	 92.06676	702.13000	 44.20	
 18.695	-26.463	 77.16490	 76.96088	-13.30806	  6.00889	 49.81674	 -2.84700	 92.01884	701.41998	 44.20	
 18.704	-31.745	 77.18190	 74.44032	-11.65048	  2.34330	 54.56316	 -2.73084	 92.06311	701.41998	 44.20	
 18.698	-37.048	 77.11222	 71.30380	 -9.60619	 -1.05259	 59.02605	 -2.64397	 92.02905	702.23999	 44.20	
 18.699	-42.375	 77.05934	 67.79269	 -7.03540	 -4.07710	 63.19617	 -2.50977	 92.00359	702.08002	 44.20	
 18.705	-47.657	 77.06254	 64.11682	 -4.23181	 -6.70599	 67.24041	 -2.45784	 92.05096	702.21002	 44.20	
 18.713	-52.933	 77.04177	 60.00077	 -1.13455	 -9.03333	 70.76289	 -2.32230	 92.05982	702.07001	 44.20	
 18.700	-58.206	 76.97382	 55.56491	  2.44380	-11.10223	 73.67990	 -2.28062	 92.05902	702.13000	 44.20	
 18.698	-63.496	 76.89708	 50.98019	  6.17543	-12.91063	 76.33597	 -2.20914	 92.01571	702.21997	 44.20	
 18.707	-68.835	 76.79500	 46.11712	 10.24207	-14.32138	 78.55869	 -2.14973	 92.02473	702.17999	 44.20	
 18.690	-74.137	 76.72057	 41.27220	 14.62671	-15.34449	 80.31697	 -2.15084	 92.02463	702.15002	 44.20	
 18.696	-79.417	 76.65129	 36.50981	 19.08240	-16.29297	 81.49792	 -2.11396	 92.06599	701.72998	 44.20	
 18.700	-84.691	 76.60563	 31.77688	 23.65278	-16.80838	 82.19272	 -2.09479	 92.05687	702.25000	 44.20	
 18.700	-90.000	 76.54243	 27.48796	 27.85222	-16.82658	 82.40334	 -1.92197	 92.02664	702.15002	 44.20	
 18.700	-95.309	 76.46709	 22.98507	 32.34566	-16.91651	 82.10398	 -1.95114	 92.02021	702.21997	 44.20	
 18.696	-100.583	 76.51332	 18.36671	 37.22705	-16.60348	 81.46500	 -1.88215	 92.14082	702.33002	 44.20	
 18.690	-105.863	 76.46365	 13.81216	 42.05655	-15.83664	 80.22697	 -1.83997	 92.06567	702.06000	 44.20	
 18.707	-111.165	 76.32714	  9.19227	 46.84548	-14.74228	 78.40761	 -1.78061	 92.03278	702.22998	 44.20	
 18.698	-116.504	 76.39989	  4.63151	 51.63567	-13.05176	 76.17248	 -1.84170	 92.11356	702.12000	 44.20	
 18.700	-121.794	 76.33879	  0.97226	 56.14057	-11.28532	 73.28509	 -1.83837	 92.05354	702.21997	 44.20	
 18.713	-127.067	 76.25563	 -2.45075	 60.49930	 -9.28549	 70.30622	 -1.92664	 92.04958	702.25000	 44.20	
 18.705	-132.343	 76.21033	 -5.58758	 64.56597	 -6.89616	 66.82046	 -1.98736	 92.08071	702.28998	 44.20	
 18.699	-137.625	 76.10143	 -8.46547	 68.24001	 -4.11529	 62.84912	 -2.04038	 92.01571	701.81000	 44.20	
 18.698	-142.952	 76.04462	-11.00073	 71.73316	 -0.98210	 58.72635	 -2.17895	 92.01632	701.52002	 44.20	
 18.704	-148.255	 76.00191	-13.19327	 74.84873	  2.40555	 54.20841	 -2.26868	 92.06344	701.53998	 44.20	
 18.695	-153.537	 75.94917	-15.17243	 77.39638	  6.21420	 49.10031	 -2.38847	 92.09162	701.59003	 44.20	
 18.706	-158.818	 75.82915	-17.03772	 79.52425	 10.52384	 44.60637	 -2.47341	 92.05375	701.44000	 44.20	
 18.691	-164.085	 75.76221	-18.36459	 81.14452	 14.97063	 39.65714	 -2.66810	 92.05174	701.47998	 44.20	
 18.703	-169.441	 75.65096	-19.44061	 82.31840	 19.35207	 34.78360	 -2.81055	 92.06458	701.51001	 44.30	
 18.709	-174.675	 75.56969	-20.09307	 82.96966	 23.82805	 29.85625	 -3.02285	 92.03436	701.47998	 44.20	
 18.700	180.000	 75.56043	-19.75637	 83.13599	 27.65300	 25.59891	 -3.40344	 92.04440	701.46997	 44.20	
 20.400	180.000	 72.28014	-24.54115	 85.48875	 24.74605	 23.20699	 -3.01131	 92.10796	701.39001	 44.30	
 20.401	-175.153	 72.22989	-24.78823	 85.28252	 20.86319	 27.14954	 -2.80166	 92.05923	701.53003	 44.30	
 20.407	-170.264	 72.27519	-24.34978	 84.60162	 16.74345	 31.38042	 -2.63929	 92.04653	701.53998	 44.30	
 20.410	-165.423	 72.40227	-23.55262	 83.59592	 12.19724	 36.17346	 -2.52592	 92.07262	701.44000	 44.30	
 20.392	-160.496	 72.45411	-22.44999	 82.00845	  7.76208	 41.74318	 -2.30000	 92.05447	701.52002	 44.20	
 20.401	-155.705	 72.50345	-20.88495	 80.15537	  3.68541	 46.67489	 -2.22157	 92.09698	701.51001	 44.20	
 20.405	-150.835	 72.60728	-19.13902	 77.78450	  0.11813	 51.33614	 -2.12399	 92.05130	702.13000	 44.20	
 20.397	-145.903	 72.72467	-17.05408	 74.92348	 -3.37727	 56.20536	 -2.03481	 92.07742	702.09003	 44.20	
 20.392	-141.062	 72.75861	-14.81788	 71.67516	 -6.56153	 60.57889	 -1.98095	 92.06025	701.48999	 44.20	
 20.396	-136.227	 72.85306	-12.22612	 68.09486	 -9.33521	 64.36035	 -1.86374	 92.01237	702.17999	 44.20	
 20.408	-131.372	 72.87780	 -9.43889	 64.36510	-11.94229	 68.37396	 -1.81540	 92.01109	701.88000	 44.20	
 20.410	-126.511	 72.89663	 -6.42253	 60.27420	-14.32679	 71.92048	 -1.77082	 92.02420	702.25000	 44.20	
 20.400	-121.604	 72.98938	 -3.10134	 55.83043	-16.33556	 75.00402	 -1.73094	 92.01456	702.28998	 44.30	
 20.403	-116.741	 73.01717	  0.54863	 51.23684	-18.01135	 77.74281	 -1.73596	 92.01168	702.28998	 44.20	
 20.413	-111.900	 73.02578	  4.40938	 46.37498	-19.51134	 80.12152	 -1.76640	 92.02623	702.22998	 44.20	
 20.398	-107.004	 73.11345	  8.98918	 41.60947	-20.60989	 81.94503	 -1.76366	 92.02942	702.26001	 44.20	
 20.394	-102.132	 73.19345	 13.31794	 36.59743	-21.20493	 83.36160	 -1.73028	 92.04712	701.53998	 44.20	
 20.403	-97.332	 73.19853	 18.04994	 31.80105	-21.56928	 84.25894	 -1.75058	 92.04058	701.65002	 44.20	
 20.392	-92.440	 73.26334	 22.86301	 27.13387	-21.70092	 84.70553	 -1.81907	 92.02606	702.28998	 44.20	
 20.392	-87.560	 73.31083	 26.69979	 23.15373	-21.57437	 84.80944	 -1.97031	 91.99908	702.23999	 44.20	
 20.403	-82.668	 73.33228	 31.23356	 18.63673	-21.31352	 84.33276	 -2.05736	 92.02042	702.01001	 44.20	
 20.394	-77.868	 73.39223	 36.21602	 14.07439	-20.56100	 83.41984	 -2.02897	 91.99957	701.45001	 44.20	
 20.398	-72.996	 73.47254	 40.90705	  9.78148	-19.60967	 82.14252	 -2.03216	 92.04592	702.19000	 44.30	
 20.413	-68.100	 73.55866	 45.66270	  5.63950	-18.60217	 80.53075	 -1.99246	 92.09703	701.50000	 44.30	
 20.403	-63.259	 73.61934	 50.41521	  1.77785	-17.16906	 78.20687	 -1.96347	 92.04816	701.83002	 44.30	
 20.400	-58.396	 73.75027	 55.08612	 -1.70272	-15.38439	 75.54531	 -2.01917	 92.06297	702.31000	 44.30	
 20.410	-53.489	 73.75681	 59.57764	 -4.96651	-13.37575	 72.42038	 -2.06527	 92.06714	701.40002	 44.30	
 20.408	-48.628	 73.79807	 63.86278	 -7.94307	-11.01918	 68.87559	 -2.18796	 92.04864	701.52002	 44.30	
 20.396	-43.773	 73.79321	 67.63886	-10.59081	 -8.46143	 65.02963	 -2.26445	 91.98393	702.28998	 44.30	
 20.392	-38.938	 73.83097	 71.18690	-13.01487	 -5.62108	 61.07253	 -2.42597	 91.99987	701.48999	 44.30	
 20.397	-34.097	 73.89671	 74.54263	-15.15413	 -2.74404	 56.77434	 -2.50122	 92.05370	701.48999	 44.30	
 20.405	-29.165	 73.87118	 77.42873	-17.14591	  0.32934	 51.98931	 -2.66455	 92.01927	701.48999	 44.30	
 20.401	-24.295	 73.93890	 79.78294	-18.77556	  3.83121	 47.11906	 -2.78449	 92.06308	701.46997	 44.30	
 20.392	-19.504	 73.97647	 81.63059	-20.03177	  7.81558	 42.24236	 -2.84116	 92.05136	701.59003	 44.30	
 20.410	-14.577	 73.95645	 83.30667	-21.03945	 12.20908	 37.03075	 -3.06951	 92.06886	701.59998	 44.30	
 20.407	 -9.736	 73.87012	 84.18557	-21.75690	 16.73623	 32.14356	 -3.21580	 92.03228	702.28998	 44.30	
 20.401	 -4.847	 73.85467	 84.75880	-22.06559	 21.41004	 27.60409	 -3.54808	 92.04364	702.25000	 44.30	
 20.400	  0.000	 73.76749	 84.79265	-22.25684	 25.65569	 23.35600	 -3.74521	 91.99970	701.39001	 44.30	
 20.401	  4.847	 73.73914	 84.48739	-22.14420	 30.19119	 18.45912	 -3.99314	 91.99773	701.46002	 44.30	
 20.407	  9.736	 73.71683	 83.73196	-21.77655	 35.10587	 13.84938	 -4.23164	 91.98543	701.59998	 44.30	
 20.410	 14.577	 73.65855	 82.52032	-21.15943	 39.97387	  9.59266	 -4.39728	 92.02942	701.71002	 44.30	
 20.392	 19.504	 73.62882	 80.81384	-20.18552	 44.91094	  5.48039	 -4.54329	 92.01872	701.63000	 44.40	
 20.401	 24.295	 73.52123	 78.77334	-19.04652	 48.99141	  1.57981	 -4.66615	 92.02859	702.28998	 44.40	
 20.405	 29.165	 73.43503	 76.22463	-17.61537	 53.67859	 -1.94777	 -4.79650	 92.00648	702.21997	 44.40	
 20.397	 34.097	 73.41794	 73.24847	-15.82979	 58.17563	 -5.06874	 -4.98907	 92.04654	701.90997	 44.40	
 20.392	 38.938	 73.32626	 69.87927	-13.85373	 62.36325	 -8.07508	 -5.16543	 92.03186	701.65002	 44.30	
 20.396	 43.773	 73.20785	 66.25383	-11.53897	 66.56740	-11.00296	 -5.30868	 92.02046	702.15997	 44.30	
 20.408	 48.628	 73.16058	 62.33305	 -8.89353	 70.31104	-13.53437	 -5.43619	 92.05681	702.28003	 44.30	
 20.410	 53.489	 73.07834	 57.95476	 -5.78097	 73.36845	-15.62281	 -5.55244	 91.99409	702.15002	 44.30	
 20.400	 58.396	 73.01268	 53.41811	 -2.50161	 76.50220	-17.54140	 -5.66046	 92.02166	702.19000	 44.30	
 20.403	 63.259	 72.93243	 48.66245	  1.00341	 79.14695	-19.47322	 -5.77618	 92.03831	702.28003	 44.30	
 20.413	 68.100	 72.80479	 43.76682	  4.77508	 81.26128	-21.08832	 -5.83775	 91.98801	702.10999	 44.30	
 20.398	 72.996	 72.74896	 38.76540	  8.87327	 83.08298	-22.21444	 -5.92694	 91.97176	702.19000	 44.30	
 20.394	 77.868	 72.70729	 33.83926	 13.08441	 84.42242	-23.16513	 -6.00528	 92.06014	702.23999	 44.30	
 20.403	 82.668	 72.57840	 29.37466	 16.89324	 85.21400	-23.72318	 -6.11774	 92.03506	701.95001	 44.30	
 20.392	 87.560	 72.49239	 25.25902	 20.86316	 85.67862	-24.02583	 -6.07061	 92.01755	702.15997	 44.30	
 20.392	 92.440	 72.48076	 20.60656	 25.71012	 85.64822	-24.05370	 -5.96855	 92.02448	702.14001	 44.40	
 20.403	 97.332	 72.39695	 15.89584	 30.62004	 85.08258	-23.67797	 -5.90078	 92.01069	701.63000	 44.40	
 20.394	102.132	 72.40565	 11.47336	 35.46044	 84.22570	-22.94522	 -5.88556	 92.05751	701.47998	 44.30	
 20.398	107.004	 72.40295	  6.96412	 40.29295	 82.87999	-21.50015	 -5.87194	 92.02915	702.15997	 44.40	
 20.413	111.900	 72.40501	  2.99029	 45.24852	 81.10995	-20.01616	 -5.82302	 92.05611	701.58002	 44.30	
 20.403	116.741	 72.41457	 -0.78540	 50.02375	 78.96804	-18.50341	 -5.71058	 92.05936	701.85999	 44.30	
 20.400	121.604	 72.34039	 -4.41534	 54.62151	 76.09921	-16.81226	 -5.58327	 92.01678	701.46002	 44.30	
 20.410	126.511	 72.22561	 -7.72394	 59.16244	 72.95605	-14.80341	 -5.40192	 92.03014	701.40002	 44.30	
 20.408	131.372	 72.26987	-10.79670	 63.41201	 69.82961	-12.60937	 -5.23811	 92.04522	701.35999	 44.30	
 20.396	136.227	 72.25490	-13.53732	 67.27455	 65.96864	-10.08600	 -5.04011	 92.00214	701.82001	 44.30	
 20.392	141.062	 72.26756	-15.89295	 70.89909	 61.77367	 -7.20471	 -4.86977	 92.00603	701.39001	 44.30	
 20.397	145.903	 72.27361	-17.90766	 74.20132	 57.38886	 -4.16186	 -4.63177	 92.01997	702.16998	 44.30	
 20.405	150.835	 72.13931	-19.82857	 77.14865	 52.84438	 -1.04447	 -4.40511	 91.98332	702.08002	 44.30	
 20.401	155.705	 72.16785	-21.15897	 79.67100	 48.14864	  2.34513	 -4.16436	 92.05074	702.23999	 44.30	
 20.392	160.496	 72.16174	-22.37606	 81.63350	 43.92261	  5.84973	 -3.94185	 92.01646	701.95001	 44.30	
 20.410	165.423	 72.19834	-23.08067	 83.30042	 39.15960	  9.87440	 -3.71542	 92.05740	702.14001	 44.30	
 20.407	170.264	 72.22965	-23.74237	 84.43577	 34.39906	 14.15148	 -3.47401	 92.03982	701.51001	 44.30	
 20.401	175.153	 72.20221	-24.27058	 85.14552	 29.46379	 18.66714	 -3.27670	 92.02370	702.26001	 44.30	
  0.141	 45.000	 92.15034	 39.51010	 41.17112	 41.86330	 38.87780	  2.16093	 92.06895	702.21997	 44.30	
  4.001	128.691	 91.62942	 31.11611	 47.93650	 49.61430	 29.48675	  1.72556	 91.98214	702.09998	 44.30	
  4.002	 76.995	 91.79341	 40.83884	 38.00262	 52.14498	 27.44694	  2.02041	 92.03595	701.44000	 44.30	
  4.002	 25.892	 91.88479	 49.20218	 30.35703	 45.85495	 33.49568	  2.09351	 92.01260	701.39001	 44.30	
  4.002	-25.892	 91.93958	 49.41175	 30.43223	 35.78723	 43.82922	  1.91773	 92.01996	701.52002	 44.30	
  4.002	-76.995	 91.86594	 41.42613	 38.19720	 30.85166	 50.30390	  1.59520	 92.05190	701.45001	 44.30	
  4.001	-128.691	 91.68661	 31.53096	 48.06345	 32.37348	 47.79141	  1.46299	 92.01463	702.16998	 44.30	
  4.000	180.000	 91.63783	 27.06261	 52.51669	 40.77441	 38.32178	  1.48137	 92.06229	701.85999	 44.30	
  8.000	180.000	 89.62064	 14.65134	 62.55211	 38.73362	 36.24567	  0.15199	 92.04667	701.45001	 44.30	
  7.991	-152.370	 89.75179	 17.19740	 59.95358	 28.96849	 47.77180	  0.09719	 92.07347	701.98999	 44.40	
  7.997	-124.550	 89.91613	 24.21337	 52.26863	 21.21977	 56.60303	  0.04615	 92.07657	702.14001	 44.40	
  8.006	-96.837	 90.05460	 34.53331	 41.73108	 17.74410	 61.23981	  0.06387	 92.03008	702.19000	 44.40	
  7.988	-69.228	 90.25887	 45.70354	 30.98229	 19.09936	 59.77515	  0.28479	 92.06992	702.13000	 44.40	
  7.997	-41.563	 90.39233	 55.16990	 22.24467	 24.95366	 52.60084	  0.56007	 92.08937	702.13000	 44.40	
  8.008	-13.821	 90.36866	 60.38147	 17.55184	 34.39433	 42.26083	  0.91849	 92.05058	702.17999	 44.40	
  8.008	 13.821	 90.22691	 60.11222	 17.35571	 44.63275	 31.03181	  1.12895	 92.02848	702.13000	 44.40	
  7.997	 41.563	 90.12696	 54.30652	 21.86506	 54.50825	 21.75309	  1.16603	 92.05471	702.20001	 44.40	
  7.988	 69.228	 89.95058	 44.53990	 30.47252	 61.17240	 16.06281	  1.03449	 92.06348	702.26001	 44.40	
  8.006	 96.837	 89.77160	 33.39669	 41.23942	 62.45690	 14.89516	  0.84548	 92.04254	702.14001	 44.40	
  7.997	124.550	 89.70590	 23.40109	 51.88105	 58.15796	 18.70652	  0.59325	 92.08130	702.21002	 44.40	
  7.991	152.370	 89.61130	 16.83181	 59.72845	 49.24598	 26.22258	  0.34644	 92.04920	702.20001	 44.40	
 12.009	161.059	 85.71855	  3.18138	 69.33614	 46.62038	 22.83019	 -1.76154	 92.04562	702.21002	 44.40	
 12.013	142.081	 85.69144	  8.00304	 63.32718	 56.99863	 13.68173	 -1.65723	 92.02720	702.19000	 44.40	
 12.006	123.113	 85.86645	 15.21408	 54.29631	 65.33662	  6.53827	 -1.25720	 92.04665	702.13000	 44.40	
 12.007	104.200	 86.00072	 24.64161	 43.57841	 70.39932	  2.84781	 -1.09500	 92.05341	702.28003	 44.40	
 11.989	 85.301	 86.13435	 35.89149	 32.23338	 71.51359	  2.27523	 -1.00909	 92.01741	702.15997	 44.40	
 12.013	 66.294	 86.24476	 47.18318	 21.98696	 68.83284	  4.24682	 -1.73671	 92.01193	702.20001	 44.40	
 12.012	 47.388	 86.43874	 57.49088	 13.48039	 62.13492	  9.21607	 -1.61259	 92.05477	701.75000	 44.40	
 11.990	 28.440	 86.67141	 65.16710	  7.75495	 52.50033	 17.30509	 -1.01096	 92.06776	702.23999	 44.40	
 11.991	  9.464	 86.84444	 69.56898	  4.62989	 41.48495	 27.63414	 -1.13229	 92.05336	702.13000	 44.40	
 11.991	 -9.464	 86.94878	 69.88062	  4.46628	 31.07854	 39.19862	 -0.91070	 92.07793	702.09998	 44.40	
 11.990	-28.440	 86.94363	 65.99082	  8.06803	 20.89716	 50.54156	 -1.27805	 92.05223	702.09003	 44.40	
 12.012	-47.388	 86.85816	 58.70517	 14.12110	 13.13166	 60.23602	 -1.43888	 92.02724	702.09998	 44.40	
 12.013	-66.294	 86.75628	 48.64019	 22.52182	  8.02357	 67.39606	 -1.63471	 92.01619	702.14001	 44.40	
 11.989	-85.301	 86.58523	 37.28154	 33.07532	  5.80900	 70.30500	 -1.58956	 92.03385	702.13000	 44.40	
 12.007	-104.200	 86.40202	 25.96277	 44.28003	  6.37287	 69.32629	 -1.68987	 91.98254	702.19000	 44.40	
 12.006	-123.113	 86.21417	 16.26919	 54.92486	 10.01622	 64.11706	 -1.95831	 92.01770	702.21997	 44.40	
 12.013	-142.081	 85.99332	  8.66216	 63.77257	 16.03397	 55.61541	 -1.71261	 91.97129	701.72998	 44.40	
 12.009	-161.059	 85.92733	  4.07195	 69.64338	 25.25734	 44.79155	 -1.98421	 92.05468	702.21997	 44.40	
 16.000	180.000	 80.25255	-11.22809	 79.05701	 31.80733	 29.21170	 -3.31969	 92.00675	702.15002	 44.40	
 15.990	-165.604	 80.30820	-10.26551	 77.57903	 20.91598	 40.44737	 -2.90745	 91.99400	702.15002	 44.40	
 16.002	-151.165	 80.47683	 -6.59047	 73.10801	 11.58293	 51.92620	 -2.57012	 92.05296	702.20001	 44.40	
 16.002	-136.836	 80.69463	 -0.87502	 65.75115	  3.81005	 61.55121	 -2.33820	 92.04321	702.21997	 44.40	
 15.995	-122.439	 80.79287	  7.32569	 56.33801	 -2.46602	 70.12239	 -2.12807	 92.05743	702.15002	 44.40	
 15.993	-107.966	 81.04489	 17.35552	 45.50671	 -6.41044	 75.45238	 -2.16681	 92.05676	702.16998	 44.40	
 16.005	-93.629	 81.12482	 28.00865	 34.24845	 -8.24188	 77.88248	 -2.14459	 92.01508	702.15002	 44.40	
 15.992	-79.234	 81.27029	 38.80507	 23.48951	 -7.79960	 77.15932	 -2.32592	 92.02207	702.26001	 44.40	
 16.009	-64.774	 81.40442	 50.18245	 13.33660	 -5.23859	 73.27345	 -2.53622	 92.00263	702.17999	 44.40	
 15.997	-50.364	 81.52354	 60.63648	  4.43906	 -0.33746	 66.49772	 -2.71025	 92.04427	702.14001	 44.40	
 15.997	-36.045	 81.62667	 68.94987	 -2.30682	  7.14910	 57.22446	 -2.75440	 92.04586	702.22998	 44.40	
 16.000	-21.597	 81.73959	 75.08181	 -6.60463	 16.67965	 46.17097	 -2.87737	 92.06751	702.15002	 44.40	
 16.003	 -7.169	 81.69541	 77.91267	 -8.11877	 26.81433	 34.78140	 -3.14963	 92.07213	702.32001	 44.40	
 16.003	  7.169	 81.56516	 77.65577	 -8.34814	 37.64386	 23.79070	 -3.21914	 92.03695	702.21002	 44.40	
 16.000	 21.597	 81.30686	 74.17564	 -6.46280	 48.30128	 12.82341	 -3.15617	 91.97947	702.28003	 44.40	
 15.997	 36.045	 81.18449	 67.68061	 -2.84133	 59.01025	  3.93628	 -3.36238	 92.06276	702.28003	 44.40	
 15.997	 50.364	 81.03528	 59.08899	  3.90635	 68.17667	 -2.82821	 -3.60478	 92.07178	702.34003	 44.40	
 16.009	 64.774	 80.74384	 48.31231	 12.45117	 74.74136	 -7.22376	 -3.83739	 92.02691	702.21002	 44.40	
 15.992	 79.234	 80.57874	 36.84534	 22.58920	 78.47831	 -9.75433	 -4.00441	 92.02962	702.28003	 44.40	
 16.005	 93.629	 80.36177	 25.77710	 32.91319	 79.13032	-10.38081	 -4.06028	 92.02077	702.28998	 44.40	
 15.993	107.966	 80.30385	 15.32993	 44.34858	 76.83187	 -8.63278	 -4.00080	 92.03507	702.25000	 44.40	
 15.995	122.439	 80.24548	  5.80202	 55.42804	 71.22889	 -4.39274	 -4.03509	 92.03223	702.27002	 44.40	
 16.002	136.836	 80.26958	 -1.63190	 65.06096	 63.32669	  1.70145	 -4.09377	 92.07227	702.21002	 44.40	
 16.002	151.165	 80.16228	 -7.16040	 72.62912	 53.05668	  9.35635	 -3.89201	 92.03233	702.28003	 44.40	
 15.990	165.604	 80.22346	-10.26613	 77.40833	 41.93366	 18.64225	 -3.81137	 92.02750	702.29999	 44.40	
 20.003	168.362	 72.99147	-22.30935	 83.63731	 36.69895	 13.24594	 -3.62974	 92.09335	702.32001	 44.40	
 20.008	156.764	 72.92907	-20.55729	 79.79226	 47.32464	  3.96395	 -4.15583	 92.06750	702.29999	 44.40	
 20.000	145.147	 73.08823	-16.47931	 73.45293	 58.08166	 -3.68032	 -4.71445	 92.05000	702.22998	 44.40	
 19.995	133.545	 73.02726	-10.95393	 65.07062	 67.93891	-10.39939	 -5.12161	 92.01959	702.08002	 44.40	
 20.009	121.926	 73.12723	 -3.65839	 55.03068	 75.61141	-15.50784	 -5.53018	 92.05627	702.21002	 44.40	
 20.005	110.327	 73.21915	  5.15487	 43.97237	 81.24496	-19.24834	 -5.72613	 92.07876	702.17999	 44.40	
 19.989	 98.733	 73.20575	 15.33292	 32.51073	 84.41239	-22.29645	 -5.72022	 92.05811	702.16998	 44.40	
 19.999	 87.075	 73.21831	 26.18304	 21.16545	 85.11105	-22.74313	 -5.94515	 92.04797	702.15002	 44.50	
 19.992	 75.457	 73.50012	 36.72179	 11.75782	 83.41233	-21.50692	 -5.84820	 92.03148	702.25000	 44.40	
 20.009	 63.844	 73.67132	 48.19942	  2.22599	 78.98515	-18.50728	 -5.69412	 91.97212	702.09998	 44.40	
 19.989	 52.269	 74.04076	 59.03332	 -5.52258	 72.25865	-13.94007	 -5.33391	 92.05392	702.09998	 44.40	
 19.999	 40.602	 74.14426	 68.41440	-11.98186	 63.81561	 -8.09026	 -5.06282	 92.06145	702.03998	 44.40	
 20.004	 29.051	 74.28123	 75.93718	-16.49577	 53.76030	 -1.06693	 -4.70082	 92.04170	702.20001	 44.50	
 20.005	 17.433	 74.49637	 81.11756	-19.30073	 43.30275	  7.99203	 -4.38518	 92.06564	702.20001	 44.50	
 20.006	  5.780	 74.57311	 83.91496	-20.84755	 31.67184	 18.18309	 -4.03274	 92.04855	702.19000	 44.50	
 20.006	 -5.780	 74.67181	 84.17419	-20.81031	 21.53213	 28.78092	 -3.49135	 92.07272	702.15997	 44.50	
 20.005	-17.433	 74.76823	 81.94719	-19.26033	 10.49852	 40.32766	 -2.99355	 92.08388	702.17999	 44.50	
 20.004	-29.051	 74.74067	 77.23222	-16.03919	  1.26296	 51.89567	 -2.63857	 92.05019	702.20001	 44.50	
 19.999	-40.602	 74.61510	 69.86987	-11.17864	 -5.83774	 62.15399	 -2.33554	 92.04491	702.19000	 44.50	
 19.989	-52.269	 74.60857	 60.76783	 -4.59245	-11.74602	 71.22251	 -2.15323	 92.03217	702.12000	 44.50	
 20.009	-63.844	 74.41039	 50.19083	  3.37317	-16.14173	 78.00829	 -1.98252	 92.01113	702.17999	 44.50	
 19.992	-75.457	 74.28488	 39.02033	 12.97565	-18.89228	 82.40260	 -2.00279	 92.04679	702.21997	 44.50	
 19.999	-87.075	 74.17910	 27.98905	 23.50035	-20.44186	 84.24710	 -2.01231	 92.07118	702.33002	 44.50	
 19.989	-98.733	 74.05943	 17.68903	 33.90230	-20.46696	 83.51738	 -1.77662	 92.06975	702.20001	 44.50	
 20.005	-110.327	 73.87220	  6.78135	 45.24645	-18.82451	 80.36991	 -1.67413	 92.03734	702.17999	 44.50	
 20.009	-121.926	 73.86445	 -2.30770	 56.09986	-15.04318	 74.55527	 -1.74090	 92.05951	702.25000	 44.50	
 19.995	-133.545	 73.74294	 -9.62248	 65.91998	 -9.73827	 66.57437	 -1.88818	 92.00243	702.33002	 44.50	
 20.000	-145.147	 73.53529	-15.59892	 74.08483	 -2.92961	 56.94931	 -2.05699	 91.99738	702.21002	 44.50	
 20.008	-156.764	 73.33742	-20.21369	 80.14023	  5.54553	 45.90023	 -2.30673	 92.05104	702.15997	 44.50	
 20.003	-168.362	 73.15038	-23.17779	 83.76960	 16.01783	 34.34718	 -2.60754	 92.04143	702.16998	 44.50	
 20.000	180.000	 73.02792	-23.62267	 84.87022	 25.43426	 23.78854	 -3.12582	 92.01841	702.17999	 44.50	
