FileType=PCF
NHL=14
Date=03/15/19	15:03:49
Facility=APL
Serial=16071-3
Customer=NASA
NP=6
Mach=0.300000
Calibration=1:1
CalPts=490
TstPts=95
PortNumbering=AP Standard
Units=Torr C m/s kg/m^3 deg mm 
Theta[deg]	Phi[deg]	P1[Torr]	P2[Torr]	P3[Torr]	P4[Torr]	P5[Torr]	P6[Torr]	Pt[Torr]	Ps[Abs,Torr]	Ts[C]	
  0.000	  0.000	 42.53831	 17.63953	 18.66424	 18.53368	 18.02077	  1.04559	 42.61048	702.52002	 27.90	
  1.691	128.401	 42.52733	 16.06753	 20.05478	 20.36391	 16.25993	  1.01637	 42.62574	702.70001	 28.00	
  1.692	 77.194	 42.52181	 18.05992	 18.04907	 20.83874	 15.80338	  1.07237	 42.60144	702.71002	 28.00	
  1.699	 26.182	 42.54371	 19.73850	 16.49008	 19.55712	 17.02014	  1.08968	 42.61451	702.56000	 28.00	
  1.699	-26.182	 42.53204	 19.81196	 16.51874	 17.65056	 19.00380	  1.05254	 42.60262	702.60999	 28.00	
  1.692	-77.194	 42.52870	 18.15523	 18.11624	 16.40874	 20.17699	  0.99165	 42.60645	702.58002	 28.00	
  1.691	-128.401	 42.51990	 16.08725	 20.11812	 16.81746	 19.72335	  0.95163	 42.61837	702.66998	 28.10	
  1.700	180.000	 42.51159	 15.15933	 21.01140	 18.45790	 18.00474	  0.95633	 42.61458	702.58002	 28.10	
  3.400	180.000	 42.40036	 12.66729	 23.29013	 18.29018	 17.84151	  0.81006	 42.61121	702.53003	 28.10	
  3.388	-152.325	 42.42788	 13.19785	 22.76683	 16.31973	 19.88910	  0.80016	 42.63938	702.53998	 28.20	
  3.397	-124.529	 42.44048	 14.70702	 21.23167	 14.60585	 21.37798	  0.79673	 42.61911	702.51001	 28.20	
  3.399	-96.763	 42.45659	 16.89844	 19.06273	 13.83066	 22.27679	  0.83792	 42.62210	702.62000	 28.20	
  3.394	-69.283	 42.48836	 19.19750	 16.83969	 14.14132	 22.02857	  0.88561	 42.61628	702.65002	 28.20	
  3.400	-41.398	 42.53074	 21.19161	 14.99582	 15.45580	 20.89969	  0.94757	 42.64487	702.65002	 28.20	
  3.401	-14.021	 42.54144	 22.26942	 13.97124	 17.39663	 19.01899	  1.00974	 42.62505	702.59998	 28.30	
  3.401	 14.021	 42.52864	 22.17249	 13.93759	 19.47849	 16.83786	  1.04910	 42.63219	702.64001	 28.30	
  3.400	 41.398	 42.51039	 21.01416	 14.90196	 21.57214	 14.91099	  1.04953	 42.63976	702.63000	 28.30	
  3.394	 69.283	 42.49683	 19.04335	 16.72085	 22.87801	 13.51408	  1.04157	 42.64597	702.64001	 28.30	
  3.399	 96.763	 42.47985	 16.74006	 18.95187	 23.13121	 13.19969	  0.98970	 42.65317	702.67999	 28.40	
  3.397	124.529	 42.44027	 14.58915	 21.11594	 22.27525	 13.93996	  0.90737	 42.64728	702.54999	 28.40	
  3.388	152.325	 42.43871	 13.16845	 22.71631	 20.51030	 15.52890	  0.85236	 42.64906	702.59003	 28.40	
  5.099	161.165	 42.15357	 10.59746	 25.03704	 20.26874	 15.16502	  0.62166	 42.63353	702.59003	 28.40	
  5.109	142.013	 42.15158	 11.57448	 23.82130	 22.43652	 13.18865	  0.64327	 42.62304	702.59998	 28.40	
  5.095	123.033	 42.18080	 13.13673	 22.00209	 24.08505	 11.72769	  0.74358	 42.63901	702.58002	 28.50	
  5.105	104.191	 42.23270	 15.21358	 19.79045	 25.08199	 10.88914	  0.80598	 42.65030	702.46997	 28.50	
  5.093	 85.207	 42.24664	 17.58421	 17.43435	 25.26488	 10.71511	  0.85868	 42.63745	702.70001	 28.50	
  5.104	 66.290	 42.30930	 19.92884	 15.24996	 24.76962	 11.23205	  0.91143	 42.65217	702.69000	 28.50	
  5.094	 47.331	 42.34371	 22.01927	 13.40342	 23.44328	 12.44636	  0.93666	 42.65775	702.59003	 28.50	
  5.089	 28.397	 42.36845	 23.59191	 12.11281	 21.50961	 14.47501	  0.94523	 42.65793	702.65002	 28.60	
  5.096	  9.576	 42.39025	 24.46501	 11.44927	 19.20831	 16.56833	  0.93120	 42.66821	702.56000	 28.60	
  5.096	 -9.576	 42.39091	 24.55005	 11.48596	 17.11345	 18.77293	  0.88832	 42.66461	702.57001	 28.60	
  5.089	-28.397	 42.40043	 23.79498	 12.21537	 14.98330	 20.85416	  0.81875	 42.65676	702.52002	 28.60	
  5.094	-47.331	 42.38910	 22.24794	 13.55567	 13.22080	 22.63842	  0.74931	 42.66091	702.59003	 28.60	
  5.104	-66.290	 42.35714	 20.16697	 15.43074	 11.99430	 23.91166	  0.67663	 42.65622	702.56000	 28.70	
  5.093	-85.207	 42.32019	 17.81404	 17.64053	 11.44588	 24.43819	  0.61680	 42.65373	702.59998	 28.70	
  5.105	-104.191	 42.28403	 15.39809	 19.97629	 11.59888	 24.24350	  0.58361	 42.65192	702.59003	 28.70	
  5.095	-123.033	 42.25291	 13.32485	 22.17458	 12.40832	 23.23277	  0.55356	 42.65253	702.70001	 28.70	
  5.109	-142.013	 42.20504	 11.69242	 23.96332	 13.82993	 21.58042	  0.55876	 42.63915	702.70001	 28.80	
  5.099	-161.165	 42.19827	 10.62751	 25.09860	 15.92626	 19.71725	  0.56813	 42.65728	702.63000	 28.80	
  5.100	180.000	 42.21155	 10.27237	 25.48350	 18.12741	 17.51728	  0.57936	 42.67495	702.65002	 28.80	
  6.800	180.000	 41.78392	  7.84659	 27.49666	 17.76171	 16.88177	  0.30067	 42.65009	702.57001	 28.80	
  6.796	-166.229	 41.80494	  8.15182	 27.24221	 15.53424	 19.22367	  0.29411	 42.66830	702.53003	 28.80	
  6.808	-152.311	 41.82991	  8.92580	 26.42126	 13.43448	 21.21486	  0.22112	 42.67221	702.60999	 28.80	
  6.795	-138.383	 41.85814	 10.12859	 25.08884	 11.74433	 23.14165	  0.26331	 42.66698	702.65997	 28.80	
  6.792	-124.591	 41.88878	 11.68291	 23.33652	 10.45887	 24.68849	  0.24832	 42.66685	702.65002	 28.80	
  6.787	-110.754	 41.94222	 13.55522	 21.23552	  9.52291	 25.88799	  0.28085	 42.68481	702.47998	 28.90	
  6.800	-96.985	 41.97482	 15.65579	 19.02072	  9.01407	 26.50617	  0.28325	 42.69356	702.54999	 28.90	
  6.800	-83.015	 42.01512	 17.99967	 16.73370	  9.03759	 26.52509	  0.31973	 42.68261	702.50000	 28.90	
  6.787	-69.246	 42.02416	 20.25717	 14.61175	  9.55995	 25.98768	  0.38560	 42.65009	702.48999	 28.90	
  6.792	-55.409	 42.06296	 22.39484	 12.72741	 10.56773	 24.89580	  0.43918	 42.67855	702.53998	 28.90	
  6.795	-41.617	 42.10225	 24.19667	 11.18169	 11.92519	 23.35624	  0.49016	 42.69210	702.48999	 29.00	
  6.808	-27.689	 42.11081	 25.64258	 10.00373	 13.63058	 21.38888	  0.58111	 42.69821	702.53998	 29.00	
  6.796	-13.771	 42.09628	 26.42674	  9.27126	 15.66720	 19.43795	  0.65428	 42.66391	702.52002	 29.00	
  6.800	  0.000	 42.09130	 26.69075	  8.97983	 17.89483	 17.30758	  0.70888	 42.67570	702.40002	 29.00	
  6.796	 13.771	 42.06604	 26.36218	  9.17689	 19.88005	 15.14090	  0.75168	 42.66531	702.48999	 29.00	
  6.808	 27.689	 42.03573	 25.44270	  9.82005	 22.17032	 12.86565	  0.75889	 42.66658	702.53003	 29.00	
  6.795	 41.617	 42.02306	 24.00854	 10.95482	 24.16829	 11.11736	  0.61278	 42.67842	702.45001	 29.00	
  6.792	 55.409	 41.99216	 22.16573	 12.46872	 25.70448	  9.72442	  0.71441	 42.67763	702.57001	 29.10	
  6.787	 69.246	 41.96283	 20.00294	 14.35774	 26.74123	  8.78461	  0.69001	 42.67482	702.41998	 29.10	
  6.800	 83.015	 41.90564	 17.70670	 16.46053	 27.26420	  8.24281	  0.64299	 42.65223	702.54999	 29.10	
  6.800	 96.985	 41.88313	 15.37009	 18.75179	 27.25549	  8.21430	  0.59897	 42.67559	702.54999	 29.10	
  6.787	110.754	 41.87400	 13.26338	 21.02661	 26.65387	  8.73947	  0.54921	 42.68661	702.53003	 29.10	
  6.792	124.591	 41.82796	 11.41252	 23.13457	 25.56973	  9.64787	  0.48299	 42.68845	702.62000	 29.10	
  6.795	138.383	 41.80451	  9.92475	 24.92191	 24.04521	 11.02415	  0.26681	 42.67989	702.63000	 29.20	
  6.808	152.311	 41.77940	  8.76635	 26.33116	 22.05721	 12.79359	  0.37520	 42.66959	702.62000	 29.20	
  6.796	166.229	 41.79762	  8.10631	 27.18773	 19.81005	 14.79578	  0.33260	 42.66442	702.57001	 29.20	
  8.491	168.704	 41.22337	  5.60243	 29.14288	 19.29903	 14.22318	 -0.01509	 42.66861	702.53003	 29.20	
  8.502	157.493	 41.18757	  6.07805	 28.41928	 21.64433	 12.09796	  0.02829	 42.66262	702.58002	 29.20	
  8.494	146.194	 41.19163	  7.01711	 27.20137	 23.77687	 10.19352	  0.07266	 42.64082	702.54999	 29.20	
  8.495	135.039	 41.25104	  8.28586	 25.68609	 25.60072	  8.58543	  0.14709	 42.68378	702.54999	 29.20	
  8.487	123.723	 41.27181	  9.89080	 23.77073	 27.11251	  7.24543	  0.13220	 42.67133	702.57001	 29.20	
  8.492	112.575	 41.30006	 11.67654	 21.68641	 28.25351	  6.28804	  0.23832	 42.68210	702.57001	 29.30	
  8.510	101.220	 41.31985	 13.72330	 19.37793	 29.01187	  5.75624	  0.19438	 42.65723	702.56000	 29.30	
  8.500	 90.000	 41.37609	 15.99137	 17.08692	 29.30192	  5.64391	  0.32354	 42.66704	702.59998	 29.30	
  8.510	 78.780	 41.41219	 18.35029	 14.83521	 29.08827	  5.81564	  0.10688	 42.67841	702.59998	 29.30	
  8.492	 67.425	 41.47940	 20.69911	 12.75754	 28.39844	  6.38784	  0.18476	 42.70195	702.53998	 29.30	
  8.487	 56.277	 41.48110	 22.83126	 10.92462	 27.26092	  7.36379	  0.39624	 42.66792	702.50000	 29.30	
  8.495	 44.961	 41.50883	 24.77883	  9.36485	 25.73254	  8.75147	  0.30339	 42.66085	702.53003	 29.30	
  8.494	 33.806	 41.54190	 26.40308	  8.09572	 23.92165	 10.34367	  0.51009	 42.66618	702.48999	 29.40	
  8.502	 22.507	 41.58152	 27.63541	  7.18916	 21.71042	 12.22692	  0.30513	 42.68934	702.46997	 29.40	
  8.491	 11.296	 41.59715	 28.37418	  6.67857	 19.48507	 14.37217	  0.45372	 42.68254	702.47998	 29.40	
  8.500	  0.000	 41.60777	 28.66656	  6.52889	 17.37652	 16.87389	  0.42362	 42.69171	702.51001	 29.40	
  8.491	-11.296	 41.60722	 28.41860	  6.80427	 15.03849	 19.17060	  0.36292	 42.66289	702.47998	 29.40	
  8.502	-22.507	 41.59717	 27.70282	  7.36675	 12.95396	 21.26317	  0.28176	 42.66974	702.46997	 29.40	
  8.494	-33.806	 41.63958	 26.60359	  8.32435	 11.14774	 23.18007	  0.19673	 42.70860	702.46002	 29.50	
  8.495	-44.961	 41.60113	 25.05268	  9.57291	  9.53792	 25.01386	  0.12103	 42.67974	702.56000	 29.50	
  8.487	-56.277	 41.58810	 23.13086	 11.16199	  8.19902	 26.56741	  0.05236	 42.68180	702.41998	 29.50	
  8.492	-67.425	 41.55351	 20.98325	 13.00511	  7.24629	 27.76731	  0.01194	 42.68377	702.54999	 29.50	
  8.510	-78.780	 41.52195	 18.67100	 15.09751	  6.64795	 28.46899	 -0.04011	 42.67827	702.52002	 29.50	
  8.500	-90.000	 41.48815	 16.32485	 17.30924	  6.47820	 28.67709	 -0.09345	 42.68209	702.41998	 29.50	
  8.510	-101.220	 41.44356	 14.05279	 19.61262	  6.63798	 28.43032	 -0.11226	 42.69599	702.42999	 29.50	
  8.492	-112.575	 41.40254	 11.98884	 21.91902	  7.25621	 27.59306	 -0.16612	 42.68433	702.46002	 29.50	
  8.487	-123.723	 41.36737	 10.18775	 23.99933	  8.18313	 26.36164	 -0.27332	 42.67645	702.42999	 29.50	
  8.495	-135.039	 41.34050	  8.55831	 25.87809	  9.45388	 24.80747	 -0.08892	 42.68945	702.46997	 29.60	
  8.494	-146.194	 41.30986	  7.25988	 27.36212	 11.02450	 22.95044	 -0.21662	 42.68780	702.53003	 29.60	
  8.502	-157.493	 41.26815	  6.27673	 28.51335	 12.84977	 20.86605	 -0.20800	 42.68053	702.48999	 29.60	
  8.491	-168.704	 41.25436	  5.68613	 29.19055	 15.00125	 18.66051	 -0.18534	 42.66751	702.41998	 29.60	
  8.500	180.000	 41.23655	  5.40855	 29.42739	 17.27811	 16.37800	 -0.03652	 42.67880	702.53003	 29.60	
 10.200	180.000	 40.51428	  2.84506	 31.19605	 16.63634	 15.78454	 -0.60400	 42.68029	702.47998	 29.60	
 10.191	-170.497	 40.53020	  3.07327	 31.00270	 14.33997	 18.00309	 -0.66095	 42.68572	702.53998	 29.60	
 10.210	-161.034	 40.55419	  3.59523	 30.43887	 12.15863	 20.33606	 -0.64481	 42.70962	702.50000	 29.60	
 10.194	-151.526	 40.58384	  4.41410	 29.46727	 10.23593	 22.46943	 -0.64915	 42.69635	702.54999	 29.60	
 10.190	-142.105	 40.59569	  5.52231	 28.14983	  8.49591	 24.54234	 -0.66055	 42.68799	702.53998	 29.70	
 10.215	-132.646	 40.60448	  6.87576	 26.49542	  6.95845	 26.37103	 -0.67531	 42.66202	702.57001	 29.70	
 10.203	-123.092	 40.63864	  8.50086	 24.57125	  5.75192	 27.96943	 -0.66134	 42.65397	702.47998	 29.70	
 10.192	-113.678	 40.69785	 10.34595	 22.48646	  4.88374	 29.16264	 -0.67120	 42.65871	702.54999	 29.70	
 10.208	-104.249	 40.76902	 12.38934	 20.22264	  4.25816	 30.03719	 -0.67777	 42.70666	702.47998	 29.70	
 10.210	-94.801	 40.80469	 14.52886	 17.87345	  3.93645	 30.46466	 -0.66481	 42.70113	702.46997	 29.70	
 10.210	-85.199	 40.83934	 16.88251	 15.54253	  3.90738	 30.48756	 -0.64218	 42.68143	702.54999	 29.70	
 10.208	-75.751	 40.87457	 19.25986	 13.34466	  4.19584	 30.11133	 -0.49647	 42.68299	702.57001	 29.70	
 10.192	-66.322	 40.91450	 21.57914	 11.32806	  4.83585	 29.30791	 -0.59933	 42.68276	702.44000	 29.80	
 10.203	-56.908	 40.92437	 23.76733	  9.50301	  5.71526	 28.13632	 -0.60424	 42.68587	702.50000	 29.80	
 10.215	-47.354	 40.94108	 25.75265	  7.88130	  6.99743	 26.52060	 -0.44305	 42.66765	702.47998	 29.80	
 10.190	-37.895	 40.95982	 27.41459	  6.57845	  8.56350	 24.71007	 -0.46589	 42.67069	702.52002	 29.80	
 10.194	-28.474	 40.98782	 28.74378	  5.55666	 10.33840	 22.66324	 -0.38805	 42.69479	702.50000	 29.80	
 10.210	-18.966	 40.96978	 29.70525	  4.75022	 12.25789	 20.72081	 -0.34682	 42.67844	702.58002	 29.80	
 10.191	 -9.503	 40.98206	 30.28420	  4.27874	 14.44440	 18.49175	 -0.24691	 42.68636	702.62000	 29.80	
 10.200	  0.000	 40.96419	 30.49935	  4.00155	 16.78054	 15.90638	 -0.22470	 42.68399	702.59003	 29.80	
 10.191	  9.503	 40.94942	 30.23068	  4.11853	 19.06695	 13.66825	 -0.14437	 42.67958	702.56000	 29.80	
 10.210	 18.966	 40.92343	 29.61042	  4.52633	 21.15939	 11.46566	 -0.08519	 42.69034	702.52002	 29.80	
 10.194	 28.474	 40.89159	 28.52865	  5.24976	 23.46425	  9.45537	 -0.11486	 42.68880	702.58002	 29.80	
 10.190	 37.895	 40.87234	 27.14889	  6.33391	 25.50034	  7.73501	 -0.18265	 42.68995	702.65002	 29.80	
 10.215	 47.354	 40.81499	 25.41504	  7.61781	 27.30284	  6.08691	 -0.25796	 42.67478	702.53003	 29.80	
 10.203	 56.908	 40.78799	 23.42173	  9.20551	 28.78991	  4.90311	 -0.27730	 42.68196	702.57001	 29.80	
 10.192	 66.322	 40.75446	 21.24135	 11.00660	 29.96165	  4.06933	 -0.28545	 42.68396	702.52002	 29.80	
 10.208	 75.751	 40.69865	 18.87427	 12.98603	 30.78591	  3.45485	 -0.36118	 42.66447	702.57001	 29.90	
 10.210	 85.199	 40.69007	 16.50463	 15.18496	 31.15521	  3.14360	 -0.41517	 42.70047	702.50000	 29.90	
 10.210	 94.801	 40.62526	 14.09812	 17.48980	 31.08644	  3.12127	 -0.28383	 42.68457	702.40997	 29.90	
 10.208	104.249	 40.59739	 11.98792	 19.86267	 30.64328	  3.42407	 -0.43394	 42.70651	702.59998	 29.90	
 10.192	113.678	 40.56902	  9.99074	 22.15539	 29.82312	  4.03773	 -0.19592	 42.68703	702.53003	 29.90	
 10.203	123.092	 40.53872	  8.16738	 24.29128	 28.65831	  4.84211	 -0.53278	 42.68311	702.50000	 29.90	
 10.215	132.646	 40.50977	  6.57306	 26.26711	 27.11258	  6.06001	 -0.40138	 42.68440	702.51001	 29.90	
 10.190	142.105	 40.48415	  5.24642	 27.94707	 25.32672	  7.51748	 -0.58859	 42.66646	702.57001	 29.90	
 10.194	151.526	 40.47427	  4.19574	 29.29087	 23.33291	  9.30978	 -0.58503	 42.68499	702.41998	 30.00	
 10.210	161.034	 40.45693	  3.46804	 30.30517	 21.07615	 11.34338	 -0.64856	 42.66253	702.38000	 30.00	
 10.191	170.497	 40.50328	  3.05991	 30.93475	 18.85773	 13.57920	 -0.61547	 42.69110	702.46002	 30.00	
 11.899	171.783	 39.60588	  0.48955	 32.81809	 18.17196	 12.78269	 -1.04205	 42.66652	702.45001	 30.00	
 11.890	163.610	 39.59759	  0.89188	 32.19501	 20.28493	 10.53621	 -1.02751	 42.67485	702.42999	 30.00	
 11.889	155.445	 39.57997	  1.49494	 31.18399	 22.62669	  8.46744	 -0.99776	 42.66079	702.52002	 30.00	
 11.909	147.299	 39.60668	  2.33545	 30.01121	 24.77681	  6.79940	 -0.98304	 42.68314	702.45001	 30.00	
 11.902	139.148	 39.59610	  3.43758	 28.50202	 26.75887	  5.16303	 -0.98201	 42.65345	702.52002	 30.00	
 11.894	130.867	 39.61937	  4.79673	 26.72386	 28.52131	  3.71216	 -0.95902	 42.65820	702.44000	 30.00	
 11.897	122.732	 39.67145	  6.39142	 24.74943	 29.98855	  2.58489	 -0.91162	 42.69903	702.46997	 30.00	
 11.903	114.597	 39.67359	  8.16963	 22.58245	 31.12474	  1.71906	 -0.85475	 42.64840	702.40997	 30.00	
 11.893	106.346	 39.72097	 10.18514	 20.26429	 32.09799	  1.12803	 -0.82683	 42.66816	702.52002	 30.00	
 11.892	 98.155	 39.75737	 12.34976	 17.85518	 32.69699	  0.78449	 -0.84441	 42.66821	702.38000	 30.00	
 11.900	 90.000	 39.79389	 14.52963	 15.53399	 33.00053	  0.65268	 -0.85325	 42.66983	702.65002	 30.10	
 11.892	 81.845	 39.85095	 16.91137	 13.35542	 32.82767	  0.81593	 -0.82470	 42.68058	702.57001	 30.10	
 11.893	 73.654	 39.87296	 19.32117	 11.22817	 32.22511	  1.19701	 -0.75470	 42.67206	702.48999	 30.10	
 11.903	 65.403	 39.89486	 21.65802	  9.22606	 31.27837	  1.73017	 -0.72148	 42.65528	702.48999	 30.10	
 11.897	 57.268	 39.96348	 23.85909	  7.49799	 30.17528	  2.62723	 -0.69564	 42.68891	702.53998	 30.10	
 11.894	 49.133	 39.99107	 25.88776	  5.88191	 28.68541	  3.84513	 -0.69573	 42.67191	702.54999	 30.10	
 11.902	 40.852	 40.03144	 27.73502	  4.50539	 26.95068	  5.25552	 -0.61670	 42.69345	702.50000	 30.10	
 11.909	 32.701	 40.06548	 29.25615	  3.38933	 24.95132	  6.87177	 -0.51705	 42.67741	702.56000	 30.10	
 11.889	 24.555	 40.10163	 30.49977	  2.56032	 22.77765	  8.66032	 -0.44141	 42.69391	702.60999	 30.10	
 11.890	 16.390	 40.11570	 31.45382	  1.97392	 20.37443	 10.73783	 -0.46846	 42.66519	702.60999	 30.10	
 11.899	  8.217	 40.11673	 32.03356	  1.57194	 18.40225	 12.94574	 -0.55881	 42.65357	702.57001	 30.10	
 11.900	  0.000	 40.10482	 32.26720	  1.45855	 15.99440	 15.17142	 -0.62541	 42.64655	702.53998	 30.10	
 11.899	 -8.217	 40.15295	 32.13395	  1.64622	 13.68802	 17.46218	 -0.67671	 42.67664	702.52002	 30.10	
 11.890	-16.390	 40.15760	 31.60768	  2.13375	 11.49030	 20.02260	 -0.71521	 42.66937	702.56000	 30.20	
 11.889	-24.555	 40.16607	 30.70259	  2.78589	  9.48850	 22.05186	 -0.74593	 42.67869	702.64001	 30.20	
 11.909	-32.701	 40.14624	 29.50305	  3.67982	  7.59874	 24.14059	 -0.80884	 42.65754	702.58002	 30.20	
 11.902	-40.852	 40.14650	 28.10913	  4.76682	  5.88487	 26.11319	 -0.89576	 42.68633	702.57001	 30.20	
 11.894	-49.133	 40.13824	 26.33009	  6.18947	  4.39825	 27.92254	 -0.96085	 42.67540	702.56000	 30.20	
 11.897	-57.268	 40.12752	 24.32518	  7.82026	  3.30851	 29.48053	 -0.95753	 42.66537	702.59003	 30.20	
 11.903	-65.403	 40.09174	 22.14363	  9.57218	  2.41450	 30.69428	 -0.92676	 42.66323	702.58002	 30.20	
 11.893	-73.654	 40.06497	 19.80439	 11.56851	  1.80000	 31.53566	 -0.91754	 42.67369	702.46997	 30.20	
 11.892	-81.845	 40.02328	 17.27169	 13.71605	  1.42639	 32.09779	 -0.93603	 42.67691	702.46997	 30.20	
 11.900	-90.000	 39.96160	 14.93735	 15.91165	  1.29411	 32.28613	 -0.95577	 42.66046	702.54999	 30.20	
 11.892	-98.155	 39.95375	 12.79710	 18.26981	  1.50294	 32.08007	 -0.94009	 42.67431	702.58002	 30.20	
 11.893	-106.346	 39.88230	 10.62462	 20.63644	  1.81290	 31.50709	 -0.95198	 42.65873	702.52002	 30.20	
 11.903	-114.597	 39.83809	  8.63471	 22.91283	  2.39090	 30.61714	 -0.93532	 42.66230	702.51001	 30.20	
 11.897	-122.732	 39.78738	  6.80153	 25.05027	  3.27488	 29.39909	 -0.92743	 42.66055	702.51001	 30.20	
 11.894	-130.867	 39.73399	  5.15748	 26.98142	  4.43800	 27.86634	 -0.95600	 42.65224	702.59998	 30.20	
 11.902	-139.148	 39.71608	  3.70978	 28.77249	  5.87572	 26.06726	 -0.97703	 42.67790	702.62000	 30.20	
 11.909	-147.299	 39.68017	  2.53142	 30.20488	  7.55451	 24.06776	 -0.97255	 42.66873	702.59998	 30.30	
 11.889	-155.445	 39.66852	  1.63379	 31.34723	  9.43329	 21.84550	 -0.95259	 42.65261	702.40002	 30.30	
 11.890	-163.610	 39.65088	  0.96145	 32.20386	 11.41210	 19.64919	 -0.97317	 42.66566	702.52002	 30.30	
 11.899	-171.783	 39.62411	  0.50580	 32.74192	 13.59828	 17.37000	 -1.01774	 42.68509	702.54999	 30.30	
 11.900	180.000	 39.61259	  0.31216	 33.00375	 15.89320	 15.05228	 -1.05869	 42.67175	702.63000	 30.30	
 13.600	180.000	 38.55665	 -2.19877	 34.54991	 15.06375	 14.22367	 -1.36098	 42.66116	702.53003	 30.30	
 13.608	-172.853	 38.57948	 -2.02042	 34.44828	 12.80170	 16.56426	 -1.30891	 42.66590	702.62000	 30.30	
 13.611	-165.583	 38.60205	 -1.58293	 33.92405	 10.57765	 18.90485	 -1.23452	 42.66372	702.59003	 30.30	
 13.601	-158.353	 38.61932	 -1.00823	 33.11005	  8.54500	 21.03096	 -1.18545	 42.63092	702.60999	 30.30	
 13.609	-151.210	 38.64057	 -0.28007	 32.08392	  6.61438	 23.32615	 -1.15860	 42.65884	702.58002	 30.30	
 13.611	-143.999	 38.67795	  0.77704	 30.72046	  4.81711	 25.52004	 -1.15797	 42.66088	702.63000	 30.30	
 13.601	-136.825	 38.69387	  1.99403	 29.14069	  3.25592	 27.40928	 -1.14182	 42.64695	702.53003	 30.30	
 13.596	-129.640	 38.77602	  3.45167	 27.37415	  2.02804	 29.18742	 -1.10775	 42.67047	702.53003	 30.30	
 13.611	-122.431	 38.79592	  5.06004	 25.38245	  0.92185	 30.74202	 -1.04605	 42.67176	702.53998	 30.30	
 13.604	-115.211	 38.81774	  6.87050	 23.19126	  0.04480	 31.96187	 -1.02935	 42.65287	702.62000	 30.40	
 13.595	-108.042	 38.88616	  8.83480	 20.94726	 -0.50845	 32.91287	 -1.05170	 42.67070	702.51001	 30.40	
 13.607	-100.793	 38.91362	 10.95781	 18.59903	 -0.86169	 33.57683	 -1.06268	 42.66676	702.62000	 30.40	
 13.601	-93.617	 38.95463	 13.19241	 16.22475	 -1.09875	 33.92897	 -1.06025	 42.67313	702.63000	 30.40	
 13.601	-86.383	 38.99339	 15.31985	 13.98092	 -1.20362	 34.02771	 -1.07817	 42.68598	702.57001	 30.40	
 13.607	-79.207	 39.02445	 17.71036	 11.81875	 -1.03913	 33.62527	 -1.08173	 42.67078	702.52002	 30.40	
 13.595	-71.958	 39.07981	 20.22873	  9.73403	 -0.58635	 32.96784	 -1.10997	 42.67178	702.53003	 30.40	
 13.604	-64.789	 39.11219	 22.53157	  7.81458	  0.05981	 32.02874	 -1.13138	 42.67213	702.57001	 30.40	
 13.611	-57.569	 39.13238	 24.74279	  6.00661	  0.91771	 30.82218	 -1.18955	 42.67648	702.59003	 30.40	
 13.596	-50.360	 39.16272	 26.78577	  4.40115	  2.03833	 29.22818	 -1.20974	 42.67526	702.56000	 30.40	
 13.601	-43.175	 39.15839	 28.56373	  3.02453	  3.32543	 27.41355	 -1.20654	 42.65794	702.59998	 30.40	
 13.611	-36.001	 39.18801	 30.07761	  1.86412	  4.78709	 25.54501	 -1.15250	 42.66762	702.59998	 30.40	
 13.609	-28.790	 39.20990	 31.48090	  0.89657	  6.58672	 23.42767	 -1.08826	 42.68028	702.53998	 30.40	
 13.601	-21.647	 39.20814	 32.55494	  0.11763	  8.55965	 21.35578	 -1.07446	 42.66532	702.48999	 30.50	
 13.611	-14.417	 39.19326	 33.43259	 -0.48207	 10.61204	 18.93561	 -1.07267	 42.66827	702.46997	 30.50	
 13.608	 -7.147	 39.18996	 33.94913	 -0.87771	 12.86298	 16.60543	 -1.06322	 42.68148	702.42999	 30.50	
 13.600	  0.000	 39.16545	 34.02122	 -1.03841	 15.13991	 14.31765	 -1.01898	 42.66048	702.53998	 30.50	
 13.608	  7.147	 39.14622	 33.75972	 -1.00164	 17.46170	 12.08489	 -0.97391	 42.66125	702.57001	 30.50	
 13.611	 14.417	 39.12350	 33.22272	 -0.66950	 19.80351	  9.81583	 -0.89726	 42.65913	702.63000	 30.50	
 13.601	 21.647	 39.10116	 32.30584	 -0.12982	 21.90852	  7.75988	 -0.82451	 42.64654	702.53003	 30.50	
 13.609	 28.790	 39.09678	 31.17229	  0.57659	 24.20313	  5.94446	 -0.86491	 42.67191	702.53003	 30.50	
 13.611	 36.001	 39.05072	 29.77221	  1.50415	 26.34726	  4.26314	 -0.98635	 42.67126	702.59003	 30.50	
 13.601	 43.175	 39.00974	 28.10202	  2.67322	 28.28760	  2.74627	 -1.09256	 42.67112	702.48999	 30.50	
 13.596	 50.360	 38.96981	 26.27339	  4.08621	 29.93516	  1.49843	 -1.11982	 42.65825	702.41998	 30.50	
 13.611	 57.569	 38.92605	 24.17893	  5.66990	 31.35402	  0.38281	 -1.13151	 42.65385	702.42999	 30.50	
 13.604	 64.789	 38.90668	 21.92463	  7.46474	 32.61859	 -0.54678	 -1.16102	 42.66349	702.59998	 30.50	
 13.595	 71.958	 38.88533	 19.66402	  9.40447	 33.58770	 -1.07825	 -1.17856	 42.67318	702.50000	 30.50	
 13.607	 79.207	 38.82809	 17.17341	 11.43504	 34.25062	 -1.48221	 -1.23885	 42.67519	702.54999	 30.50	
 13.601	 86.383	 38.76286	 14.76199	 13.56494	 34.53440	 -1.75868	 -1.28640	 42.65314	702.58002	 30.50	
 13.601	 93.617	 38.71231	 12.57798	 15.78479	 34.48371	 -1.78383	 -1.30017	 42.64071	702.48999	 30.50	
 13.607	100.793	 38.69819	 10.39226	 18.11905	 34.15784	 -1.65515	 -1.26859	 42.67387	702.47998	 30.50	
 13.595	108.042	 38.67073	  8.31106	 20.52260	 33.46090	 -1.25257	 -1.23358	 42.66192	702.59003	 30.50	
 13.604	115.211	 38.63211	  6.37573	 22.84385	 32.45117	 -0.56912	 -1.24719	 42.65428	702.47998	 30.50	
 13.611	122.431	 38.59515	  4.56243	 25.05171	 31.14613	  0.36607	 -1.31231	 42.65512	702.50000	 30.50	
 13.596	129.640	 38.57419	  2.98934	 27.07113	 29.73636	  1.47166	 -1.37037	 42.66667	702.46997	 30.50	
 13.601	136.825	 38.54889	  1.62321	 28.89688	 28.03675	  2.73468	 -1.41292	 42.66031	702.40002	 30.50	
 13.611	143.999	 38.53899	  0.43985	 30.48322	 26.13732	  4.22545	 -1.39639	 42.67042	702.46002	 30.50	
 13.609	151.210	 38.52408	 -0.50832	 31.88581	 23.99276	  5.98605	 -1.37479	 42.65789	702.47998	 30.60	
 13.601	158.353	 38.52626	 -1.22917	 32.98279	 21.77587	  7.75394	 -1.36209	 42.65849	702.47998	 30.60	
 13.611	165.583	 38.50839	 -1.75213	 33.81077	 19.49137	  9.68526	 -1.36899	 42.64413	702.51001	 30.60	
 13.608	172.853	 38.54000	 -2.09452	 34.39829	 17.32394	 11.95888	 -1.37502	 42.65994	702.46002	 30.60	
 15.298	173.587	 37.35636	 -4.51918	 35.81226	 16.39972	 11.01241	 -1.59490	 42.63570	702.45001	 30.60	
 15.291	167.167	 37.36264	 -4.19268	 35.32367	 18.67248	  8.96956	 -1.62551	 42.66090	702.47998	 30.60	
 15.307	160.676	 37.32018	 -3.78548	 34.60670	 20.65816	  6.98127	 -1.65443	 42.64634	702.46997	 30.60	
 15.300	154.261	 37.33070	 -3.22793	 33.59038	 23.04839	  5.15837	 -1.69337	 42.64651	702.46997	 30.60	
 15.288	147.854	 37.33139	 -2.42085	 32.31049	 25.26978	  3.41312	 -1.71817	 42.63887	702.50000	 30.60	
 15.293	141.428	 37.36723	 -1.37428	 30.76318	 27.33286	  1.82061	 -1.77630	 42.66342	702.47998	 30.60	
 15.299	134.985	 37.38664	 -0.15077	 29.09929	 29.14916	  0.42820	 -1.79641	 42.64532	702.40997	 30.60	
 15.305	128.583	 37.39482	  1.19937	 27.24616	 30.79085	 -0.80493	 -1.77674	 42.64232	702.41998	 30.60	
 15.309	122.142	 37.37958	  2.74825	 25.17278	 32.30289	 -1.90507	 -1.71421	 42.62273	702.41998	 30.60	
 15.304	115.711	 37.43694	  4.52956	 22.94237	 33.64733	 -2.86634	 -1.67704	 42.64350	702.60999	 30.60	
 15.297	109.291	 37.45197	  6.40601	 20.58964	 34.64389	 -3.57092	 -1.66470	 42.62923	702.57001	 30.60	
 15.293	102.897	 37.49000	  8.42899	 18.23476	 35.42698	 -4.01815	 -1.68811	 42.63822	702.50000	 30.70	
 15.293	 96.458	 37.53038	 10.57731	 15.89601	 35.90394	 -4.28148	 -1.71364	 42.65004	702.54999	 30.70	
 15.300	 90.000	 37.57550	 12.81785	 13.70537	 36.08716	 -4.18778	 -1.75215	 42.63948	702.56000	 30.70	
 15.293	 83.542	 37.61959	 15.07317	 11.54992	 35.98139	 -4.01478	 -1.73395	 42.63345	702.57001	 30.70	
 15.293	 77.103	 37.64603	 17.45057	  9.43278	 35.47650	 -3.68109	 -1.68578	 42.60612	702.59998	 30.70	
 15.297	 70.709	 37.69196	 19.83584	  7.51170	 34.74595	 -3.28312	 -1.65889	 42.62369	702.52002	 30.70	
 15.304	 64.289	 37.76238	 22.12320	  5.66060	 33.79171	 -2.69065	 -1.60477	 42.64102	702.51001	 30.70	
 15.309	 57.858	 37.79471	 24.35811	  3.87374	 32.51014	 -1.81831	 -1.57184	 42.64051	702.53003	 30.70	
 15.305	 51.417	 37.82537	 26.46135	  2.26424	 31.01995	 -0.84280	 -1.54604	 42.63649	702.56000	 30.70	
 15.299	 45.015	 37.87226	 28.36839	  0.89122	 29.38396	  0.37079	 -1.53164	 42.64597	702.56000	 30.70	
 15.293	 38.572	 37.88906	 30.05816	 -0.34488	 27.56983	  1.71372	 -1.44310	 42.63255	702.60999	 30.70	
 15.288	 32.146	 37.93682	 31.63299	 -1.35198	 25.48441	  3.31350	 -1.31889	 42.63994	702.45001	 30.70	
 15.300	 25.739	 37.95833	 32.96306	 -2.15514	 23.22701	  5.14762	 -1.23823	 42.63169	702.62000	 30.70	
 15.307	 19.324	 37.95992	 34.00306	 -2.73423	 20.87060	  7.01373	 -1.24778	 42.60460	702.57001	 30.70	
 15.291	 12.833	 37.97965	 34.77258	 -3.16878	 18.83846	  8.93515	 -1.27804	 42.58911	702.65002	 30.70	
 15.298	  6.413	 38.00865	 35.28411	 -3.46232	 16.50270	 11.15025	 -1.33552	 42.62146	702.56000	 30.70	
 15.300	  0.000	 38.01486	 35.45223	 -3.48047	 14.18849	 13.38774	 -1.38808	 42.63038	702.56000	 30.70	
 15.298	 -6.413	 38.01978	 35.36272	 -3.36134	 11.88352	 15.66910	 -1.38932	 42.61785	702.53998	 30.70	
 15.291	-12.833	 38.03775	 34.94188	 -3.01451	  9.64165	 17.97715	 -1.37620	 42.62111	702.65002	 30.70	
 15.307	-19.324	 38.05277	 34.24849	 -2.45540	  7.52269	 20.47403	 -1.34031	 42.62818	702.56000	 30.70	
 15.300	-25.739	 38.04078	 33.22921	 -1.73852	  5.55265	 22.58194	 -1.31021	 42.59766	702.56000	 30.70	
 15.288	-32.146	 38.04559	 31.94836	 -0.93015	  3.83947	 24.70573	 -1.32940	 42.60940	702.44000	 30.70	
 15.293	-38.572	 38.03945	 30.47462	  0.04737	  2.27508	 26.78266	 -1.33729	 42.60588	702.42999	 30.80	
 15.299	-45.015	 38.01193	 28.87408	  1.21432	  0.86024	 28.69732	 -1.32187	 42.60709	702.45001	 30.80	
 15.305	-51.417	 37.98449	 27.04281	  2.56740	 -0.37134	 30.40765	 -1.30974	 42.60663	702.31000	 30.80	
 15.309	-57.858	 37.94315	 24.96543	  4.18597	 -1.40672	 31.86749	 -1.25925	 42.60725	702.46997	 30.80	
 15.304	-64.289	 37.91603	 22.73526	  5.93256	 -2.26571	 33.16025	 -1.19557	 42.60283	702.46997	 30.80	
 15.297	-70.709	 37.90617	 20.43751	  7.83908	 -2.88125	 34.18054	 -1.13967	 42.60410	702.40997	 30.80	
 15.293	-77.103	 37.88506	 18.05758	  9.82179	 -3.34354	 34.91658	 -1.10995	 42.61354	702.34003	 30.80	
 15.293	-83.542	 37.83095	 15.70840	 11.95212	 -3.55281	 35.43100	 -1.08357	 42.59533	702.40997	 30.80	
 15.300	-90.000	 37.78957	 13.42178	 14.16806	 -3.55251	 35.48791	 -1.06887	 42.59293	702.46997	 30.80	
 15.293	-96.458	 37.75590	 11.16945	 16.46057	 -3.39376	 35.30914	 -1.07225	 42.59278	702.50000	 30.80	
 15.293	-102.897	 37.75182	  9.03916	 18.80649	 -3.13584	 34.84280	 -1.07027	 42.60415	702.53003	 30.80	
 15.297	-109.291	 37.71304	  7.02148	 21.11812	 -2.72828	 34.13115	 -1.04845	 42.62067	702.51001	 30.80	
 15.304	-115.711	 37.62607	  5.08094	 23.33926	 -2.17218	 33.15381	 -1.03673	 42.59702	702.46997	 30.80	
 15.309	-122.142	 37.59403	  3.27440	 25.53065	 -1.38355	 31.90993	 -1.06244	 42.61250	702.42999	 30.80	
 15.305	-128.583	 37.53527	  1.66698	 27.51806	 -0.38464	 30.36535	 -1.10668	 42.59826	702.46002	 30.80	
 15.299	-134.985	 37.53653	  0.25173	 29.33772	  0.84337	 28.57706	 -1.14636	 42.61837	702.40997	 30.80	
 15.293	-141.428	 37.49331	 -0.97935	 31.01670	  2.25422	 26.68527	 -1.21942	 42.61017	702.33002	 30.80	
 15.288	-147.854	 37.47068	 -1.97902	 32.48930	  3.81156	 24.62111	 -1.25371	 42.61508	702.38000	 30.80	
 15.300	-154.261	 37.44908	 -2.75724	 33.73074	  5.60098	 22.30503	 -1.29191	 42.61558	702.40997	 30.80	
 15.307	-160.676	 37.45588	 -3.43992	 34.71404	  7.60286	 20.20068	 -1.33691	 42.63224	702.42999	 30.80	
 15.291	-167.167	 37.41108	 -4.09793	 35.39638	  9.68621	 17.96931	 -1.41279	 42.63564	702.41998	 30.80	
 15.298	-173.587	 37.37140	 -4.49013	 35.85928	 11.87231	 15.62007	 -1.50462	 42.61954	702.39001	 30.90	
 15.300	180.000	 37.35717	 -4.60712	 35.94833	 14.13326	 13.27848	 -1.56854	 42.62014	702.46997	 30.80	
 17.000	180.000	 36.03657	 -6.94405	 37.24537	 13.08348	 12.19127	 -1.66410	 42.60822	702.41998	 30.90	
 16.990	-174.179	 36.05393	 -6.86815	 37.15051	 10.84674	 14.53336	 -1.56054	 42.60878	702.46002	 30.90	
 17.009	-168.383	 36.07952	 -6.53416	 36.79545	  8.65398	 16.89252	 -1.47422	 42.62308	702.39001	 30.90	
 17.000	-162.596	 36.12909	 -5.88126	 36.16615	  6.58756	 19.15009	 -1.39618	 42.60347	702.52002	 30.90	
 16.990	-156.759	 36.17134	 -5.15658	 35.26779	  4.58608	 21.42303	 -1.32478	 42.61282	702.52002	 30.90	
 16.995	-150.919	 36.17897	 -4.44978	 34.12476	  2.77560	 23.58451	 -1.24940	 42.61456	702.56000	 30.90	
 16.988	-145.161	 36.18805	 -3.73439	 32.78699	  1.19712	 25.75885	 -1.15529	 42.61224	702.47998	 30.90	
 17.014	-139.343	 36.17672	 -2.78156	 31.22727	 -0.28407	 27.76408	 -1.10042	 42.60978	702.51001	 30.90	
 17.007	-133.546	 36.20364	 -1.54639	 29.45612	 -1.57638	 29.65080	 -1.04619	 42.60077	702.48999	 30.90	
 17.001	-127.699	 36.26817	 -0.13146	 27.59273	 -2.68736	 31.43068	 -1.01960	 42.61705	702.46997	 30.90	
 17.006	-121.937	 36.31771	  1.42967	 25.60093	 -3.60987	 32.81660	 -0.98663	 42.62160	702.53003	 30.90	
 17.002	-116.134	 36.34522	  3.22980	 23.44998	 -4.33555	 34.14412	 -0.93918	 42.59933	702.56000	 30.90	
 17.001	-110.310	 36.39163	  5.10715	 21.15446	 -4.95856	 35.24377	 -0.92128	 42.60280	702.59998	 30.90	
 16.988	-104.517	 36.43583	  7.09237	 18.81943	 -5.41643	 36.02364	 -0.95471	 42.59334	702.40002	 31.00	
 17.008	-98.662	 36.46307	  9.15388	 16.52133	 -5.78346	 36.59222	 -0.97064	 42.61276	702.42999	 31.00	
 16.996	-92.909	 36.48483	 11.32947	 14.26245	 -5.96994	 36.84845	 -0.95780	 42.62079	702.42999	 31.00	
 16.996	-87.091	 36.51408	 13.51725	 12.09467	 -6.03763	 36.92654	 -0.98047	 42.61217	702.35999	 31.00	
 17.012	-81.253	 36.52892	 15.79322	  9.90917	 -6.03028	 36.65730	 -1.00167	 42.61292	702.41998	 30.90	
 16.988	-75.483	 36.57695	 18.09029	  7.85920	 -5.68169	 36.09019	 -1.05443	 42.59495	702.44000	 31.00	
 17.001	-69.690	 36.60861	 20.49790	  5.90239	 -5.20406	 35.28103	 -1.12818	 42.58823	702.37000	 31.00	
 17.002	-63.866	 36.65073	 22.81978	  4.04780	 -4.55513	 34.24038	 -1.15653	 42.58959	702.31000	 31.00	
 17.006	-58.063	 36.66640	 25.05694	  2.31926	 -3.72856	 32.98640	 -1.19279	 42.59656	702.39001	 31.00	
 17.001	-52.301	 36.69978	 27.14232	  0.77616	 -2.75828	 31.54640	 -1.25159	 42.60923	702.34998	 31.00	
 17.007	-46.454	 36.72212	 29.03806	 -0.64329	 -1.65156	 29.87306	 -1.30335	 42.62812	702.34998	 31.00	
 17.014	-40.657	 36.75466	 30.74043	 -1.83411	 -0.31862	 27.93385	 -1.32417	 42.61111	702.32001	 31.00	
 16.988	-34.839	 36.80378	 32.32187	 -2.75111	  1.21631	 25.93512	 -1.38433	 42.62743	702.42999	 31.00	
 16.995	-29.081	 36.79720	 33.66457	 -3.53815	  2.78462	 23.84015	 -1.41512	 42.59932	702.39001	 31.00	
 16.990	-23.241	 36.83985	 34.84154	 -4.22952	  4.57954	 21.67835	 -1.46603	 42.63715	702.37000	 31.00	
 17.000	-17.404	 36.81147	 35.72415	 -4.92703	  6.48818	 19.26239	 -1.54616	 42.60523	702.39001	 31.00	
 17.009	-11.617	 36.79594	 36.36478	 -5.41628	  8.56897	 17.09962	 -1.60619	 42.61468	702.40997	 31.00	
 16.990	 -5.821	 36.80975	 36.73182	 -5.66839	 10.85807	 14.73181	 -1.64625	 42.61962	702.46002	 31.00	
 17.000	  0.000	 36.77180	 36.84626	 -5.84295	 13.15971	 12.40349	 -1.68273	 42.60806	702.37000	 31.00	
 16.990	  5.821	 36.79060	 36.69445	 -5.84507	 15.47700	 10.13847	 -1.67030	 42.62656	702.37000	 31.00	
 17.009	 11.617	 36.75548	 36.26243	 -5.65642	 17.80338	  8.08787	 -1.64972	 42.61954	702.37000	 31.00	
 17.000	 17.404	 36.73996	 35.55318	 -5.18968	 20.07663	  6.14473	 -1.64129	 42.61629	702.25000	 31.00	
 16.990	 23.241	 36.71372	 34.57888	 -4.71008	 22.04606	  4.26927	 -1.64496	 42.61163	702.28998	 31.00	
 16.995	 29.081	 36.64630	 33.37325	 -4.11670	 24.48225	  2.39038	 -1.67727	 42.59722	702.28003	 31.00	
 16.988	 34.839	 36.62566	 31.94197	 -3.30525	 26.59853	  0.69958	 -1.77857	 42.61914	702.35999	 31.00	
 17.014	 40.657	 36.56937	 30.31091	 -2.21851	 28.57761	 -0.80492	 -1.91830	 42.60747	702.35999	 31.00	
 17.007	 46.454	 36.55503	 28.46636	 -0.99053	 30.41603	 -2.09918	 -1.96265	 42.61807	702.38000	 31.00	
 17.001	 52.301	 36.52140	 26.56807	  0.41640	 32.07542	 -3.21470	 -1.97461	 42.63408	702.33002	 31.00	
 17.006	 58.063	 36.46454	 24.47753	  1.97492	 33.52488	 -4.08924	 -2.00331	 42.60322	702.47998	 31.00	
 17.002	 63.866	 36.46411	 22.27147	  3.73409	 34.81868	 -4.74686	 -2.06961	 42.60442	702.46002	 31.00	
 17.001	 69.690	 36.43312	 19.93269	  5.55298	 35.78732	 -5.36312	 -2.11517	 42.61068	702.39001	 31.00	
 16.988	 75.483	 36.41181	 17.49980	  7.47532	 36.54057	 -5.73371	 -2.13150	 42.62069	702.40997	 31.00	
 17.012	 81.253	 36.33324	 15.20008	  9.48398	 37.06585	 -6.15468	 -2.17065	 42.61458	702.51001	 31.00	
 16.996	 87.091	 36.27612	 13.00503	 11.58342	 37.29369	 -6.45656	 -2.18451	 42.61116	702.41998	 31.10	
 16.996	 92.909	 36.24560	 10.77627	 13.72584	 37.27575	 -6.57048	 -2.17913	 42.61039	702.35999	 31.10	
 17.008	 98.662	 36.16378	  8.58224	 15.87254	 37.00222	 -6.70953	 -2.13044	 42.60766	702.32001	 31.10	
 16.988	104.517	 36.16856	  6.50870	 18.23043	 36.44510	 -6.31294	 -2.08459	 42.62243	702.37000	 31.10	
 17.001	110.310	 36.11921	  4.50729	 20.58106	 35.65540	 -5.80110	 -2.08789	 42.60788	702.40997	 31.10	
 17.002	116.134	 36.09286	  2.62995	 22.93741	 34.71869	 -5.09400	 -2.07748	 42.61515	702.40997	 31.10	
 17.006	121.937	 36.05328	  0.91359	 25.17404	 33.35281	 -4.24542	 -2.09078	 42.61827	702.50000	 31.10	
 17.001	127.699	 36.03902	 -0.58456	 27.24684	 31.83277	 -3.14851	 -2.14334	 42.61352	702.29999	 31.10	
 17.007	133.546	 36.01303	 -1.95169	 29.14634	 30.19293	 -1.89511	 -2.14448	 42.58107	702.23999	 31.10	
 17.014	139.343	 35.97986	 -3.21336	 30.89899	 28.42752	 -0.54795	 -2.12007	 42.58742	702.33002	 31.10	
 16.988	145.161	 35.98338	 -4.21519	 32.49782	 26.38847	  0.88779	 -2.05419	 42.60094	702.25000	 31.10	
 16.995	150.919	 35.98082	 -5.08205	 33.90873	 24.26601	  2.44943	 -1.99468	 42.60891	702.35999	 31.10	
 16.990	156.759	 36.00283	 -5.77509	 35.10961	 21.96094	  4.23548	 -1.92601	 42.61981	702.34998	 31.10	
 17.000	162.596	 35.98534	 -6.25148	 36.03487	 19.82072	  6.11725	 -1.88095	 42.60749	702.40002	 31.10	
 17.009	168.383	 36.01476	 -6.59019	 36.69119	 17.67896	  8.13531	 -1.80630	 42.61625	702.39001	 31.10	
 16.990	174.179	 36.03386	 -6.76133	 37.07438	 15.36015	 10.17838	 -1.72848	 42.61151	702.38000	 31.10	
 18.709	174.675	 34.58376	 -8.96936	 38.31158	 14.24986	  9.16155	 -1.74673	 42.61804	702.38000	 31.10	
 18.703	169.441	 34.55000	 -8.86024	 37.95354	 16.51917	  7.18281	 -1.84457	 42.61196	702.37000	 31.10	
 18.691	164.085	 34.51212	 -8.69404	 37.33057	 18.76478	  5.13606	 -1.93957	 42.59628	702.38000	 31.10	
 18.706	158.818	 34.51632	 -8.24299	 36.49623	 20.82764	  3.24542	 -2.02826	 42.60353	702.38000	 31.10	
 18.695	153.537	 34.52228	 -7.67202	 35.40406	 23.07913	  1.51452	 -2.13057	 42.60767	702.46997	 31.10	
 18.704	148.255	 34.51754	 -6.88540	 34.08963	 25.25134	 -0.11947	 -2.19958	 42.59737	702.46997	 31.10	
 18.698	142.952	 34.55624	 -5.91888	 32.60344	 27.30585	 -1.57750	 -2.25603	 42.60241	702.50000	 31.10	
 18.699	137.625	 34.55635	 -4.85968	 30.92871	 29.26258	 -2.99045	 -2.35082	 42.59215	702.46997	 31.10	
 18.705	132.343	 34.55687	 -3.70366	 29.10825	 31.01292	 -4.31933	 -2.39211	 42.59572	702.40002	 31.20	
 18.713	127.067	 34.55895	 -2.40965	 27.17087	 32.68282	 -5.49515	 -2.37463	 42.58267	702.46002	 31.20	
 18.700	121.794	 34.61966	 -0.92412	 25.10657	 34.18978	 -6.48389	 -2.37439	 42.59769	702.51001	 31.20	
 18.698	116.504	 34.64912	  0.68919	 22.89410	 35.49055	 -7.31321	 -2.37952	 42.60979	702.51001	 31.20	
 18.707	111.165	 34.65345	  2.54167	 20.50505	 36.59618	 -8.09473	 -2.41638	 42.59451	702.46002	 31.20	
 18.690	105.863	 34.70299	  4.53219	 18.15467	 37.44785	 -8.61246	 -2.42085	 42.60249	702.40997	 31.20	
 18.696	100.583	 34.71110	  6.54815	 15.82695	 38.02886	 -9.05650	 -2.45662	 42.60206	702.34003	 31.20	
 18.700	 95.309	 34.76524	  8.70566	 13.60710	 38.39507	 -9.06545	 -2.51907	 42.59696	702.34003	 31.20	
 18.700	 90.000	 34.80670	 10.88505	 11.49452	 38.51257	 -8.90296	 -2.55771	 42.58507	702.38000	 31.20	
 18.700	 84.691	 34.87172	 13.07881	  9.44747	 38.40626	 -8.63506	 -2.54781	 42.59078	702.52002	 31.20	
 18.696	 79.417	 34.92730	 15.21677	  7.36088	 38.07148	 -8.26113	 -2.56056	 42.59508	702.51001	 31.20	
 18.690	 74.137	 34.99249	 17.52986	  5.41066	 37.50370	 -7.90197	 -2.52796	 42.60022	702.47998	 31.20	
 18.707	 68.835	 35.01582	 19.84265	  3.53074	 36.69506	 -7.45815	 -2.50215	 42.59209	702.42999	 31.20	
 18.698	 63.496	 35.05036	 22.22811	  1.76603	 35.62975	 -6.94363	 -2.42440	 42.58133	702.40002	 31.20	
 18.700	 58.206	 35.06264	 24.43530	  0.05384	 34.40016	 -6.37487	 -2.33967	 42.59821	702.34998	 31.20	
 18.713	 52.933	 35.06893	 26.46264	 -1.49057	 32.95062	 -5.53945	 -2.32276	 42.59177	702.50000	 31.20	
 18.705	 47.657	 35.10070	 28.50307	 -2.87102	 31.32565	 -4.53481	 -2.29422	 42.58549	702.35999	 31.20	
 18.699	 42.375	 35.15775	 30.40882	 -4.02858	 29.55357	 -3.29504	 -2.26143	 42.59642	702.40002	 31.20	
 18.698	 37.048	 35.21441	 32.16607	 -5.05617	 27.61211	 -1.83273	 -2.18652	 42.60036	702.41998	 31.20	
 18.704	 31.745	 35.23335	 33.66982	 -6.00970	 25.53772	 -0.27720	 -2.06082	 42.58955	702.35999	 31.20	
 18.695	 26.463	 35.31042	 34.96262	 -6.59789	 23.27440	  1.48369	 -1.98789	 42.61665	702.47998	 31.20	
 18.706	 21.182	 35.31699	 36.07552	 -7.22754	 21.14718	  3.22916	 -1.95785	 42.60532	702.47998	 31.20	
 18.691	 15.915	 35.33773	 36.93518	 -7.65962	 19.00917	  5.13653	 -1.91846	 42.58577	702.46997	 31.30	
 18.703	 10.559	 35.33665	 37.60780	 -8.16778	 16.60487	  7.14578	 -1.88772	 42.59453	702.34998	 31.30	
 18.709	  5.325	 35.33353	 37.99988	 -8.30200	 14.24929	  9.11524	 -1.86563	 42.58912	702.42999	 31.30	
 18.700	  0.000	 35.35218	 38.12188	 -8.15791	 12.01523	 11.20770	 -1.80712	 42.57791	702.48999	 31.30	
 18.709	 -5.325	 35.36607	 38.05190	 -8.00608	  9.67196	 13.54964	 -1.73028	 42.58205	702.40997	 31.30	
 18.703	-10.559	 35.38462	 37.69209	 -7.74029	  7.50793	 15.89270	 -1.65335	 42.58456	702.45001	 31.30	
 18.691	-15.915	 35.41877	 37.12202	 -7.38463	  5.52332	 18.14799	 -1.55659	 42.59245	702.46997	 31.30	
 18.706	-21.182	 35.39628	 36.29898	 -6.78107	  3.54482	 20.43029	 -1.48870	 42.58188	702.38000	 31.30	
 18.695	-26.463	 35.41228	 35.25611	 -6.09476	  1.72728	 22.69381	 -1.42369	 42.59952	702.47998	 31.30	
 18.704	-31.745	 35.39198	 33.99989	 -5.36631	  0.10878	 24.88198	 -1.33205	 42.59488	702.40002	 31.30	
 18.698	-37.048	 35.38369	 32.54682	 -4.62090	 -1.37277	 26.84035	 -1.25674	 42.60400	702.39001	 31.30	
 18.699	-42.375	 35.33192	 30.85295	 -3.63844	 -2.77126	 28.83036	 -1.21410	 42.59494	702.39001	 31.30	
 18.705	-47.657	 35.31819	 29.04553	 -2.44405	 -4.00135	 30.81640	 -1.14138	 42.59891	702.46002	 31.30	
 18.713	-52.933	 35.29929	 27.07758	 -1.08338	 -5.05336	 32.36380	 -1.10723	 42.59409	702.53003	 31.30	
 18.700	-58.206	 35.25241	 25.01073	  0.37272	 -6.02877	 33.88251	 -1.04945	 42.57389	702.41998	 31.30	
 18.698	-63.496	 35.20701	 22.75082	  2.01698	 -6.92673	 35.18188	 -1.03070	 42.56783	702.45001	 31.30	
 18.707	-68.835	 35.16310	 20.38839	  3.86630	 -7.55813	 36.30071	 -0.97362	 42.57291	702.42999	 31.30	
 18.690	-74.137	 35.16074	 17.99798	  5.84338	 -7.99599	 37.08549	 -0.91197	 42.58738	702.45001	 31.30	
 18.696	-79.417	 35.09600	 15.76540	  7.87978	 -8.40821	 37.67460	 -0.87944	 42.58709	702.53003	 31.30	
 18.700	-84.691	 35.06076	 13.46530	  9.99079	 -8.57446	 38.00576	 -0.85673	 42.57785	702.52002	 31.30	
 18.700	-90.000	 35.03831	 11.29181	 12.09327	 -8.51025	 38.12553	 -0.82416	 42.58971	702.57001	 31.30	
 18.700	-95.309	 35.01109	  9.21549	 14.19046	 -8.41021	 37.98489	 -0.80004	 42.57643	702.57001	 31.30	
 18.696	-100.583	 34.99471	  7.11077	 16.39208	 -8.19634	 37.64096	 -0.81321	 42.59704	702.53003	 31.30	
 18.690	-105.863	 34.97589	  5.07153	 18.68840	 -7.76970	 37.03027	 -0.80308	 42.57214	702.57001	 31.30	
 18.707	-111.165	 34.92054	  3.12058	 20.98656	 -7.26628	 36.17168	 -0.79101	 42.56352	702.40997	 31.30	
 18.698	-116.504	 34.89545	  1.29496	 23.29425	 -6.67314	 35.02824	 -0.77216	 42.57887	702.44000	 31.30	
 18.700	-121.794	 34.88955	 -0.46212	 25.54627	 -5.95598	 33.73190	 -0.83293	 42.61041	702.51001	 31.30	
 18.713	-127.067	 34.84903	 -1.96932	 27.49363	 -5.00501	 32.20781	 -0.87663	 42.57473	702.51001	 31.30	
 18.705	-132.343	 34.80249	 -3.29992	 29.44507	 -3.98902	 30.53202	 -0.88929	 42.57320	702.47998	 31.30	
 18.699	-137.625	 34.78655	 -4.44542	 31.28566	 -2.73991	 28.57596	 -0.96668	 42.58192	702.59998	 31.30	
 18.698	-142.952	 34.75432	 -5.42494	 32.87190	 -1.34846	 26.62082	 -0.99575	 42.55503	702.58002	 31.30	
 18.704	-148.255	 34.75426	 -6.16279	 34.33747	  0.13691	 24.56545	 -1.09447	 42.58653	702.51001	 31.30	
 18.695	-153.537	 34.74286	 -6.90279	 35.57542	  1.79677	 22.51555	 -1.19410	 42.57436	702.63000	 31.30	
 18.706	-158.818	 34.68798	 -7.65498	 36.66081	  3.61265	 20.20785	 -1.24823	 42.58764	702.48999	 31.30	
 18.691	-164.085	 34.65700	 -8.30518	 37.45503	  5.55136	 17.93245	 -1.30681	 42.57798	702.46997	 31.30	
 18.703	-169.441	 34.60348	 -8.92464	 38.04129	  7.58271	 15.56856	 -1.38271	 42.59614	702.56000	 31.30	
 18.709	-174.675	 34.56909	 -9.21500	 38.35325	  9.73418	 13.21323	 -1.47078	 42.58437	702.59998	 31.30	
 18.700	180.000	 34.54874	 -9.14670	 38.43869	 11.95015	 11.10113	 -1.58552	 42.57845	702.53998	 31.30	
 20.400	180.000	 32.98179	-11.45728	 39.49708	 10.76938	  9.90991	 -1.49933	 42.59713	702.52002	 31.30	
 20.401	-175.153	 32.96855	-11.58678	 39.41452	  8.63863	 11.79312	 -1.39010	 42.57129	702.48999	 31.30	
 20.407	-170.264	 32.98312	-11.38747	 39.12739	  6.54030	 14.08139	 -1.29779	 42.58340	702.47998	 31.30	
 20.410	-165.423	 33.03102	-11.02028	 38.64382	  4.55711	 16.42288	 -1.22408	 42.58585	702.40997	 31.30	
 20.392	-160.496	 33.06845	-10.35055	 37.85468	  2.59421	 18.81633	 -1.16623	 42.55518	702.41998	 31.30	
 20.401	-155.705	 33.11324	 -9.58109	 36.91225	  0.76775	 21.14761	 -1.09011	 42.57560	702.48999	 31.30	
 20.405	-150.835	 33.14512	 -8.88796	 35.76696	 -0.86381	 23.36238	 -1.00452	 42.57764	702.39001	 31.30	
 20.397	-145.903	 33.19910	 -7.93964	 34.41209	 -2.42955	 25.47888	 -0.99346	 42.57283	702.48999	 31.30	
 20.392	-141.062	 33.19551	 -7.17262	 32.87964	 -3.88532	 27.46580	 -0.90255	 42.58051	702.51001	 31.40	
 20.396	-136.227	 33.22100	 -6.13588	 31.18326	 -5.18578	 29.41984	 -0.84579	 42.56021	702.53003	 31.40	
 20.408	-131.372	 33.27353	 -4.94373	 29.37604	 -6.33261	 31.27007	 -0.82348	 42.59148	702.48999	 31.30	
 20.410	-126.511	 33.25487	 -3.69668	 27.35288	 -7.33278	 32.93990	 -0.79324	 42.56515	702.50000	 31.40	
 20.400	-121.604	 33.27880	 -2.11643	 25.21738	 -8.22166	 34.46501	 -0.75292	 42.56330	702.58002	 31.30	
 20.403	-116.741	 33.28094	 -0.62640	 23.03040	 -9.03303	 35.83119	 -0.70857	 42.57057	702.51001	 31.30	
 20.413	-111.900	 33.30940	  1.06064	 20.83619	 -9.57664	 36.92664	 -0.70316	 42.56240	702.40002	 31.40	
 20.398	-107.004	 33.40499	  3.03669	 18.53564	-10.05350	 37.85486	 -0.71027	 42.57757	702.45001	 31.30	
 20.394	-102.132	 33.42182	  5.06528	 16.18300	-10.48134	 38.51835	 -0.71325	 42.56187	702.46997	 31.40	
 20.403	-97.332	 33.42676	  7.09572	 14.02458	-10.77717	 38.94115	 -0.72288	 42.55933	702.38000	 31.40	
 20.392	-92.440	 33.47908	  9.17673	 11.89869	-10.83584	 39.16040	 -0.73177	 42.56653	702.40997	 31.40	
 20.392	-87.560	 33.48637	 11.08060	  9.95081	-10.99533	 39.18106	 -0.74950	 42.57341	702.42999	 31.40	
 20.403	-82.668	 33.48956	 13.29114	  7.85086	-11.02392	 38.98927	 -0.80371	 42.57221	702.40002	 31.40	
 20.394	-77.868	 33.54078	 15.57851	  5.79698	-10.74769	 38.56882	 -0.81296	 42.55908	702.53998	 31.40	
 20.398	-72.996	 33.58193	 17.90331	  3.80223	-10.26899	 37.95164	 -0.83831	 42.56722	702.44000	 31.40	
 20.413	-68.100	 33.60044	 20.25786	  1.84155	 -9.86413	 37.13546	 -0.86718	 42.57452	702.54999	 31.40	
 20.403	-63.259	 33.61668	 22.55089	  0.05706	 -9.27595	 36.04346	 -0.89093	 42.56662	702.46002	 31.40	
 20.400	-58.396	 33.66033	 24.80122	 -1.52140	 -8.39253	 34.78097	 -0.93264	 42.54561	702.41998	 31.40	
 20.410	-53.489	 33.70317	 26.93372	 -2.97086	 -7.40080	 33.24524	 -0.99331	 42.53626	702.52002	 31.40	
 20.408	-48.628	 33.76556	 29.03526	 -4.19744	 -6.34487	 31.63628	 -1.03584	 42.57032	702.41998	 31.40	
 20.396	-43.773	 33.77029	 30.87256	 -5.33544	 -5.23145	 29.73585	 -1.12400	 42.56428	702.52002	 31.40	
 20.392	-38.938	 33.81879	 32.59044	 -6.30599	 -3.97492	 27.82518	 -1.15761	 42.58796	702.51001	 31.40	
 20.397	-34.097	 33.83443	 34.07716	 -7.15416	 -2.59841	 25.84071	 -1.24603	 42.57610	702.53003	 31.40	
 20.405	-29.165	 33.84467	 35.46296	 -7.97302	 -1.04483	 23.69330	 -1.35336	 42.56763	702.45001	 31.40	
 20.401	-24.295	 33.85977	 36.62600	 -8.62569	  0.62754	 21.50190	 -1.43143	 42.58647	702.40997	 31.40	
 20.392	-19.504	 33.87400	 37.58611	 -9.21838	  2.48786	 19.20176	 -1.49315	 42.56983	702.35999	 31.40	
 20.410	-14.577	 33.85975	 38.35181	 -9.76599	  4.47226	 16.88136	 -1.53590	 42.56773	702.38000	 31.40	
 20.407	 -9.736	 33.86519	 38.86360	-10.03360	  6.47545	 14.66746	 -1.61693	 42.58754	702.45001	 31.40	
 20.401	 -4.847	 33.86214	 39.16044	-10.20279	  8.54067	 12.29798	 -1.73532	 42.57768	702.33002	 31.40	
 20.400	  0.000	 33.83580	 39.22580	-10.33005	 10.66546	 10.04109	 -1.86379	 42.55568	702.37000	 31.40	
 20.401	  4.847	 33.79078	 39.12165	-10.65375	 12.89806	  8.07824	 -1.94620	 42.57521	702.53003	 31.40	
 20.407	  9.736	 33.75250	 38.75755	-10.69751	 15.23475	  5.98913	 -2.02592	 42.56062	702.45001	 31.40	
 20.410	 14.577	 33.76561	 38.18071	-10.24653	 17.62671	  4.04595	 -2.11694	 42.57192	702.33002	 31.40	
 20.392	 19.504	 33.74020	 37.34089	 -9.76398	 19.91694	  2.22344	 -2.19955	 42.55142	702.31000	 31.40	
 20.401	 24.295	 33.70324	 36.34177	 -9.17906	 21.97312	  0.37597	 -2.27335	 42.54367	702.41998	 31.40	
 20.405	 29.165	 33.67412	 35.18269	 -8.60222	 24.19570	 -1.26669	 -2.36111	 42.56264	702.39001	 31.40	
 20.397	 34.097	 33.65539	 33.72350	 -7.71630	 26.48161	 -2.90931	 -2.42705	 42.54752	702.40997	 31.40	
 20.392	 38.938	 33.63437	 32.12787	 -6.78519	 28.50828	 -4.36714	 -2.51680	 42.55904	702.28998	 31.40	
 20.396	 43.773	 33.56876	 30.34533	 -5.85844	 30.33599	 -5.72029	 -2.56972	 42.56192	702.23999	 31.40	
 20.408	 48.628	 33.52675	 28.41565	 -4.71854	 32.04478	 -6.87812	 -2.60182	 42.55948	702.40997	 31.40	
 20.410	 53.489	 33.51618	 26.37275	 -3.35270	 33.67273	 -7.78811	 -2.62286	 42.57244	702.40997	 31.50	
 20.400	 58.396	 33.46880	 24.15691	 -1.87718	 35.13985	 -8.65359	 -2.63605	 42.56338	702.34998	 31.50	
 20.403	 63.259	 33.42709	 21.94734	 -0.29345	 36.39587	 -9.31225	 -2.72888	 42.54103	702.46002	 31.50	
 20.413	 68.100	 33.39549	 19.73873	  1.36852	 37.45309	 -9.73282	 -2.82245	 42.55801	702.42999	 31.50	
 20.398	 72.996	 33.36215	 17.43070	  3.22117	 38.27880	-10.13210	 -2.85299	 42.53161	702.33002	 31.50	
 20.394	 77.868	 33.32153	 15.19047	  5.08706	 38.90118	-10.47216	 -2.91100	 42.54660	702.39001	 31.50	
 20.403	 82.668	 33.29709	 13.06154	  7.10771	 39.33527	-10.77511	 -2.92953	 42.56832	702.40002	 31.50	
 20.392	 87.560	 33.20354	 10.89164	  9.08891	 39.50453	-11.13973	 -2.91538	 42.54864	702.28998	 31.50	
 20.392	 92.440	 33.17870	  8.76498	 11.21734	 39.50319	-11.27316	 -2.89131	 42.54488	702.29999	 31.50	
 20.403	 97.332	 33.13185	  6.58065	 13.41871	 39.30906	-11.36064	 -2.84085	 42.56377	702.37000	 31.50	
 20.394	102.132	 33.08568	  4.50853	 15.60934	 38.87715	-11.25515	 -2.75373	 42.56180	702.26001	 31.50	
 20.398	107.004	 33.05294	  2.49255	 17.90838	 38.22666	-10.91983	 -2.73566	 42.56206	702.28998	 31.50	
 20.413	111.900	 33.01786	  0.54608	 20.27646	 37.31652	-10.31087	 -2.71315	 42.55142	702.34998	 31.50	
 20.403	116.741	 33.01561	 -1.19957	 22.59437	 36.19906	 -9.55088	 -2.65691	 42.54339	702.33002	 31.50	
 20.400	121.604	 32.99024	 -2.74730	 24.79942	 34.90749	 -8.73825	 -2.61941	 42.53436	702.39001	 31.50	
 20.410	126.511	 32.97060	 -4.11371	 26.94838	 33.41122	 -7.75901	 -2.57845	 42.53972	702.46997	 31.50	
 20.408	131.372	 32.94421	 -5.33972	 28.87837	 31.77446	 -6.70036	 -2.52562	 42.52850	702.35999	 31.50	
 20.396	136.227	 32.93079	 -6.49794	 30.77540	 30.04504	 -5.50069	 -2.45782	 42.54676	702.31000	 31.50	
 20.392	141.062	 32.95061	 -7.53272	 32.52808	 28.25475	 -4.12521	 -2.39113	 42.54860	702.40997	 31.50	
 20.397	145.903	 32.94131	 -8.57124	 34.12311	 26.23175	 -2.69658	 -2.29284	 42.55469	702.34003	 31.50	
 20.405	150.835	 32.88105	 -9.51236	 35.48346	 23.93835	 -1.16507	 -2.20668	 42.55634	702.38000	 31.50	
 20.401	155.705	 32.87444	-10.19131	 36.67910	 21.60961	  0.44633	 -2.12062	 42.54285	702.32001	 31.50	
 20.392	160.496	 32.84192	-10.84018	 37.67294	 19.56156	  2.22065	 -1.99675	 42.53038	702.35999	 31.50	
 20.410	165.423	 32.86532	-11.17993	 38.46640	 17.42006	  4.09198	 -1.85202	 42.55199	702.29999	 31.50	
 20.407	170.264	 32.89581	-11.20943	 38.98830	 15.24851	  6.02166	 -1.77354	 42.53367	702.28998	 31.50	
 20.401	175.153	 32.94727	-11.30188	 39.31698	 12.98588	  8.00451	 -1.65605	 42.53955	702.29999	 31.50	
  0.141	 45.000	 42.51595	 17.80040	 18.48907	 18.71435	 17.87186	  1.05174	 42.55658	702.34998	 31.50	
  4.001	128.691	 42.30296	 13.72109	 21.77732	 22.66966	 13.54926	  0.83747	 42.55766	702.31000	 31.50	
  4.002	 76.995	 42.37307	 18.50447	 16.97484	 23.82694	 12.37069	  0.96980	 42.56213	702.33002	 31.50	
  4.002	 25.892	 42.43833	 22.47609	 13.40266	 20.75448	 15.49204	  1.00958	 42.58104	702.27002	 31.50	
  4.002	-25.892	 42.43126	 22.61363	 13.47402	 16.06953	 20.01802	  0.91910	 42.54729	702.29999	 31.50	
  4.002	-76.995	 42.40576	 18.68704	 17.12991	 13.11416	 22.92647	  0.78146	 42.57355	702.29999	 31.50	
  4.001	-128.691	 42.31353	 13.82852	 21.90761	 14.07370	 21.69729	  0.70470	 42.54807	702.26001	 31.50	
  4.000	180.000	 42.29894	 11.82144	 24.02294	 18.20780	 17.70027	  0.71759	 42.56706	702.25000	 31.50	
  8.000	180.000	 41.30685	  6.14705	 28.78126	 17.41356	 16.44905	  0.05742	 42.55765	702.14001	 31.50	
  7.991	-152.370	 41.34606	  7.33683	 27.45740	 12.41960	 21.56556	 -0.15385	 42.54033	702.20001	 31.50	
  7.997	-124.550	 41.43748	 10.51074	 23.83390	  8.88274	 25.73976	 -0.13042	 42.55997	702.31000	 31.50	
  8.006	-96.837	 41.50739	 15.11776	 18.72600	  7.29509	 27.87440	  0.00185	 42.55028	702.34998	 31.50	
  7.988	-69.228	 41.60203	 20.48969	 13.64720	  7.87358	 27.25676	  0.12182	 42.55748	702.46997	 31.50	
  7.997	-41.563	 41.66154	 25.12677	  9.71243	 10.58628	 24.04793	  0.22081	 42.56341	702.34998	 31.50	
  8.008	-13.821	 41.65449	 27.70022	  7.54095	 14.90903	 19.44159	  0.42748	 42.55157	702.23999	 31.50	
  8.008	 13.821	 41.63390	 27.64499	  7.41983	 19.91376	 14.04516	  0.56323	 42.55926	702.21997	 31.50	
  7.997	 41.563	 41.56632	 24.88391	  9.46330	 24.88728	  9.68946	  0.51319	 42.56432	702.19000	 31.50	
  7.988	 69.228	 41.49092	 20.19893	 13.34604	 27.97703	  6.91982	  0.38530	 42.56386	702.35999	 31.50	
  8.006	 96.837	 41.38563	 14.80077	 18.44442	 28.59928	  6.32265	  0.35375	 42.53767	702.29999	 31.50	
  7.997	124.550	 41.32578	 10.24534	 23.60062	 26.58699	  7.95961	  0.25648	 42.55925	702.21002	 31.50	
  7.991	152.370	 41.28936	  7.15323	 27.36338	 22.46591	 11.63117	  0.14362	 42.56457	702.20001	 31.50	
 12.009	161.059	 39.40924	  0.86447	 31.86551	 21.00051	  9.71927	 -1.02144	 42.54407	702.25000	 31.50	
 12.013	142.081	 39.42625	  2.87196	 29.04396	 26.05675	  5.59049	 -1.00926	 42.54734	702.26001	 31.50	
 12.006	123.113	 39.47751	  6.18087	 24.77180	 29.93382	  2.45294	 -0.92787	 42.56526	702.28998	 31.50	
 12.007	104.200	 39.56390	 10.65351	 19.53588	 32.34647	  0.83058	 -0.83932	 42.55457	702.19000	 31.50	
 11.989	 85.301	 39.66093	 15.80137	 14.15715	 32.98523	  0.56043	 -0.86041	 42.54918	702.28003	 31.60	
 12.013	 66.294	 39.72265	 21.36363	  9.28016	 31.41026	  1.48916	 -0.73473	 42.53327	702.34003	 31.50	
 12.012	 47.388	 39.81216	 26.27939	  5.38778	 28.34066	  3.92676	 -0.70092	 42.54518	702.33002	 31.60	
 11.990	 28.440	 39.90098	 29.92068	  2.74815	 23.78056	  7.60724	 -0.48863	 42.54094	702.45001	 31.60	
 11.991	  9.464	 39.96817	 31.98380	  1.47009	 18.67581	 12.48555	 -0.56058	 42.54376	702.39001	 31.60	
 11.991	 -9.464	 40.00847	 32.08005	  1.55867	 13.24751	 17.71351	 -0.70465	 42.55354	702.33002	 31.60	
 11.990	-28.440	 39.98990	 30.15940	  3.01958	  8.43901	 22.92266	 -0.77738	 42.54031	702.32001	 31.60	
 12.012	-47.388	 39.95642	 26.70160	  5.69037	  4.50546	 27.51087	 -0.95967	 42.53608	702.26001	 31.60	
 12.013	-66.294	 39.91719	 21.83007	  9.63743	  2.15309	 30.79232	 -0.93431	 42.54037	702.39001	 31.60	
 11.989	-85.301	 39.84539	 16.23783	 14.51157	  1.17208	 32.22628	 -0.94086	 42.53236	702.33002	 31.60	
 12.007	-104.200	 39.74761	 11.05745	 19.95389	  1.53396	 31.70811	 -0.94796	 42.54989	702.40997	 31.60	
 12.006	-123.113	 39.64920	  6.58905	 25.09245	  3.15970	 29.33750	 -0.93124	 42.54886	702.32001	 31.60	
 12.013	-142.081	 39.54543	  3.11074	 29.27905	  6.30632	 25.35009	 -0.98058	 42.55158	702.38000	 31.60	
 12.009	-161.059	 39.50146	  0.95860	 31.99022	 10.64557	 20.28152	 -0.96632	 42.55541	702.35999	 31.60	
 16.000	180.000	 36.78423	 -5.58972	 36.46031	 13.68484	 12.82185	 -1.57553	 42.55782	702.33002	 31.60	
 15.990	-165.604	 36.83815	 -4.92274	 35.74056	  8.55202	 18.25492	 -1.40087	 42.55209	702.37000	 31.60	
 16.002	-151.165	 36.88878	 -3.27174	 33.55475	  3.92868	 23.44207	 -1.23491	 42.52605	702.34998	 31.60	
 16.002	-136.836	 36.96523	 -1.02110	 30.07315	  0.34018	 28.22637	 -1.10736	 42.54422	702.33002	 31.60	
 15.995	-122.439	 37.03120	  2.41426	 25.65275	 -2.26145	 32.16239	 -0.99229	 42.54275	702.38000	 31.60	
 15.993	-107.966	 37.17152	  6.80293	 20.45885	 -3.75669	 34.77950	 -0.97311	 42.55404	702.34003	 31.60	
 16.005	-93.629	 37.20549	 11.69525	 15.03946	 -4.51745	 35.97763	 -0.99551	 42.52850	702.35999	 31.60	
 15.992	-79.234	 37.26970	 16.94873	  9.92795	 -4.49631	 35.60741	 -1.03726	 42.51807	702.22998	 31.60	
 16.009	-64.774	 37.36899	 22.52618	  5.33655	 -3.30405	 33.69107	 -1.15535	 42.53475	702.37000	 31.60	
 15.997	-50.364	 37.43091	 27.52491	  1.46856	 -1.12406	 30.49784	 -1.28980	 42.55147	702.26001	 31.60	
 15.997	-36.045	 37.47470	 31.43830	 -1.30610	  2.03360	 26.10047	 -1.33746	 42.53933	702.29999	 31.60	
 16.000	-21.597	 37.50637	 34.38461	 -3.13115	  6.04908	 21.12740	 -1.38067	 42.53623	702.33002	 31.60	
 16.003	 -7.169	 37.49222	 35.86417	 -4.30134	 11.07325	 15.61957	 -1.47182	 42.56005	702.17999	 31.60	
 16.003	  7.169	 37.44180	 35.78688	 -4.43005	 16.43866	 10.30806	 -1.44845	 42.54126	702.31000	 31.60	
 16.000	 21.597	 37.39859	 34.15139	 -3.53311	 21.46428	  5.69459	 -1.36249	 42.53534	702.34003	 31.60	
 15.997	 36.045	 37.28687	 31.05938	 -1.79121	 26.80998	  1.44715	 -1.55155	 42.52920	702.21997	 31.60	
 15.997	 50.364	 37.21518	 26.95448	  1.13002	 31.00214	 -1.57963	 -1.67409	 42.51888	702.25000	 31.60	
 16.009	 64.774	 37.14563	 21.94532	  5.02948	 34.28693	 -3.64975	 -1.78685	 42.53565	702.29999	 31.60	
 15.992	 79.234	 37.08012	 16.27524	  9.54295	 36.14474	 -4.69774	 -1.86183	 42.54877	702.25000	 31.60	
 16.005	 93.629	 36.94440	 11.11116	 14.51070	 36.46941	 -5.19684	 -1.88270	 42.51963	702.31000	 31.60	
 15.993	107.966	 36.85886	  6.19423	 19.86773	 35.28433	 -4.66857	 -1.82046	 42.52671	702.29999	 31.60	
 15.995	122.439	 36.78149	  1.90762	 25.26409	 32.63370	 -2.82433	 -1.85497	 42.52507	702.31000	 31.60	
 16.002	136.836	 36.76225	 -1.41047	 29.77988	 28.89065	  0.00849	 -1.90970	 42.53815	702.20001	 31.60	
 16.002	151.165	 36.70960	 -3.80293	 33.35636	 24.13643	  3.52190	 -1.81022	 42.53312	702.28003	 31.60	
 15.990	165.604	 36.75555	 -5.05071	 35.61972	 19.00691	  7.93216	 -1.69768	 42.54768	702.25000	 31.60	
 20.003	168.362	 33.27373	-10.59943	 38.57438	 16.32833	  5.62788	 -1.80418	 42.52664	702.28998	 31.60	
 20.008	156.764	 33.22250	 -9.81374	 36.72486	 21.26487	  1.22099	 -2.09929	 42.52135	702.17999	 31.60	
 20.000	145.147	 33.31260	 -7.91032	 33.66648	 26.45210	 -2.46761	 -2.31746	 42.53115	702.25000	 31.70	
 19.995	133.545	 33.30906	 -5.41188	 29.67515	 30.89223	 -5.64409	 -2.49312	 42.51820	702.13000	 31.60	
 20.009	121.926	 33.34039	 -2.43414	 24.98430	 34.63117	 -8.16872	 -2.55975	 42.52416	702.19000	 31.70	
 20.005	110.327	 33.40924	  1.55865	 19.65323	 37.41489	 -9.97827	 -2.64536	 42.53214	702.25000	 31.70	
 19.989	 98.733	 33.49189	  6.29070	 14.30123	 38.93572	-10.77966	 -2.74698	 42.53839	702.23999	 31.70	
 19.999	 87.075	 33.60645	 11.34675	  9.25058	 39.26147	-10.53870	 -2.85835	 42.54734	702.21997	 31.70	
 19.992	 75.457	 33.72069	 16.44037	  4.56202	 38.39095	 -9.77289	 -2.82255	 42.52972	702.28998	 31.70	
 20.009	 63.844	 33.80279	 21.76247	  0.37174	 36.34068	 -8.77732	 -2.69262	 42.53350	702.21997	 31.70	
 19.989	 52.269	 33.90382	 26.82683	 -3.18705	 33.13561	 -7.03142	 -2.55854	 42.53444	702.28003	 31.70	
 19.999	 40.602	 33.95325	 31.36850	 -5.98296	 29.06543	 -4.38058	 -2.47005	 42.51830	702.20001	 31.70	
 20.004	 29.051	 34.03949	 34.97920	 -8.06496	 24.23289	 -0.80653	 -2.29086	 42.53521	702.22998	 31.70	
 20.005	 17.433	 34.10887	 37.46996	 -9.43770	 19.10204	  3.38995	 -2.12808	 42.53126	702.21997	 31.70	
 20.006	  5.780	 34.10263	 38.77286	-10.13503	 13.58713	  7.96443	 -1.97080	 42.51929	702.13000	 31.70	
 20.006	 -5.780	 34.18964	 38.84304	 -9.67011	  8.41747	 12.97103	 -1.71690	 42.53939	702.28003	 31.70	
 20.005	-17.433	 34.19464	 37.66300	 -8.93891	  3.67281	 18.35779	 -1.52411	 42.52951	702.15997	 31.70	
 20.004	-29.051	 34.18568	 35.24729	 -7.42497	 -0.54611	 23.62698	 -1.36356	 42.51359	702.13000	 31.70	
 19.999	-40.602	 34.13132	 31.84505	 -5.54552	 -3.92946	 28.39225	 -1.14477	 42.51992	702.25000	 31.70	
 19.989	-52.269	 34.09895	 27.42377	 -2.79354	 -6.58025	 32.67881	 -1.02834	 42.52458	702.21002	 31.70	
 20.009	-63.844	 33.96914	 22.35001	  0.68940	 -8.82689	 35.95303	 -0.90560	 42.52362	702.23999	 31.70	
 19.992	-75.457	 33.90974	 16.83377	  5.15811	 -9.97260	 38.02184	 -0.85164	 42.52265	702.29999	 31.70	
 19.999	-87.075	 33.81726	 11.54687	 10.01483	-10.45566	 38.89676	 -0.75809	 42.52940	702.25000	 31.70	
 19.989	-98.733	 33.79324	  6.81162	 14.88695	-10.12310	 38.55116	 -0.73468	 42.52322	702.29999	 31.70	
 20.005	-110.327	 33.70644	  2.08362	 20.18749	 -9.15872	 37.01843	 -0.72280	 42.53292	702.25000	 31.70	
 20.009	-121.926	 33.62606	 -1.82916	 25.35608	 -7.67734	 34.19967	 -0.77555	 42.54063	702.28003	 31.70	
 19.995	-133.545	 33.59668	 -5.01758	 30.06441	 -5.33603	 30.34184	 -0.82750	 42.51910	702.22998	 31.70	
 20.000	-145.147	 33.54097	 -7.30192	 33.97504	 -2.23050	 25.77647	 -1.00042	 42.50956	702.28003	 31.70	
 20.008	-156.764	 33.48423	 -9.11434	 36.89691	  1.56860	 20.68345	 -1.15922	 42.54267	702.25000	 31.70	
 20.003	-168.362	 33.36489	-10.61265	 38.66022	  6.08601	 15.29036	 -1.30415	 42.51283	702.26001	 31.70	
 20.000	180.000	 33.32793	-10.83802	 39.18023	 11.06716	 10.20507	 -1.51267	 42.52544	702.27002	 31.70	
