FileType=PCF
NHL=14
Date=03/14/19	15:52:33
Facility=APL
Serial=16071-2
Customer=NASA
NP=6
Mach=0.450000
Calibration=1:1
CalPts=490
TstPts=95
PortNumbering=AP Standard
Units=Torr C m/s kg/m^3 deg mm 
Theta[deg]	Phi[deg]	P1[Torr]	P2[Torr]	P3[Torr]	P4[Torr]	P5[Torr]	P6[Torr]	Pt[Torr]	Ps[Abs,Torr]	Ts[C]	
  0.000	  0.000	 91.57542	 37.61010	 43.86969	 40.53434	 39.70788	  2.11208	 91.52673	707.07001	 33.20	
  1.691	128.401	 91.52112	 34.42114	 46.70720	 43.97885	 35.92329	  2.04866	 91.50683	707.10999	 33.40	
  1.692	 77.194	 91.62531	 38.50711	 42.76730	 45.16579	 35.08395	  2.17717	 91.58227	707.09003	 33.50	
  1.699	 26.182	 91.72294	 41.96304	 39.59123	 42.56840	 37.61242	  2.24611	 91.63023	707.09003	 33.60	
  1.699	-26.182	 91.75119	 42.07833	 39.53998	 38.61156	 41.82597	  2.16447	 91.67558	707.07001	 33.80	
  1.692	-77.194	 91.74773	 38.78834	 42.71217	 35.94891	 44.45122	  2.02934	 91.68968	707.09998	 33.90	
  1.691	-128.401	 91.72413	 34.69912	 46.72800	 36.71891	 43.44337	  1.93939	 91.71348	707.13000	 34.00	
  1.700	180.000	 91.70896	 32.80692	 48.58961	 40.39005	 39.59943	  1.96859	 91.71633	707.26001	 34.10	
  3.400	180.000	 91.45026	 27.13709	 53.11012	 39.81573	 39.32395	  1.64087	 91.77050	707.20001	 34.30	
  3.388	-152.325	 91.48895	 28.34041	 51.93980	 35.42205	 43.86776	  1.58824	 91.78245	707.13000	 34.40	
  3.397	-124.529	 91.58147	 31.50037	 48.88430	 32.21621	 47.43624	  1.59318	 91.81670	707.15002	 34.50	
  3.399	-96.763	 91.63953	 36.36250	 44.54936	 30.79860	 49.24989	  1.66366	 91.77209	707.12000	 34.60	
  3.394	-69.283	 91.72409	 40.97224	 40.01215	 31.51339	 48.66168	  1.76055	 91.75131	707.08002	 34.70	
  3.400	-41.398	 91.83807	 44.94088	 36.27849	 34.28368	 45.90854	  1.94351	 91.78390	707.07001	 34.80	
  3.401	-14.021	 91.88000	 47.15324	 34.25653	 38.37594	 41.78157	  2.08801	 91.82343	707.09003	 34.90	
  3.401	 14.021	 91.89936	 47.09652	 34.32504	 42.95723	 37.10401	  2.15845	 91.82059	707.09998	 35.00	
  3.400	 41.398	 91.88390	 44.73372	 36.42641	 47.05416	 33.15038	  2.18217	 91.83546	707.09003	 35.10	
  3.394	 69.283	 91.86023	 40.67089	 40.22113	 49.62869	 30.69220	  2.13305	 91.87946	707.17999	 35.20	
  3.399	 96.763	 91.80715	 35.96963	 44.78745	 50.00633	 29.92168	  2.02120	 91.91920	707.09003	 35.30	
  3.397	124.529	 91.65009	 31.62975	 49.07957	 48.09046	 31.66839	  1.86896	 91.87508	706.96002	 35.40	
  3.388	152.325	 91.67209	 28.24338	 52.19028	 44.36231	 35.06562	  1.73366	 91.96175	706.96997	 35.50	
  5.099	161.165	 91.03915	 22.85244	 56.82849	 43.71723	 34.20222	  1.21395	 91.93948	707.13000	 35.60	
  5.109	142.013	 91.13054	 24.81664	 54.60011	 48.35363	 30.09916	  1.36099	 91.97710	707.09003	 35.70	
  5.095	123.033	 91.24528	 28.28043	 51.00840	 51.98317	 26.84259	  1.51816	 91.98515	707.14001	 35.80	
  5.105	104.191	 91.36146	 32.68222	 46.64009	 54.14777	 25.18319	  1.67527	 91.95750	707.14001	 35.90	
  5.093	 85.207	 91.52650	 37.67704	 41.95377	 54.70308	 24.95219	  1.78705	 91.97969	707.10999	 35.90	
  5.104	 66.290	 91.65678	 42.49762	 37.43373	 53.74696	 25.95396	  1.89475	 91.99548	707.03003	 36.00	
  5.094	 47.331	 91.78802	 46.87976	 33.54712	 51.21261	 28.43718	  2.00468	 92.03108	707.09003	 36.10	
  5.089	 28.397	 91.86311	 50.12644	 30.84897	 47.35619	 32.02382	  2.03650	 92.05766	707.00000	 36.20	
  5.096	  9.576	 91.90156	 51.93545	 29.39012	 42.68314	 36.25220	  1.98519	 92.05655	707.03998	 36.30	
  5.096	 -9.576	 91.88332	 52.08833	 29.20412	 38.06874	 41.35324	  1.88014	 92.02132	707.07001	 36.40	
  5.089	-28.397	 91.92899	 50.53312	 30.54771	 33.59824	 46.04972	  1.73037	 92.11352	707.04999	 36.50	
  5.094	-47.331	 91.83186	 47.38269	 33.24845	 29.80725	 50.02213	  1.56107	 92.08110	707.09998	 36.50	
  5.104	-66.290	 91.74639	 43.23180	 37.26353	 27.11616	 52.85695	  1.41843	 92.09875	707.02002	 36.60	
  5.093	-85.207	 91.63046	 38.54629	 41.85698	 25.57971	 53.98096	  1.26834	 92.09563	707.06000	 36.70	
  5.105	-104.191	 91.52211	 33.73972	 46.61544	 25.70775	 53.53230	  1.18142	 92.11806	706.90997	 36.80	
  5.095	-123.033	 91.46836	 29.39119	 50.98204	 27.40586	 51.46651	  1.14379	 92.16495	706.96997	 36.90	
  5.109	-142.013	 91.37178	 25.35564	 54.54307	 30.31719	 47.96037	  1.10813	 92.17513	707.03003	 36.90	
  5.099	-161.165	 91.26668	 23.09916	 56.81459	 34.33567	 43.58729	  1.14051	 92.10519	707.00000	 37.00	
  5.100	180.000	 91.24773	 22.35307	 57.66999	 39.27617	 38.86137	  1.18342	 92.13008	707.00000	 37.10	
  6.800	180.000	 90.39997	 17.04813	 61.89987	 38.41547	 38.11984	  0.59779	 92.18895	706.94000	 37.10	
  6.796	-166.229	 90.41561	 17.78991	 61.27329	 33.86885	 42.80045	  0.56800	 92.16872	706.97998	 37.20	
  6.808	-152.311	 90.42007	 19.62234	 59.59243	 29.62758	 47.22134	  0.50680	 92.14958	707.04999	 37.30	
  6.795	-138.383	 90.55521	 22.11440	 56.85220	 25.81734	 51.25687	  0.50973	 92.17201	706.98999	 37.30	
  6.792	-124.591	 90.68008	 25.42002	 53.28434	 23.08782	 54.59267	  0.52353	 92.19492	706.96997	 37.40	
  6.787	-110.754	 90.84609	 29.47807	 49.15211	 21.26253	 56.99616	  0.52041	 92.23795	706.95001	 37.40	
  6.800	-96.985	 90.88879	 34.32093	 44.65732	 20.18275	 58.27560	  0.61117	 92.18884	706.96002	 37.50	
  6.800	-83.015	 91.07824	 39.08749	 40.02000	 20.30415	 58.39020	  0.72520	 92.22755	706.92999	 37.60	
  6.787	-69.246	 91.23775	 43.66734	 35.59561	 21.49694	 57.25538	  0.86094	 92.23952	706.92999	 37.60	
  6.792	-55.409	 91.35016	 47.97853	 31.63957	 23.73801	 54.96634	  0.96095	 92.24622	707.01001	 37.70	
  6.795	-41.617	 91.41624	 51.73528	 28.45248	 26.79692	 51.65873	  1.14141	 92.21257	706.97998	 37.70	
  6.808	-27.689	 91.47484	 54.56865	 25.97196	 30.57294	 47.47898	  1.29654	 92.19616	707.08002	 37.80	
  6.796	-13.771	 91.53461	 56.26448	 24.57429	 34.94678	 42.98405	  1.47735	 92.23888	707.08002	 37.80	
  6.800	  0.000	 91.55225	 56.83438	 23.61647	 39.94678	 38.26411	  1.60323	 92.24248	707.03003	 37.90	
  6.796	 13.771	 91.55014	 56.15466	 23.99845	 44.41731	 33.67679	  1.71297	 92.27922	707.01001	 38.00	
  6.808	 27.689	 91.48576	 54.27160	 25.52850	 49.13681	 29.30789	  1.77441	 92.27239	707.00000	 38.00	
  6.795	 41.617	 91.47207	 51.32720	 27.98520	 53.11203	 25.69964	  1.76324	 92.30849	706.98999	 38.10	
  6.792	 55.409	 91.38141	 47.44245	 31.21439	 56.16767	 22.93672	  1.71612	 92.30007	706.95001	 38.10	
  6.787	 69.246	 91.27866	 42.96384	 35.22289	 58.25566	 20.97946	  1.65686	 92.30464	707.00000	 38.20	
  6.800	 83.015	 91.18581	 38.30511	 39.62920	 59.27159	 19.85875	  1.54287	 92.34955	707.02002	 38.30	
  6.800	 96.985	 91.07690	 33.54295	 44.26316	 59.08615	 19.86872	  1.42822	 92.35583	707.00000	 38.30	
  6.787	110.754	 90.94229	 28.76118	 48.96186	 57.67191	 21.02358	  1.31784	 92.34451	706.98999	 38.40	
  6.792	124.591	 90.81716	 24.75293	 53.35647	 55.27481	 22.92222	  1.16223	 92.35889	707.07001	 38.40	
  6.795	138.383	 90.72653	 21.73458	 56.96336	 51.89917	 25.63748	  0.87164	 92.38964	707.09003	 38.40	
  6.808	152.311	 90.61560	 19.25886	 59.80199	 47.57001	 29.25796	  0.89504	 92.34786	707.01001	 38.50	
  6.796	166.229	 90.60546	 17.86750	 61.43942	 43.05466	 33.64866	  0.79958	 92.36217	706.94000	 38.50	
  8.491	168.704	 89.34132	 12.59439	 65.48920	 42.00566	 32.43889	  0.10544	 92.34280	706.97998	 38.60	
  8.502	157.493	 89.37913	 13.69696	 64.13945	 46.69537	 27.88114	  0.19686	 92.34308	706.96997	 38.60	
  8.494	146.194	 89.52557	 15.67670	 61.77088	 51.30099	 24.07384	  0.23826	 92.41562	706.96002	 38.70	
  8.495	135.039	 89.59550	 18.29104	 58.57360	 55.29358	 20.80770	  0.12150	 92.39599	707.02002	 38.70	
  8.487	123.723	 89.71296	 21.65085	 54.73454	 58.67781	 18.06420	  0.55587	 92.40646	706.94000	 38.80	
  8.492	112.575	 89.82866	 25.30736	 50.59171	 61.17852	 16.11826	  0.55900	 92.41110	707.00000	 38.80	
  8.510	101.220	 89.93872	 29.85995	 45.84087	 62.89952	 14.76175	  0.73741	 92.36400	707.08002	 38.90	
  8.500	 90.000	 90.12733	 34.66522	 41.18969	 63.55973	 14.38243	  0.55838	 92.42345	707.02002	 38.90	
  8.510	 78.780	 90.23339	 39.67063	 36.53577	 63.29445	 14.71911	  0.94823	 92.37561	707.01001	 38.90	
  8.492	 67.425	 90.38756	 44.53455	 32.13793	 61.98558	 15.98042	  1.06720	 92.43900	707.04999	 39.00	
  8.487	 56.277	 90.45897	 48.98874	 28.34719	 59.80374	 17.88996	  1.08538	 92.38761	707.04999	 39.00	
  8.495	 44.961	 90.55585	 53.09086	 25.03407	 56.75337	 20.65863	  1.08678	 92.35894	707.07001	 39.10	
  8.494	 33.806	 90.68032	 56.46280	 22.29740	 53.09932	 24.10497	  1.25586	 92.40944	707.03003	 39.10	
  8.502	 22.507	 90.73275	 59.05571	 20.28796	 48.71830	 27.92351	  1.24726	 92.40498	706.98999	 39.10	
  8.491	 11.296	 90.76920	 60.64699	 19.06982	 43.66328	 32.45429	  1.20204	 92.35051	707.04999	 39.10	
  8.500	  0.000	 90.88342	 61.30667	 18.70631	 39.28609	 37.25357	  1.07877	 92.44635	707.04999	 39.20	
  8.491	-11.296	 90.87886	 60.82458	 19.10916	 34.56680	 42.32761	  0.91819	 92.44041	707.07001	 39.20	
  8.502	-22.507	 90.79454	 59.36987	 20.27033	 29.97207	 47.02078	  0.70528	 92.37064	707.02002	 39.20	
  8.494	-33.806	 90.80088	 56.98210	 22.39120	 26.00157	 51.42381	  0.48811	 92.42328	706.95001	 39.30	
  8.495	-44.961	 90.70510	 53.73962	 25.24234	 22.04793	 55.27065	  0.27436	 92.38827	706.96997	 39.30	
  8.487	-56.277	 90.60562	 49.78961	 28.55482	 19.03551	 58.55668	  0.21960	 92.43642	706.94000	 39.30	
  8.492	-67.425	 90.54799	 45.43367	 32.27650	 16.94264	 60.94983	  0.13932	 92.49578	707.17999	 39.40	
  8.510	-78.780	 90.32690	 40.74984	 36.71179	 15.62627	 62.35254	 -0.09138	 92.43076	707.00000	 39.40	
  8.500	-90.000	 90.20496	 36.02592	 41.36116	 15.12688	 62.77348	 -0.04928	 92.43912	707.06000	 39.40	
  8.510	-101.220	 90.02256	 31.24857	 46.04715	 15.34413	 62.21198	 -0.13693	 92.40724	707.14001	 39.50	
  8.492	-112.575	 89.94839	 26.44037	 50.64784	 16.51418	 60.63727	 -0.15369	 92.44199	707.02002	 39.50	
  8.487	-123.723	 89.81778	 22.47484	 54.83318	 18.73678	 58.19586	 -0.16977	 92.44041	707.06000	 39.50	
  8.495	-135.039	 89.69598	 19.15936	 58.67584	 21.29545	 54.91133	 -0.14617	 92.45358	707.08002	 39.50	
  8.494	-146.194	 89.60935	 16.44228	 61.74349	 24.19668	 50.86115	 -0.12388	 92.45139	707.08002	 39.60	
  8.502	-157.493	 89.54377	 14.28553	 64.11186	 28.07090	 46.55063	 -0.07468	 92.44244	707.19000	 39.60	
  8.491	-168.704	 89.49440	 13.01206	 65.50162	 32.50460	 41.87076	 -0.04089	 92.46142	707.13000	 39.60	
  8.500	180.000	 89.47608	 12.48097	 66.05556	 37.18300	 37.11176	  0.02459	 92.47552	707.13000	 39.60	
 10.200	180.000	 87.98158	  6.73820	 69.71728	 35.86669	 35.82404	 -0.80019	 92.47079	707.13000	 39.70	
 10.191	-170.497	 87.99889	  7.20459	 69.29236	 31.18605	 40.64136	 -1.02559	 92.46867	707.10999	 39.70	
 10.210	-161.034	 88.07490	  8.32009	 68.14219	 26.62273	 45.47119	 -1.02532	 92.49159	707.16998	 39.70	
 10.194	-151.526	 88.15733	 10.08176	 66.17076	 22.79025	 49.93583	 -1.01749	 92.48832	707.10999	 39.70	
 10.190	-142.105	 88.25013	 12.48572	 63.40804	 19.39681	 54.44923	 -0.91714	 92.49441	707.09998	 39.70	
 10.215	-132.646	 88.32243	 15.86392	 60.02080	 16.15524	 58.34550	 -0.94693	 92.52127	707.09003	 39.70	
 10.203	-123.092	 88.42768	 19.39980	 55.96076	 13.31318	 61.53978	 -1.19190	 92.48061	707.08002	 39.80	
 10.192	-113.678	 88.55484	 23.40499	 51.74350	 11.61694	 64.00853	 -0.99251	 92.47565	707.15002	 39.80	
 10.208	-104.249	 88.71487	 27.65327	 47.21239	 10.51657	 65.80144	 -1.16145	 92.49222	707.14001	 39.80	
 10.210	-94.801	 88.81188	 32.55759	 42.44371	  9.85240	 66.66347	 -0.89222	 92.44604	707.15002	 39.80	
 10.210	-85.199	 88.97920	 37.44271	 37.72206	 10.08224	 66.73040	 -0.82897	 92.46990	707.21997	 39.90	
 10.208	-75.751	 89.14070	 42.24371	 33.14898	 10.89822	 65.96806	 -1.07258	 92.49845	707.09998	 39.90	
 10.192	-66.322	 89.23226	 46.78341	 28.98408	 12.28013	 64.36379	 -0.79320	 92.46576	707.13000	 39.90	
 10.203	-56.908	 89.38895	 51.37021	 25.20264	 14.32821	 61.90492	 -0.76118	 92.49822	707.21997	 39.90	
 10.215	-47.354	 89.57314	 55.48268	 21.83817	 17.06068	 58.78277	 -0.53108	 92.53680	707.15002	 40.00	
 10.190	-37.895	 89.70939	 58.92233	 19.04906	 20.40034	 54.99786	 -0.84494	 92.53570	707.10999	 40.00	
 10.194	-28.474	 89.74878	 61.73173	 16.65668	 24.36734	 50.58810	 -0.14334	 92.49538	707.09003	 40.00	
 10.210	-18.966	 89.79752	 63.86300	 14.80608	 28.64824	 45.97345	  0.00363	 92.51905	707.15002	 40.00	
 10.191	 -9.503	 89.85324	 64.92927	 13.49941	 33.32856	 41.16499	 -0.19268	 92.52760	707.15002	 40.00	
 10.200	  0.000	 89.83229	 65.32590	 13.12977	 38.57754	 36.24415	  0.32664	 92.53999	707.20001	 40.00	
 10.191	  9.503	 89.75171	 64.78162	 13.51988	 43.24309	 31.26038	  0.41988	 92.50944	707.17999	 40.10	
 10.210	 18.966	 89.69675	 63.46935	 14.44551	 47.80385	 26.70846	  0.42407	 92.55328	707.06000	 40.10	
 10.194	 28.474	 89.59965	 61.10068	 16.13808	 52.62470	 22.70442	  0.51912	 92.51295	707.10999	 40.10	
 10.190	 37.895	 89.58385	 58.17246	 18.49836	 56.61708	 19.14477	  0.52678	 92.53939	707.10999	 40.20	
 10.215	 47.354	 89.39457	 54.52921	 21.27699	 60.23665	 15.83477	 -0.29393	 92.48066	707.13000	 40.20	
 10.203	 56.908	 89.28844	 50.24438	 24.70375	 63.22691	 12.87535	  0.08683	 92.49763	707.08002	 40.20	
 10.192	 66.322	 89.17221	 45.70586	 28.51649	 65.57502	 10.75711	  0.33700	 92.52671	707.12000	 40.20	
 10.208	 75.751	 89.05547	 40.97672	 32.77219	 67.13921	  9.50526	  0.20104	 92.54806	707.04999	 40.30	
 10.210	 85.199	 88.89632	 36.16101	 37.35343	 67.73608	  8.81814	 -0.25835	 92.50326	707.21002	 40.30	
 10.210	 94.801	 88.73749	 31.24507	 42.38626	 67.55972	  8.63712	 -0.63699	 92.53265	707.16998	 40.30	
 10.208	104.249	 88.53985	 26.18286	 47.15639	 66.47642	  9.30655	 -0.13790	 92.50889	707.09998	 40.30	
 10.192	113.678	 88.39966	 22.07261	 51.71440	 64.53387	 10.61028	 -0.76870	 92.47355	707.15997	 40.30	
 10.203	123.092	 88.29343	 18.12729	 56.04816	 61.94804	 13.13703	 -0.23423	 92.49805	707.10999	 40.30	
 10.215	132.646	 88.15083	 14.21556	 59.95613	 58.63369	 15.79563	 -0.42191	 92.45866	707.19000	 40.30	
 10.190	142.105	 88.11948	 11.42789	 63.40750	 54.71858	 19.00611	 -1.20994	 92.47713	707.13000	 40.40	
 10.194	151.526	 88.06640	  9.30727	 66.16578	 50.19205	 22.55751	 -1.34678	 92.53691	707.14001	 40.40	
 10.210	161.034	 87.98613	  7.78846	 68.21942	 45.67797	 26.51172	 -1.34202	 92.50040	707.21002	 40.40	
 10.191	170.497	 88.03613	  6.96267	 69.39956	 40.91516	 31.07090	 -1.00534	 92.54985	707.15997	 40.40	
 11.899	171.783	 86.12070	  1.50661	 72.95547	 39.26461	 29.47648	 -2.29591	 92.48190	707.14001	 40.40	
 11.890	163.610	 86.14610	  2.33075	 71.88133	 44.15484	 25.17841	 -2.39108	 92.46682	707.21997	 40.50	
 11.889	155.445	 86.20932	  3.50614	 70.13575	 48.86369	 21.03023	 -2.33385	 92.51054	707.07001	 40.50	
 11.909	147.299	 86.24120	  5.22498	 67.75811	 53.43203	 17.21663	 -2.22737	 92.52206	707.17999	 40.50	
 11.902	139.148	 86.30012	  7.57029	 64.69289	 57.74478	 13.75704	 -2.04505	 92.48252	707.09003	 40.50	
 11.894	130.867	 86.39138	 10.53592	 61.02429	 61.53866	 10.40815	 -1.97190	 92.47778	707.14001	 40.50	
 11.897	122.732	 86.55107	 14.06585	 56.98828	 64.84556	  7.64181	 -1.98840	 92.53835	707.07001	 40.60	
 11.903	114.597	 86.63939	 18.30811	 52.70545	 67.47324	  5.64087	 -1.91109	 92.51317	707.14001	 40.60	
 11.893	106.346	 86.83739	 22.64361	 48.12410	 69.56223	  4.27620	 -1.83671	 92.54378	707.21002	 40.60	
 11.892	 98.155	 87.00497	 27.09516	 43.27784	 70.85190	  3.55257	 -1.63735	 92.54609	707.15997	 40.60	
 11.900	 90.000	 87.16333	 31.92315	 38.54633	 71.38800	  3.43273	 -1.62181	 92.52345	707.20001	 40.70	
 11.892	 81.845	 87.36819	 36.96777	 34.02483	 71.22236	  3.86981	 -1.45159	 92.57026	707.15997	 40.70	
 11.893	 73.654	 87.45609	 41.92794	 29.37333	 69.95690	  4.65689	 -1.57247	 92.51751	707.14001	 40.70	
 11.903	 65.403	 87.60775	 46.70070	 24.95615	 68.59267	  6.01360	 -1.55008	 92.53539	707.09003	 40.80	
 11.897	 57.268	 87.76141	 51.30400	 21.16350	 66.35461	  7.91762	 -1.37034	 92.55492	707.12000	 40.80	
 11.894	 49.133	 87.82784	 55.64254	 17.74153	 63.42964	 10.34552	 -1.47733	 92.52831	707.07001	 40.80	
 11.902	 40.852	 87.97545	 59.52203	 14.66405	 59.90366	 13.39661	 -0.44416	 92.55286	707.14001	 40.80	
 11.909	 32.701	 88.07311	 62.77977	 12.22657	 56.06911	 17.27424	 -0.78736	 92.53845	707.15002	 40.80	
 11.889	 24.555	 88.14832	 65.44239	 10.30047	 51.76988	 21.00777	 -0.31327	 92.57251	707.07001	 40.80	
 11.890	 16.390	 88.23577	 67.43049	  8.99107	 46.71310	 25.34183	 -1.08320	 92.55177	707.04999	 40.90	
 11.899	  8.217	 88.29993	 68.72983	  8.13786	 42.15355	 29.90858	 -0.45310	 92.54107	707.21002	 40.90	
 11.900	  0.000	 88.38490	 69.21676	  7.91644	 37.43283	 34.93474	 -0.54859	 92.55647	707.20001	 40.90	
 11.899	 -8.217	 88.41415	 68.91162	  8.25748	 32.55216	 39.90525	 -1.35968	 92.57257	707.26001	 40.90	
 11.890	-16.390	 88.39066	 67.83494	  9.11986	 27.88470	 44.68931	 -0.92356	 92.54415	707.27002	 40.90	
 11.889	-24.555	 88.36868	 66.02869	 10.59852	 23.08120	 49.25159	 -1.56359	 92.54977	707.21997	 40.90	
 11.909	-32.701	 88.29078	 63.67028	 12.43095	 19.20862	 53.99441	 -1.36034	 92.55111	707.14001	 40.90	
 11.902	-40.852	 88.17599	 60.53912	 14.85384	 15.47653	 58.12008	 -1.78806	 92.53691	707.16998	 40.90	
 11.894	-49.133	 88.13094	 56.88945	 17.91092	 12.31215	 61.82454	 -1.83980	 92.57869	707.29999	 40.90	
 11.897	-57.268	 87.94227	 52.67966	 21.31385	  9.69795	 64.94000	 -1.92280	 92.55116	707.19000	 40.90	
 11.903	-65.403	 87.83246	 48.00298	 25.10502	  7.59488	 67.42145	 -1.95809	 92.59306	707.19000	 41.00	
 11.893	-73.654	 87.61322	 43.37454	 29.14354	  6.07639	 69.20991	 -1.86459	 92.52419	707.14001	 40.90	
 11.892	-81.845	 87.46529	 38.51193	 33.62896	  5.04621	 70.36169	 -1.93853	 92.54509	707.13000	 41.00	
 11.900	-90.000	 87.27501	 33.64561	 38.15701	  4.39268	 70.67866	 -1.80649	 92.50482	707.16998	 41.00	
 11.892	-98.155	 87.16053	 28.82562	 43.35697	  4.59721	 70.23486	 -2.02726	 92.55282	707.09998	 41.00	
 11.893	-106.346	 86.98425	 24.22357	 48.13160	  5.39222	 68.98731	 -2.06329	 92.50778	707.09998	 41.00	
 11.903	-114.597	 86.85976	 19.84421	 52.70535	  6.58898	 67.02188	 -2.01087	 92.51423	707.04999	 41.00	
 11.897	-122.732	 86.76131	 15.96342	 57.08487	  8.42749	 64.49578	 -2.00282	 92.51291	707.14001	 41.00	
 11.894	-130.867	 86.62672	 12.43690	 61.13640	 10.69626	 61.33645	 -2.05445	 92.53799	707.14001	 41.00	
 11.902	-139.148	 86.49088	  9.21028	 64.79295	 13.67842	 57.62892	 -2.14739	 92.55462	707.03998	 41.00	
 11.909	-147.299	 86.42239	  6.24689	 67.78807	 17.36831	 53.33908	 -2.22515	 92.53397	707.03998	 41.00	
 11.889	-155.445	 86.33945	  4.27357	 70.12838	 21.14984	 48.68681	 -2.26733	 92.49595	707.12000	 41.00	
 11.890	-163.610	 86.29949	  2.78373	 71.85394	 25.09465	 44.14323	 -2.22892	 92.51050	707.08002	 41.10	
 11.899	-171.783	 86.26755	  1.87394	 72.90639	 29.55727	 39.29994	 -2.26722	 92.53845	706.90997	 41.10	
 11.900	180.000	 86.20428	  1.53583	 73.23733	 34.31669	 34.36683	 -2.17075	 92.49659	707.15002	 41.10	
 13.600	180.000	 84.05848	 -3.77722	 76.53119	 32.47235	 32.66487	 -2.88103	 92.54259	707.03003	 41.10	
 13.608	-172.853	 84.10378	 -3.57765	 76.28632	 27.74880	 37.50664	 -2.79491	 92.53390	707.00000	 41.10	
 13.611	-165.583	 84.12127	 -2.77100	 75.35550	 23.37727	 42.52689	 -2.76633	 92.51971	707.02002	 41.10	
 13.601	-158.353	 84.21146	 -1.40186	 73.81598	 19.16724	 47.23592	 -2.74487	 92.54054	707.08002	 41.10	
 13.609	-151.210	 84.22124	  0.28002	 71.60719	 15.32547	 51.72013	 -2.71150	 92.47742	707.13000	 41.20	
 13.611	-143.999	 84.32119	  2.55027	 68.88051	 11.50716	 56.42241	 -2.59242	 92.48299	707.09003	 41.20	
 13.601	-136.825	 84.51734	  5.32648	 65.70397	  8.31333	 60.49790	 -2.44524	 92.55371	707.04999	 41.20	
 13.596	-129.640	 84.61752	  8.47783	 61.90315	  5.60976	 64.09276	 -2.34999	 92.56073	707.14001	 41.10	
 13.611	-122.431	 84.68105	 12.18411	 57.71988	  3.12295	 67.19242	 -2.28865	 92.50606	707.04999	 41.20	
 13.604	-115.211	 84.80812	 16.22646	 53.34212	  1.38798	 69.91233	 -2.30837	 92.53417	707.08002	 41.20	
 13.595	-108.042	 84.92335	 20.37902	 48.80294	  0.14916	 71.95591	 -2.33596	 92.51556	707.09003	 41.20	
 13.607	-100.793	 84.98480	 24.87122	 43.93263	 -0.87170	 73.37112	 -2.33935	 92.48799	707.06000	 41.20	
 13.601	-93.617	 85.22289	 29.66197	 39.02536	 -1.33381	 74.10426	 -2.26058	 92.53053	707.02002	 41.20	
 13.601	-86.383	 85.34737	 34.56101	 34.36282	 -0.93045	 74.13382	 -2.23310	 92.52641	707.07001	 41.30	
 13.607	-79.207	 85.52493	 39.48799	 30.07380	 -0.11650	 73.57529	 -2.24222	 92.55492	707.02002	 41.30	
 13.595	-71.958	 85.67868	 44.34405	 25.64160	  0.96726	 72.26191	 -2.33992	 92.51037	707.06000	 41.30	
 13.604	-64.789	 85.79928	 48.86280	 21.61378	  2.48479	 70.38170	 -2.41897	 92.49441	707.09003	 41.30	
 13.611	-57.569	 85.95512	 53.74582	 17.77384	  4.47955	 67.77229	 -2.45416	 92.47556	707.03998	 41.30	
 13.596	-50.360	 86.14001	 58.08141	 14.31618	  7.07917	 64.73135	 -2.39337	 92.51967	707.06000	 41.40	
 13.601	-43.175	 86.24711	 61.81571	 11.06752	 10.13974	 61.13291	 -2.37855	 92.51509	707.06000	 41.40	
 13.611	-36.001	 86.34885	 65.11477	  8.46298	 13.51201	 57.19230	 -2.29638	 92.51638	706.96997	 41.40	
 13.609	-28.790	 86.46699	 67.88173	  6.38747	 17.36686	 52.68239	 -2.28754	 92.53695	706.97998	 41.40	
 13.601	-21.647	 86.54337	 70.09601	  4.76685	 21.39363	 47.89649	 -2.30298	 92.52921	707.08002	 41.40	
 13.611	-14.417	 86.54311	 71.71437	  3.55518	 25.91252	 43.10601	 -2.32618	 92.54052	707.07001	 41.40	
 13.608	 -7.147	 86.54076	 72.55789	  2.87508	 30.68507	 38.15203	 -2.30139	 92.50748	707.15002	 41.40	
 13.600	  0.000	 86.53517	 72.78648	  2.69101	 35.44706	 33.26861	 -2.16310	 92.51573	707.04999	 41.40	
 13.608	  7.147	 86.39297	 72.36581	  2.76350	 40.54848	 28.34308	 -2.08108	 92.45438	707.08002	 41.50	
 13.611	 14.417	 86.35863	 71.26645	  3.45985	 45.40891	 23.84743	 -2.05955	 92.51596	707.12000	 41.50	
 13.601	 21.647	 86.26983	 69.40686	  4.63395	 49.96512	 19.43690	 -1.86383	 92.52690	707.12000	 41.50	
 13.609	 28.790	 86.21170	 67.00511	  6.27166	 54.88097	 15.47960	 -2.23053	 92.52701	707.15997	 41.50	
 13.611	 36.001	 86.08131	 64.01797	  8.46154	 59.05659	 11.41610	 -2.38126	 92.48647	707.07001	 41.50	
 13.601	 43.175	 85.97698	 60.49176	 11.03300	 62.86219	  8.14485	 -2.34348	 92.48560	707.04999	 41.50	
 13.596	 50.360	 85.92540	 56.65958	 14.02000	 66.27956	  5.35468	 -2.49017	 92.56412	707.10999	 41.50	
 13.611	 57.569	 85.76851	 52.22429	 17.47047	 69.19061	  3.00936	 -2.49739	 92.51761	707.13000	 41.60	
 13.604	 64.789	 85.61111	 47.50142	 21.17794	 71.55608	  1.08525	 -2.65159	 92.52007	707.07001	 41.60	
 13.595	 71.958	 85.47983	 42.77301	 25.63604	 73.30794	 -0.44862	 -2.79482	 92.54968	707.15002	 41.60	
 13.607	 79.207	 85.25960	 37.75197	 29.96039	 74.44355	 -1.61661	 -2.83429	 92.48352	707.15997	 41.60	
 13.601	 86.383	 85.15058	 32.83432	 34.45766	 74.92216	 -2.00874	 -2.75042	 92.52087	707.07001	 41.60	
 13.601	 93.617	 84.92914	 28.03348	 39.06518	 74.72569	 -2.01039	 -2.80475	 92.49177	707.03998	 41.60	
 13.607	100.793	 84.78479	 23.27853	 43.87469	 73.94781	 -1.75815	 -2.90573	 92.53013	707.02002	 41.60	
 13.595	108.042	 84.62135	 18.80835	 48.72513	 72.39322	 -0.77975	 -2.91162	 92.50263	707.04999	 41.60	
 13.604	115.211	 84.49007	 14.64973	 53.36316	 70.29857	  0.65458	 -2.97804	 92.51958	707.01001	 41.70	
 13.611	122.431	 84.40086	 10.57903	 57.73061	 67.54781	  2.63120	 -3.05790	 92.52951	707.06000	 41.70	
 13.596	129.640	 84.27442	  6.84256	 61.84618	 64.26978	  5.03635	 -3.02609	 92.50117	707.13000	 41.70	
 13.601	136.825	 84.20965	  3.78423	 65.56860	 60.63003	  8.32294	 -3.04909	 92.56464	707.06000	 41.70	
 13.611	143.999	 84.12342	  1.33607	 68.81307	 56.47937	 11.75262	 -3.14615	 92.53214	707.08002	 41.70	
 13.609	151.210	 84.08623	 -0.61601	 71.58688	 51.76145	 15.48995	 -3.23077	 92.54082	707.08002	 41.70	
 13.601	158.353	 84.07500	 -2.15249	 73.77285	 47.23908	 19.37086	 -3.28283	 92.56312	707.08002	 41.70	
 13.611	165.583	 83.97980	 -3.33503	 75.34631	 42.35806	 23.57554	 -3.24838	 92.52119	707.09003	 41.70	
 13.608	172.853	 83.99778	 -3.90685	 76.23850	 37.39986	 28.05915	 -3.03211	 92.52280	707.17999	 41.70	
 15.298	173.587	 81.60191	 -9.19736	 79.20477	 35.32048	 26.36249	 -3.55214	 92.54478	707.14001	 41.70	
 15.291	167.167	 81.61887	 -8.86055	 78.45300	 40.31831	 21.91218	 -3.74020	 92.58772	707.12000	 41.70	
 15.307	160.676	 81.58662	 -7.95111	 76.98571	 45.23319	 17.54359	 -3.92242	 92.54432	707.08002	 41.70	
 15.300	154.261	 81.60114	 -6.55144	 75.03123	 49.87180	 13.52044	 -3.94492	 92.53748	707.15002	 41.80	
 15.288	147.854	 81.61367	 -4.76711	 72.46276	 54.56411	  9.74391	 -3.96747	 92.49249	707.09998	 41.80	
 15.293	141.428	 81.67813	 -2.64157	 69.50603	 58.99607	  6.27282	 -3.92419	 92.50166	707.13000	 41.80	
 15.299	134.985	 81.78302	 -0.11235	 66.07128	 63.01365	  3.13498	 -3.87857	 92.53978	707.09003	 41.80	
 15.305	128.583	 81.91341	  3.07591	 62.25343	 66.65662	  0.24283	 -3.92173	 92.57042	707.10999	 41.80	
 15.309	122.142	 82.05087	  6.50449	 58.08836	 69.96944	 -2.08842	 -3.98957	 92.56273	707.15002	 41.80	
 15.304	115.711	 82.13536	 10.29506	 53.67478	 72.71910	 -4.11643	 -3.95612	 92.53503	707.04999	 41.80	
 15.297	109.291	 82.20632	 14.60135	 49.04157	 74.86587	 -5.78873	 -3.85356	 92.52543	707.08002	 41.80	
 15.293	102.897	 82.36471	 19.05843	 44.30236	 76.51412	 -6.91667	 -3.81026	 92.55568	707.12000	 41.80	
 15.293	 96.458	 82.53554	 23.68557	 39.34589	 77.55545	 -7.48288	 -3.80937	 92.51268	707.02002	 41.80	
 15.300	 90.000	 82.77658	 28.45545	 34.85733	 78.06570	 -7.29821	 -3.73614	 92.56213	707.08002	 41.80	
 15.293	 83.542	 82.90366	 33.28321	 30.40911	 77.94872	 -7.18576	 -3.78178	 92.49623	707.03003	 41.80	
 15.293	 77.103	 82.99856	 38.28627	 25.92034	 77.23138	 -6.70819	 -3.78531	 92.49357	707.02002	 41.80	
 15.297	 70.709	 83.16273	 43.23418	 21.68866	 76.01105	 -5.65057	 -3.72186	 92.51154	707.00000	 41.80	
 15.304	 64.289	 83.37705	 48.06100	 17.63582	 74.20525	 -4.14427	 -3.57184	 92.54989	707.09998	 41.80	
 15.309	 57.858	 83.50909	 52.78693	 13.85070	 71.80042	 -2.18184	 -3.46611	 92.54311	707.09003	 41.90	
 15.305	 51.417	 83.69054	 57.29407	 10.42805	 68.90125	  0.24959	 -3.39519	 92.57623	707.12000	 41.80	
 15.299	 45.015	 83.82748	 61.26472	  7.40924	 65.41251	  3.04286	 -3.30221	 92.51871	707.06000	 41.90	
 15.293	 38.572	 83.96332	 64.88385	  4.77698	 61.83400	  6.07326	 -3.23068	 92.51704	707.03998	 41.90	
 15.288	 32.146	 84.04661	 68.12401	  2.51587	 57.75711	  9.56037	 -3.12019	 92.53092	706.96002	 41.90	
 15.300	 25.739	 84.05833	 70.85909	  0.54521	 53.32354	 13.48186	 -2.97492	 92.47330	706.98999	 41.90	
 15.307	 19.324	 84.18647	 73.07793	 -0.89577	 48.33714	 17.68921	 -2.82080	 92.54491	707.00000	 41.90	
 15.291	 12.833	 84.30101	 74.70544	 -1.91067	 43.85766	 22.17488	 -2.81732	 92.54705	706.90002	 41.90	
 15.298	  6.413	 84.37392	 75.72747	 -2.48294	 39.00947	 26.78508	 -2.83184	 92.55598	706.91998	 41.90	
 15.300	  0.000	 84.42374	 76.10668	 -2.55596	 34.20264	 31.27956	 -2.84947	 92.53185	706.96997	 41.90	
 15.298	 -6.413	 84.49378	 75.97453	 -2.34041	 29.36870	 36.19849	 -2.89011	 92.56937	707.02002	 41.90	
 15.291	-12.833	 84.48483	 75.19157	 -1.76840	 24.15167	 41.34651	 -2.88405	 92.55901	707.00000	 41.90	
 15.307	-19.324	 84.40220	 73.80681	 -0.84695	 19.83765	 46.17015	 -2.84636	 92.51513	706.90002	 41.90	
 15.300	-25.739	 84.40724	 71.90593	  0.50693	 15.74014	 50.86274	 -2.74680	 92.58299	706.91998	 41.90	
 15.288	-32.146	 84.26496	 69.28616	  2.36659	 11.83077	 55.59512	 -2.65703	 92.49387	706.90997	 42.00	
 15.293	-38.572	 84.17845	 66.17165	  4.61463	  8.22874	 59.87777	 -2.66670	 92.51827	706.97998	 42.00	
 15.299	-45.015	 84.10525	 62.74883	  7.29435	  4.94669	 63.82349	 -2.67060	 92.54133	707.01001	 42.00	
 15.305	-51.417	 83.92624	 58.85976	 10.36368	  2.15268	 67.26048	 -2.62884	 92.50566	706.84998	 42.00	
 15.309	-57.858	 83.71809	 54.45960	 13.77575	 -0.39283	 70.44463	 -2.69775	 92.48905	706.96002	 42.00	
 15.304	-64.289	 83.57225	 49.57579	 17.50816	 -2.42554	 72.97775	 -2.63247	 92.48612	706.83002	 42.00	
 15.297	-70.709	 83.44195	 44.98746	 21.51941	 -3.99396	 74.89928	 -2.56906	 92.49642	706.79999	 42.00	
 15.293	-77.103	 83.27731	 40.16541	 25.68069	 -5.09025	 76.26353	 -2.42288	 92.48611	706.83002	 42.00	
 15.293	-83.542	 83.13161	 35.17622	 30.06563	 -5.73803	 77.05015	 -2.39409	 92.46122	706.82001	 42.00	
 15.300	-90.000	 82.94652	 30.21943	 34.88297	 -6.25235	 77.31799	 -2.30488	 92.44891	706.85999	 42.00	
 15.293	-96.458	 82.79030	 25.52800	 39.46342	 -6.56855	 76.95169	 -2.27492	 92.45974	706.84998	 42.00	
 15.293	-102.897	 82.65907	 20.87679	 44.42904	 -5.93891	 75.98872	 -2.31385	 92.46506	706.87000	 42.00	
 15.297	-109.291	 82.54431	 16.61227	 49.15694	 -4.96302	 74.51572	 -2.41113	 92.50484	706.95001	 42.00	
 15.304	-115.711	 82.41695	 12.48151	 53.70500	 -3.64676	 72.42992	 -2.36646	 92.47684	706.83002	 42.00	
 15.309	-122.142	 82.29254	  8.68322	 58.19195	 -1.96467	 69.71718	 -2.41532	 92.48943	706.90997	 42.00	
 15.305	-128.583	 82.17623	  5.17646	 62.39421	  0.10004	 66.62011	 -2.48067	 92.50342	707.02002	 42.10	
 15.299	-134.985	 82.03713	  1.96774	 66.24031	  2.75775	 63.02622	 -2.53376	 92.44865	707.12000	 42.10	
 15.293	-141.428	 82.00260	 -1.08416	 69.60957	  5.99974	 59.05296	 -2.68176	 92.45736	706.97998	 42.10	
 15.288	-147.854	 81.90863	 -3.47870	 72.54964	  9.33613	 54.66551	 -2.85025	 92.46288	707.01001	 42.10	
 15.300	-154.261	 81.80457	 -5.43048	 75.03864	 13.22941	 50.03136	 -2.92863	 92.46158	706.92999	 42.10	
 15.307	-160.676	 81.66352	 -7.19769	 76.93525	 17.25125	 45.34492	 -3.00108	 92.38714	707.07001	 42.10	
 15.291	-167.167	 81.64695	 -8.46001	 78.35432	 21.53810	 40.47786	 -3.06957	 92.47248	707.06000	 42.10	
 15.298	-173.587	 81.62861	 -9.01369	 79.18364	 26.00753	 35.48997	 -3.18679	 92.49841	706.96002	 42.10	
 15.300	180.000	 81.45635	 -9.10030	 79.34174	 30.30256	 30.73231	 -3.38651	 92.40938	707.02002	 42.10	
 17.000	180.000	 78.79754	-14.69350	 82.05080	 28.28478	 28.59276	 -3.60620	 92.44302	706.90002	 42.10	
 16.990	-174.179	 78.80315	-14.69527	 81.82792	 23.93782	 33.15618	 -3.35050	 92.42700	706.94000	 42.10	
 17.009	-168.383	 78.83822	-14.35241	 81.18480	 19.46009	 38.06979	 -3.17825	 92.48606	706.95001	 42.10	
 17.000	-162.596	 78.93946	-13.20741	 79.93285	 15.36525	 43.03856	 -3.01797	 92.46469	707.00000	 42.20	
 16.990	-156.759	 79.04658	-11.48243	 78.14034	 11.25370	 47.98307	 -2.94219	 92.44523	706.98999	 42.20	
 16.995	-150.919	 79.14346	 -9.23703	 75.87608	  7.14433	 52.60363	 -2.85545	 92.42648	706.97998	 42.20	
 16.988	-145.161	 79.32365	 -7.17995	 73.22550	  3.85245	 57.06749	 -2.72175	 92.49959	707.06000	 42.20	
 17.014	-139.343	 79.32250	 -4.85046	 70.01128	  0.66726	 61.39121	 -2.61923	 92.47093	707.07001	 42.20	
 17.007	-133.546	 79.50583	 -2.04756	 66.51725	 -2.16878	 65.36574	 -2.56513	 92.53946	706.96002	 42.20	
 17.001	-127.699	 79.57786	  1.10816	 62.45312	 -4.53549	 68.71469	 -2.46685	 92.46578	707.07001	 42.20	
 17.006	-121.937	 79.70345	  4.48432	 58.24320	 -6.73827	 71.91901	 -2.35303	 92.48841	706.96997	 42.10	
 17.002	-116.134	 79.76977	  8.57401	 53.82355	 -8.68752	 74.59169	 -2.25623	 92.48140	707.03003	 42.20	
 17.001	-110.310	 79.88931	 12.62457	 49.23116	-10.09725	 76.79334	 -2.27274	 92.51208	707.01001	 42.20	
 16.988	-104.517	 79.99891	 16.96501	 44.42417	-10.97891	 78.37856	 -2.24089	 92.48590	707.09998	 42.20	
 17.008	-98.662	 80.10630	 21.40979	 39.42661	-11.82588	 79.59197	 -2.19211	 92.51256	707.09003	 42.20	
 16.996	-92.909	 80.23341	 25.99059	 34.73753	-11.82658	 80.11302	 -2.18636	 92.44137	707.09003	 42.20	
 16.996	-87.091	 80.39109	 30.58588	 30.47775	-11.55120	 80.23231	 -2.30857	 92.48151	707.15002	 42.20	
 17.012	-81.253	 80.55398	 35.49377	 26.04559	-11.17930	 79.85603	 -2.36252	 92.52536	707.14001	 42.20	
 16.988	-75.483	 80.74311	 40.56234	 21.70729	-10.26387	 78.82385	 -2.41835	 92.53512	707.09998	 42.20	
 17.001	-69.690	 80.87803	 45.45898	 17.48858	 -8.97368	 77.29367	 -2.48986	 92.51417	707.14001	 42.20	
 17.002	-63.866	 81.05511	 50.16819	 13.46237	 -7.33560	 75.28141	 -2.53108	 92.52364	707.00000	 42.20	
 17.006	-58.063	 81.20112	 54.94313	  9.71524	 -5.46142	 72.75078	 -2.56502	 92.48483	706.98999	 42.20	
 17.001	-52.301	 81.33824	 59.30490	  6.36447	 -3.17985	 69.69971	 -2.63223	 92.47379	707.02002	 42.20	
 17.007	-46.454	 81.50083	 63.26793	  3.38755	 -0.33338	 66.24363	 -2.72017	 92.48892	707.02002	 42.20	
 17.014	-40.657	 81.62643	 66.85442	  0.70710	  2.67689	 62.48928	 -2.77947	 92.52840	707.03998	 42.20	
 16.988	-34.839	 81.78223	 70.32539	 -1.60032	  6.15497	 58.28115	 -2.83625	 92.52621	707.04999	 42.20	
 16.995	-29.081	 81.82163	 73.02604	 -3.53127	  9.76694	 53.77502	 -2.93167	 92.48143	707.06000	 42.20	
 16.990	-23.241	 81.92589	 75.29121	 -5.17168	 13.86977	 49.04328	 -3.07135	 92.48140	707.03998	 42.20	
 17.000	-17.404	 81.97884	 76.99386	 -6.30512	 18.44108	 44.27188	 -3.20577	 92.45958	706.97998	 42.20	
 17.009	-11.617	 82.01732	 78.24186	 -7.08235	 22.58045	 39.39849	 -3.25798	 92.49308	707.07001	 42.20	
 16.990	 -5.821	 82.02692	 78.89387	 -7.51125	 27.11939	 34.26971	 -3.35989	 92.47447	707.01001	 42.20	
 17.000	  0.000	 82.01073	 79.07831	 -7.73432	 32.00105	 29.40086	 -3.44360	 92.50887	706.90002	 42.20	
 16.990	  5.821	 81.93290	 78.69509	 -7.58391	 37.09340	 24.90615	 -3.52083	 92.47515	706.90997	 42.30	
 17.009	 11.617	 81.80566	 77.78993	 -7.29885	 41.97171	 20.30559	 -3.61101	 92.48662	706.98999	 42.30	
 17.000	 17.404	 81.70010	 76.36176	 -6.42167	 46.71218	 15.88280	 -3.65515	 92.49460	706.90997	 42.30	
 16.990	 23.241	 81.64465	 74.40150	 -5.05171	 51.40747	 11.83781	 -3.72555	 92.51186	706.98999	 42.30	
 16.995	 29.081	 81.57465	 71.87542	 -3.31718	 56.03678	  7.44444	 -3.93874	 92.50092	706.96002	 42.30	
 16.988	 34.839	 81.44053	 68.84023	 -1.34978	 60.27669	  3.91958	 -4.08456	 92.47796	706.96002	 42.30	
 17.014	 40.657	 81.24813	 65.46730	  0.85281	 64.11780	  0.66161	 -4.25199	 92.44955	706.98999	 42.30	
 17.007	 46.454	 81.16747	 61.66209	  3.54665	 67.81374	 -2.17146	 -4.33676	 92.48516	706.94000	 42.30	
 17.001	 52.301	 81.05575	 57.52524	  6.44377	 71.15623	 -4.81078	 -4.38296	 92.47164	707.04999	 42.30	
 17.006	 58.063	 80.92802	 52.99820	  9.67107	 73.99200	 -7.06885	 -4.47215	 92.49479	706.97998	 42.30	
 17.002	 63.866	 80.77286	 48.29831	 13.30102	 76.40163	 -8.92838	 -4.61621	 92.49644	707.08002	 42.30	
 17.001	 69.690	 80.58412	 43.43426	 17.29263	 78.19675	-10.44231	 -4.66101	 92.45757	707.01001	 42.30	
 16.988	 75.483	 80.45695	 38.50282	 21.43917	 79.60354	-11.59709	 -4.72881	 92.46427	706.92999	 42.30	
 17.012	 81.253	 80.22696	 33.45487	 25.70493	 80.55268	-12.51570	 -4.76882	 92.45808	707.06000	 42.30	
 16.996	 87.091	 80.12307	 28.67162	 30.62047	 80.87585	-12.59644	 -4.73862	 92.45794	707.13000	 42.30	
 16.996	 92.909	 79.90240	 24.11599	 34.90040	 80.66393	-12.83296	 -4.75191	 92.44331	707.07001	 42.30	
 17.008	 98.662	 79.67101	 19.44216	 39.49498	 79.99109	-12.84496	 -4.78177	 92.45534	706.95001	 42.30	
 16.988	104.517	 79.49735	 14.99912	 44.38638	 78.62445	-12.02806	 -4.79572	 92.39028	707.02002	 42.30	
 17.001	110.310	 79.35136	 10.79965	 49.17832	 76.95010	-10.86919	 -4.79685	 92.39962	707.06000	 42.30	
 17.002	116.134	 79.27982	  6.37018	 53.83934	 74.73093	 -9.02601	 -4.84630	 92.43121	707.10999	 42.40	
 17.006	121.937	 79.09074	  2.53016	 58.14123	 71.91524	 -7.14386	 -4.87028	 92.37570	707.09998	 42.40	
 17.001	127.699	 79.08023	 -0.78528	 62.36317	 68.67565	 -4.74742	 -4.82363	 92.41779	707.10999	 42.40	
 17.007	133.546	 78.97207	 -3.70853	 66.31656	 65.01204	 -2.17721	 -4.77302	 92.35754	707.09003	 42.40	
 17.014	139.343	 78.93887	 -6.38973	 69.95462	 61.09075	  0.66358	 -4.70831	 92.42708	707.13000	 42.40	
 16.988	145.161	 78.73433	 -8.86951	 72.97435	 56.79105	  3.99647	 -4.60613	 92.34102	707.09003	 42.40	
 16.995	150.919	 78.76680	-10.78311	 75.75395	 52.22445	  7.67091	 -4.52143	 92.44725	707.06000	 42.40	
 16.990	156.759	 78.70454	-12.33172	 78.00719	 47.52505	 11.60365	 -4.38720	 92.40279	706.91998	 42.40	
 17.000	162.596	 78.64481	-13.64280	 79.74674	 42.67118	 15.67453	 -4.30869	 92.38850	706.96002	 42.40	
 17.009	168.383	 78.65041	-14.41725	 81.02556	 37.75653	 20.01671	 -4.07630	 92.37179	707.03998	 42.40	
 16.990	174.179	 78.67664	-14.62643	 81.72283	 32.67020	 24.51162	 -3.88560	 92.35835	707.03003	 42.40	
 18.709	174.675	 75.59496	-20.23222	 84.22334	 30.08187	 22.38798	 -4.00169	 92.40268	707.01001	 42.40	
 18.703	169.441	 75.62258	-19.90025	 83.58635	 34.92608	 17.89099	 -4.18484	 92.43572	706.89001	 42.40	
 18.691	164.085	 75.60590	-19.14287	 82.32184	 40.05735	 13.42345	 -4.40602	 92.36877	707.04999	 42.40	
 18.706	158.818	 75.62460	-17.99028	 80.73446	 44.94610	  9.28368	 -4.55991	 92.37000	707.07001	 42.40	
 18.695	153.537	 75.72591	-16.36521	 78.65868	 49.68290	  5.19450	 -4.73855	 92.36261	707.13000	 42.40	
 18.704	148.255	 75.79594	-14.50084	 76.21696	 54.23542	  1.79220	 -4.92882	 92.35502	707.03998	 42.40	
 18.698	142.952	 75.93301	-12.41584	 73.33172	 58.79447	 -1.47469	 -4.99817	 92.37830	707.01001	 42.50	
 18.699	137.625	 76.04994	-10.00316	 70.07532	 63.08205	 -4.51135	 -5.15291	 92.43610	707.07001	 42.50	
 18.705	132.343	 76.09805	 -7.41450	 66.32658	 66.89261	 -7.37130	 -5.23173	 92.37516	707.00000	 42.50	
 18.713	127.067	 76.14123	 -4.49936	 62.29570	 70.49495	 -9.82456	 -5.31275	 92.35237	707.03003	 42.50	
 18.700	121.794	 76.31769	 -1.22241	 58.20115	 73.75533	-11.90905	 -5.41848	 92.40561	707.07001	 42.50	
 18.698	116.504	 76.36948	  2.30431	 53.84457	 76.47469	-13.68109	 -5.44418	 92.36295	706.90997	 42.50	
 18.707	111.165	 76.46448	  6.17791	 49.09703	 78.85349	-15.45709	 -5.52351	 92.37516	707.03998	 42.50	
 18.690	105.863	 76.59094	 10.33997	 44.27609	 80.71159	-16.09245	 -5.50229	 92.41535	707.09003	 42.50	
 18.696	100.583	 76.73345	 14.76700	 39.52191	 82.12444	-17.05206	 -5.50976	 92.45050	707.01001	 42.50	
 18.700	 95.309	 76.83723	 19.50610	 34.63846	 83.02791	-17.66581	 -5.51375	 92.43141	707.04999	 42.50	
 18.700	 90.000	 76.98457	 24.28468	 29.94216	 83.40842	-17.80130	 -5.58375	 92.39689	707.07001	 42.50	
 18.700	 84.691	 77.11911	 28.64677	 25.86955	 83.31176	-17.47219	 -5.56956	 92.35978	707.04999	 42.50	
 18.696	 79.417	 77.27901	 33.39905	 21.71293	 82.77193	-17.38186	 -5.45491	 92.36584	707.06000	 42.50	
 18.690	 74.137	 77.49889	 38.45680	 17.46435	 81.75047	-16.91354	 -5.43647	 92.40538	707.07001	 42.50	
 18.707	 68.835	 77.62848	 43.43814	 13.34601	 80.23891	-15.62008	 -5.35351	 92.36060	707.03998	 42.60	
 18.698	 63.496	 77.84406	 48.39893	  9.49258	 78.20469	-13.89198	 -5.25300	 92.35598	706.97998	 42.60	
 18.700	 58.206	 77.98646	 53.07581	  5.87718	 75.81255	-11.97539	 -5.19745	 92.37029	707.03998	 42.60	
 18.713	 52.933	 78.10808	 57.61442	  2.64519	 73.08688	 -9.87196	 -5.11315	 92.38161	707.06000	 42.60	
 18.705	 47.657	 78.22882	 61.82952	 -0.18471	 69.69590	 -7.35111	 -5.03958	 92.33553	707.16998	 42.60	
 18.699	 42.375	 78.47952	 65.75037	 -2.69279	 66.00856	 -4.35484	 -4.87697	 92.39084	707.06000	 42.60	
 18.698	 37.048	 78.60919	 69.30955	 -4.94916	 62.27372	 -1.26845	 -4.80374	 92.41371	707.09003	 42.60	
 18.704	 31.745	 78.67567	 72.47157	 -6.95981	 58.24356	  1.87956	 -4.66942	 92.41414	707.08002	 42.60	
 18.695	 26.463	 78.80149	 75.20312	 -8.53825	 53.75979	  5.54242	 -4.41758	 92.42784	707.15997	 42.60	
 18.706	 21.182	 78.84875	 77.46382	-10.13296	 48.97267	  9.39678	 -4.24933	 92.40176	707.04999	 42.60	
 18.691	 15.915	 78.84898	 79.21941	-11.58068	 44.53537	 13.55813	 -4.10138	 92.36244	707.15002	 42.60	
 18.703	 10.559	 78.92529	 80.62706	-12.54937	 39.59879	 18.31492	 -3.92195	 92.35725	707.06000	 42.60	
 18.709	  5.325	 79.04823	 81.49907	-12.84772	 34.79986	 22.80354	 -3.76807	 92.39767	707.08002	 42.60	
 18.700	  0.000	 79.12634	 81.80627	-12.68745	 30.23985	 27.23111	 -3.63530	 92.37448	707.15997	 42.60	
 18.709	 -5.325	 79.08988	 81.70055	-12.82674	 25.31216	 31.80791	 -3.43912	 92.35781	707.16998	 42.60	
 18.703	-10.559	 79.19041	 81.06891	-12.51650	 20.96669	 37.01023	 -3.39494	 92.39798	707.13000	 42.60	
 18.691	-15.915	 79.15215	 79.92110	-12.10271	 16.47542	 41.83044	 -3.23273	 92.36334	707.09998	 42.70	
 18.706	-21.182	 79.07415	 78.35785	-11.01339	 11.80312	 46.73351	 -3.02588	 92.37305	707.02002	 42.60	
 18.695	-26.463	 79.02486	 76.30459	 -9.31936	  7.80400	 51.44007	 -2.93905	 92.35700	707.07001	 42.70	
 18.704	-31.745	 78.96871	 73.81828	 -7.42819	  4.07896	 55.99866	 -2.79275	 92.37307	707.08002	 42.60	
 18.698	-37.048	 78.87637	 70.75455	 -5.28250	  0.62449	 60.46433	 -2.76260	 92.35113	707.06000	 42.70	
 18.699	-42.375	 78.74026	 67.20647	 -2.98119	 -2.51057	 64.54996	 -2.64057	 92.33912	707.07001	 42.70	
 18.705	-47.657	 78.67288	 63.56246	 -0.34556	 -5.16506	 68.15345	 -2.63384	 92.37199	707.23999	 42.70	
 18.713	-52.933	 78.59963	 59.49773	  2.62602	 -7.59951	 71.64585	 -2.49760	 92.42760	707.09003	 42.70	
 18.700	-58.206	 78.42245	 55.03183	  5.86394	 -9.93179	 74.64175	 -2.42912	 92.40849	707.19000	 42.70	
 18.698	-63.496	 78.20177	 50.29010	  9.27462	-12.04783	 77.15910	 -2.31485	 92.41035	707.10999	 42.70	
 18.707	-68.835	 77.97872	 45.47008	 13.14006	-13.81996	 79.26653	 -2.27102	 92.37535	707.26001	 42.70	
 18.690	-74.137	 77.83038	 40.52937	 17.24699	-15.13309	 80.88073	 -2.19871	 92.38792	707.17999	 42.70	
 18.696	-79.417	 77.58883	 35.36986	 21.17764	-16.32363	 81.99618	 -2.18118	 92.37804	707.07001	 42.70	
 18.700	-84.691	 77.39318	 30.27485	 25.70355	-17.09306	 82.58955	 -2.09582	 92.31940	707.13000	 42.70	
 18.700	-90.000	 77.23873	 25.87599	 30.12731	-17.62865	 82.81264	 -1.97966	 92.34840	707.14001	 42.70	
 18.700	-95.309	 77.07323	 21.54302	 34.34147	-17.93099	 82.52714	 -1.94975	 92.33220	707.09003	 42.70	
 18.696	-100.583	 77.02415	 17.11908	 39.17460	-17.27714	 81.75211	 -1.91046	 92.37186	707.13000	 42.70	
 18.690	-105.863	 76.93966	 12.89824	 44.18265	-16.21795	 80.39906	 -1.95410	 92.37821	707.20001	 42.70	
 18.707	-111.165	 76.84628	  8.58300	 49.07172	-15.09163	 78.66015	 -2.01921	 92.40816	707.21997	 42.70	
 18.698	-116.504	 76.74763	  4.65115	 53.76022	-13.45889	 76.44418	 -2.04627	 92.35250	707.21002	 42.70	
 18.700	-121.794	 76.68530	  0.97762	 58.26384	-11.65879	 73.85242	 -2.08256	 92.39900	707.21997	 42.70	
 18.713	-127.067	 76.59879	 -2.66634	 62.52755	 -9.65565	 70.71554	 -2.19696	 92.36972	707.22998	 42.70	
 18.705	-132.343	 76.52153	 -5.59917	 66.52596	 -7.28919	 67.37041	 -2.28332	 92.39818	707.22998	 42.70	
 18.699	-137.625	 76.39373	 -8.27498	 70.09400	 -4.66558	 63.62725	 -2.42751	 92.33816	707.12000	 42.70	
 18.698	-142.952	 76.34070	-10.72783	 73.39542	 -1.74454	 59.45333	 -2.48127	 92.37009	707.23999	 42.70	
 18.704	-148.255	 76.24972	-13.10059	 76.33141	  1.43206	 54.63951	 -2.52338	 92.38832	707.21997	 42.70	
 18.695	-153.537	 75.99606	-15.35350	 78.74059	  4.66505	 50.30865	 -2.58213	 92.35992	707.26001	 42.70	
 18.706	-158.818	 75.89677	-17.49638	 80.82137	  8.74603	 45.59665	 -2.67462	 92.37309	707.19000	 42.70	
 18.691	-164.085	 75.78786	-18.78325	 82.36377	 13.03909	 40.69698	 -2.78892	 92.35600	707.25000	 42.70	
 18.703	-169.441	 75.66911	-19.85096	 83.54896	 17.26522	 35.63018	 -2.95004	 92.37476	707.17999	 42.70	
 18.709	-174.675	 75.58581	-20.48400	 84.20043	 21.56109	 30.90307	 -3.24031	 92.34911	707.26001	 42.70	
 18.700	180.000	 75.60699	-20.32454	 84.38409	 25.55560	 26.84037	 -3.68858	 92.36482	707.25000	 42.80	
 20.400	180.000	 72.24570	-25.77686	 86.43347	 22.88586	 24.35804	 -3.58125	 92.32743	707.13000	 42.80	
 20.401	-175.153	 72.29877	-25.78776	 86.26768	 19.16973	 28.17420	 -3.09625	 92.30964	707.20001	 42.80	
 20.407	-170.264	 72.33719	-25.24173	 85.70305	 14.87383	 32.98083	 -2.79328	 92.34558	707.19000	 42.80	
 20.410	-165.423	 72.40006	-24.28799	 84.69559	 10.62671	 37.71343	 -2.67350	 92.34164	707.29999	 42.80	
 20.392	-160.496	 72.65269	-22.97830	 83.28153	  6.45670	 42.89328	 -2.48863	 92.37195	707.17999	 42.80	
 20.401	-155.705	 72.78933	-21.28904	 81.43538	  2.39617	 47.62727	 -2.51301	 92.32661	707.13000	 42.80	
 20.405	-150.835	 72.92216	-19.33484	 79.19318	 -0.88394	 52.23150	 -2.39228	 92.37069	707.17999	 42.80	
 20.397	-145.903	 73.14568	-16.94986	 76.43254	 -3.99976	 56.88605	 -2.35227	 92.39828	707.17999	 42.80	
 20.392	-141.062	 73.25159	-14.51641	 73.32646	 -7.01673	 61.40565	 -2.30888	 92.40128	707.15002	 42.80	
 20.396	-136.227	 73.36317	-11.99297	 70.02819	 -9.66941	 65.36394	 -2.27629	 92.38586	707.17999	 42.80	
 20.408	-131.372	 73.41056	 -9.24071	 66.17404	-12.14753	 68.85516	 -2.20488	 92.33833	707.14001	 42.80	
 20.410	-126.511	 73.48684	 -6.35208	 62.06938	-14.69173	 72.41073	 -2.11139	 92.39798	707.20001	 42.80	
 20.400	-121.604	 73.53564	 -3.01164	 57.69872	-16.59410	 75.53613	 -2.02671	 92.32220	707.25000	 42.80	
 20.403	-116.741	 73.54498	  0.39313	 53.32668	-18.32421	 78.10879	 -1.96146	 92.27496	707.25000	 42.80	
 20.413	-111.900	 73.62862	  4.12808	 48.67714	-19.96153	 80.39953	 -1.95365	 92.31242	707.20001	 42.80	
 20.398	-107.004	 73.78136	  8.26357	 43.83077	-21.12557	 82.22527	 -1.91903	 92.32257	707.26001	 42.80	
 20.394	-102.132	 73.89233	 12.60421	 38.80068	-22.15815	 83.65028	 -1.80832	 92.36055	707.15002	 42.80	
 20.403	-97.332	 73.93100	 16.96622	 34.01360	-22.90302	 84.52000	 -1.80534	 92.27338	707.21002	 42.80	
 20.392	-92.440	 74.09888	 21.82703	 29.32912	-23.15670	 85.06927	 -1.74975	 92.32737	707.16998	 42.80	
 20.392	-87.560	 74.24097	 25.90049	 25.45003	-22.79317	 85.16546	 -1.91635	 92.41631	707.22998	 42.80	
 20.403	-82.668	 74.37415	 30.41019	 21.27911	-22.17421	 84.80012	 -1.99329	 92.36386	707.17999	 42.80	
 20.394	-77.868	 74.54783	 35.40681	 17.10661	-21.26403	 84.00859	 -2.04912	 92.33302	707.14001	 42.80	
 20.398	-72.996	 74.70729	 40.40533	 12.95529	-20.41676	 82.81194	 -2.06662	 92.34248	707.12000	 42.80	
 20.413	-68.100	 74.84608	 45.35536	  8.80909	-19.05437	 81.07962	 -2.07207	 92.33683	707.28003	 42.80	
 20.403	-63.259	 74.99218	 50.06017	  5.12860	-17.26746	 78.92791	 -2.15441	 92.28867	707.14001	 42.80	
 20.400	-58.396	 75.25672	 54.78653	  1.84601	-14.92549	 76.38126	 -2.22259	 92.28669	707.00000	 42.80	
 20.410	-53.489	 75.47640	 59.39557	 -1.22320	-12.63168	 73.49757	 -2.30819	 92.38029	707.09998	 42.80	
 20.408	-48.628	 75.54543	 63.58095	 -4.21457	-10.07903	 69.95898	 -2.47208	 92.33414	707.09998	 42.80	
 20.396	-43.773	 75.66364	 67.30842	 -6.93240	 -7.52711	 66.37019	 -2.42940	 92.32647	707.14001	 42.80	
 20.392	-38.938	 75.75031	 70.89799	 -9.33017	 -4.81645	 62.50090	 -2.55364	 92.30775	707.19000	 42.80	
 20.397	-34.097	 75.83332	 74.10938	-11.33627	 -1.68656	 58.20529	 -2.60169	 92.31443	707.16998	 42.80	
 20.405	-29.165	 75.89956	 76.86347	-13.27181	  1.90429	 53.50286	 -2.64509	 92.29964	707.17999	 42.80	
 20.401	-24.295	 75.97493	 79.19673	-14.98880	  5.61474	 49.03484	 -2.80134	 92.33616	707.16998	 42.90	
 20.392	-19.504	 76.05016	 81.13566	-16.74109	  9.68196	 44.31199	 -2.93250	 92.38461	707.10999	 42.90	
 20.410	-14.577	 76.02721	 82.60632	-17.79502	 14.13285	 39.15038	 -3.11215	 92.30039	707.10999	 42.90	
 20.407	 -9.736	 76.13076	 83.59628	-18.15492	 18.54550	 34.27135	 -3.30420	 92.36836	707.12000	 42.90	
 20.401	 -4.847	 76.15309	 84.16784	-18.50805	 23.53245	 29.52973	 -3.48254	 92.35126	707.09003	 42.90	
 20.400	  0.000	 76.10343	 84.21555	-18.29582	 27.89573	 24.88950	 -3.70840	 92.32956	707.09003	 42.90	
 20.401	  4.847	 76.08633	 83.91143	-17.99620	 32.46559	 20.82680	 -4.00986	 92.34496	707.14001	 42.90	
 20.407	  9.736	 75.98044	 83.11666	-17.79261	 37.33849	 16.30827	 -4.19347	 92.32835	707.15997	 42.90	
 20.410	 14.577	 75.85397	 81.89465	-17.06048	 42.18472	 11.86620	 -4.34017	 92.31190	707.29999	 42.90	
 20.392	 19.504	 75.85326	 80.23743	-16.19370	 46.79713	  7.34722	 -4.63213	 92.33865	707.23999	 42.90	
 20.401	 24.295	 75.74285	 78.10133	-14.76188	 51.10204	  3.54223	 -4.84263	 92.31249	707.25000	 43.00	
 20.405	 29.165	 75.65567	 75.62988	-13.29104	 55.95530	 -0.14604	 -4.99978	 92.35593	707.25000	 43.00	
 20.397	 34.097	 75.62101	 72.63203	-11.24482	 60.27985	 -3.42122	 -5.24172	 92.33720	707.21997	 43.00	
 20.392	 38.938	 75.58243	 69.30311	 -9.04961	 64.30376	 -6.49652	 -5.41529	 92.35353	707.20001	 43.00	
 20.396	 43.773	 75.41639	 65.69090	 -6.66039	 67.96535	 -9.37239	 -5.59353	 92.31200	707.21997	 43.00	
 20.408	 48.628	 75.26650	 61.72670	 -3.98386	 71.57948	-12.11831	 -5.70926	 92.32539	707.09998	 43.00	
 20.410	 53.489	 75.13342	 57.37206	 -0.97901	 74.75578	-14.50103	 -5.80508	 92.33894	707.09998	 43.00	
 20.400	 58.396	 75.03522	 52.81202	  2.07559	 77.60162	-16.63466	 -5.87201	 92.39480	707.09998	 43.00	
 20.403	 63.259	 74.78828	 48.10454	  5.43893	 80.00524	-18.53736	 -5.93797	 92.32896	707.17999	 42.90	
 20.413	 68.100	 74.54447	 43.21453	  9.04450	 82.00936	-20.23208	 -6.01372	 92.32527	707.00000	 42.90	
 20.398	 72.996	 74.42435	 38.16959	 13.08880	 83.57680	-21.51638	 -6.05766	 92.37991	707.01001	 43.00	
 20.394	 77.868	 74.18173	 33.09511	 17.08160	 84.68250	-22.58978	 -6.12024	 92.35861	707.12000	 43.00	
 20.403	 82.668	 73.95558	 28.29569	 21.44794	 85.33371	-23.47872	 -6.22596	 92.32166	707.06000	 42.90	
 20.392	 87.560	 73.86464	 24.26150	 25.09099	 85.57983	-23.73812	 -6.39412	 92.33002	707.06000	 42.90	
 20.392	 92.440	 73.70737	 19.81920	 29.53960	 85.43098	-23.80075	 -6.31675	 92.35482	707.10999	 42.90	
 20.403	 97.332	 73.47545	 15.16881	 34.37111	 84.86673	-23.51109	 -6.19923	 92.33985	707.08002	 42.90	
 20.394	102.132	 73.30743	 10.75951	 39.10986	 83.83249	-22.74441	 -6.13157	 92.32471	707.08002	 42.90	
 20.398	107.004	 73.18198	  6.46992	 43.83939	 82.34681	-21.70417	 -6.06313	 92.33227	707.21002	 43.00	
 20.413	111.900	 73.07018	  2.36637	 48.73529	 80.35490	-20.28272	 -6.01591	 92.30823	707.20001	 43.00	
 20.403	116.741	 73.04414	 -1.49505	 53.37141	 77.97928	-18.45549	 -5.99767	 92.33998	707.14001	 43.00	
 20.400	121.604	 73.00117	 -4.87970	 57.78508	 75.21398	-16.67328	 -5.84299	 92.36899	707.23999	 42.90	
 20.410	126.511	 72.91232	 -8.14863	 62.09619	 72.03639	-14.56332	 -5.73623	 92.40202	707.12000	 43.00	
 20.408	131.372	 72.80882	-11.11695	 66.12357	 68.43935	-12.27470	 -5.61329	 92.33531	707.17999	 43.00	
 20.396	136.227	 72.74879	-13.70599	 69.83548	 64.72301	 -9.66506	 -5.45845	 92.37569	707.25000	 43.00	
 20.392	141.062	 72.70648	-16.02014	 73.20581	 60.61996	 -6.74641	 -5.25471	 92.37543	707.01001	 43.00	
 20.397	145.903	 72.62670	-18.19147	 76.29393	 56.08877	 -3.61052	 -5.05856	 92.37057	707.15002	 43.00	
 20.405	150.835	 72.49973	-20.15983	 79.09138	 51.56389	 -0.25552	 -4.86172	 92.39420	707.10999	 43.00	
 20.401	155.705	 72.38467	-21.80448	 81.36088	 46.81702	  3.20680	 -4.69792	 92.32774	707.22998	 43.00	
 20.392	160.496	 72.33036	-23.33525	 83.20847	 42.06153	  6.96932	 -4.37757	 92.35341	707.21997	 43.00	
 20.410	165.423	 72.27108	-24.46993	 84.65322	 36.95221	 11.16703	 -4.22104	 92.39056	707.12000	 43.00	
 20.407	170.264	 72.21622	-25.27793	 85.71678	 32.10043	 15.51652	 -3.99106	 92.38469	707.15997	 43.00	
 20.401	175.153	 72.26692	-25.52506	 86.33108	 27.26226	 20.21785	 -3.86802	 92.41041	707.13000	 43.00	
  0.141	 45.000	 92.55152	 38.43324	 44.04826	 41.44057	 39.91224	  2.24343	 92.41408	707.19000	 43.00	
  4.001	128.691	 92.04205	 30.07294	 50.80243	 49.39072	 30.73676	  1.81163	 92.39899	707.14001	 43.00	
  4.002	 76.995	 92.26603	 39.75846	 41.12241	 52.19275	 28.56347	  2.10780	 92.39407	707.22998	 43.00	
  4.002	 25.892	 92.43112	 48.07292	 33.62338	 45.99318	 34.61741	  2.24630	 92.37920	707.22998	 43.00	
  4.002	-25.892	 92.45116	 48.28472	 33.13465	 35.97566	 44.74336	  2.02501	 92.39813	707.15997	 43.00	
  4.002	-76.995	 92.26517	 40.33388	 40.58941	 29.60703	 51.14773	  1.67006	 92.40063	707.15002	 43.00	
  4.001	-128.691	 91.97213	 30.54754	 50.19891	 31.36394	 48.55625	  1.46866	 92.32649	707.20001	 43.00	
  4.000	180.000	 91.91605	 25.70464	 54.74889	 39.96556	 39.45574	  1.52293	 92.39344	707.27002	 43.10	
  8.000	180.000	 89.78714	 13.42774	 64.86255	 37.80416	 37.53055	  0.13156	 92.40151	707.21997	 43.10	
  7.991	-152.370	 89.92691	 16.19030	 62.02067	 27.22692	 48.33540	  0.04543	 92.41183	707.20001	 43.10	
  7.997	-124.550	 90.09399	 23.15265	 54.37082	 20.20403	 57.16718	  0.01192	 92.34910	707.28003	 43.10	
  8.006	-96.837	 90.35501	 33.57375	 44.07183	 16.57603	 61.44499	  0.01728	 92.36238	707.26001	 43.10	
  7.988	-69.228	 90.68197	 44.45055	 33.51729	 18.09299	 60.13260	  0.25420	 92.34293	707.25000	 43.10	
  7.997	-41.563	 90.96688	 53.92220	 25.51254	 24.15019	 53.58083	  0.38183	 92.32257	707.26001	 43.10	
  8.008	-13.821	 91.12209	 59.35595	 20.85662	 33.72279	 43.29189	  0.96403	 92.35966	707.20001	 43.10	
  8.008	 13.821	 90.99995	 59.16169	 20.73182	 44.76820	 32.18030	  1.20235	 92.31597	707.19000	 43.10	
  7.997	 41.563	 90.91396	 53.39198	 25.33169	 55.05169	 22.96981	  1.20574	 92.38499	707.20001	 43.10	
  7.988	 69.228	 90.62782	 43.53740	 33.63466	 61.15765	 16.75398	  1.10171	 92.36421	707.20001	 43.10	
  8.006	 96.837	 90.23194	 32.37044	 44.21354	 62.20173	 15.85754	  0.83678	 92.33237	707.09998	 43.10	
  7.997	124.550	 89.97852	 22.38457	 54.51205	 57.63395	 19.51575	  0.58353	 92.34550	707.20001	 43.10	
  7.991	152.370	 89.79311	 15.87230	 62.16933	 48.49950	 26.90916	  0.28533	 92.38203	707.16998	 43.10	
 12.009	161.059	 85.85586	  2.25789	 71.45153	 45.48742	 23.67725	 -2.53674	 92.32121	707.09003	 43.10	
 12.013	142.081	 85.97493	  6.37179	 65.79808	 56.21972	 14.71615	 -2.30728	 92.32688	707.26001	 43.10	
 12.006	123.113	 86.17763	 13.60818	 57.02490	 64.72932	  7.35089	 -2.20369	 92.33521	707.29999	 43.10	
 12.007	104.200	 86.51778	 23.56625	 46.63774	 70.06015	  3.64730	 -2.02180	 92.34612	707.21997	 43.10	
 11.989	 85.301	 86.94798	 34.62157	 35.50536	 71.42522	  3.32245	 -1.84501	 92.34527	707.12000	 43.10	
 12.013	 66.294	 87.29466	 46.20278	 25.40086	 68.97102	  5.53212	 -1.75876	 92.38789	707.16998	 43.10	
 12.012	 47.388	 87.56937	 56.55427	 16.69455	 62.67958	 10.67294	 -1.56238	 92.33613	707.28003	 43.20	
 11.990	 28.440	 87.83242	 64.32018	 10.76463	 53.61970	 19.10405	 -0.91590	 92.34412	707.23999	 43.20	
 11.991	  9.464	 87.99549	 68.62871	  7.79789	 42.59499	 29.03492	 -0.74747	 92.33163	707.28003	 43.10	
 11.991	 -9.464	 88.10931	 68.86488	  7.87167	 31.48279	 40.57793	 -1.54061	 92.34879	707.28003	 43.10	
 11.990	-28.440	 87.99108	 64.96542	 10.96612	 20.70920	 51.56231	 -1.68397	 92.31412	707.19000	 43.10	
 12.012	-47.388	 87.78142	 57.68604	 16.72458	 12.49699	 61.15987	 -1.90695	 92.35281	707.21002	 43.10	
 12.013	-66.294	 87.44231	 47.37470	 25.03319	  6.89955	 67.73806	 -2.01793	 92.34989	707.28998	 43.10	
 11.989	-85.301	 87.08182	 36.24364	 35.21687	  4.36512	 70.65225	 -1.88198	 92.32243	707.22998	 43.10	
 12.007	-104.200	 86.69009	 25.09688	 46.61164	  4.66974	 69.50925	 -2.08424	 92.31601	707.28998	 43.10	
 12.006	-123.113	 86.45413	 15.50355	 57.08265	  8.11731	 64.45309	 -2.00956	 92.36329	707.15997	 43.10	
 12.013	-142.081	 86.13750	  7.90975	 65.82734	 14.62469	 56.12052	 -2.19254	 92.32990	707.15997	 43.20	
 12.009	-161.059	 86.00248	  2.78079	 71.34751	 23.51700	 45.49241	 -2.29018	 92.35146	707.14001	 43.20	
 16.000	180.000	 80.37131	-11.37150	 80.45724	 29.55913	 29.98252	 -3.47685	 92.36626	707.19000	 43.20	
 15.990	-165.604	 80.41579	-10.47836	 79.00318	 19.17781	 41.21964	 -3.03682	 92.33540	707.23999	 43.20	
 16.002	-151.165	 80.64906	 -6.57842	 74.66610	  9.56110	 52.30333	 -2.77375	 92.33721	707.19000	 43.20	
 16.002	-136.836	 80.85355	 -1.08399	 67.68092	  1.75304	 62.43750	 -2.53956	 92.35409	707.19000	 43.20	
 15.995	-122.439	 81.11327	  6.53998	 58.38057	 -3.78299	 70.42653	 -2.31600	 92.33862	707.16998	 43.20	
 15.993	-107.966	 81.42504	 16.23158	 47.66150	 -7.24641	 75.87408	 -2.23622	 92.36487	707.14001	 43.20	
 16.005	-93.629	 81.69834	 26.66119	 36.28999	 -9.01239	 78.36971	 -2.17379	 92.33971	707.12000	 43.20	
 15.992	-79.234	 82.09390	 38.05751	 26.30041	 -7.71128	 77.74649	 -2.33135	 92.35913	707.15997	 43.20	
 16.009	-64.774	 82.40694	 49.19244	 16.50061	 -4.85036	 74.11680	 -2.51628	 92.36085	707.23999	 43.20	
 15.997	-50.364	 82.84424	 59.94433	  8.08329	  0.47926	 67.44439	 -2.58720	 92.39116	707.22998	 43.20	
 15.997	-36.045	 83.11530	 68.28483	  1.70659	  7.82549	 58.61449	 -2.68578	 92.37704	707.28998	 43.20	
 16.000	-21.597	 83.31017	 74.19408	 -2.43122	 17.02250	 47.74961	 -2.87311	 92.33335	707.12000	 43.20	
 16.003	 -7.169	 83.37633	 77.02631	 -4.43674	 27.40479	 36.36311	 -3.03423	 92.36754	707.15002	 43.20	
 16.003	  7.169	 83.24248	 76.80090	 -4.68609	 38.99866	 25.17299	 -3.12947	 92.39984	707.21997	 43.20	
 16.000	 21.597	 82.96265	 73.40255	 -2.64715	 50.11195	 14.86954	 -3.24589	 92.34019	707.20001	 43.20	
 15.997	 36.045	 82.79305	 66.93429	  1.81039	 60.52875	  5.72129	 -3.58777	 92.31943	707.20001	 43.20	
 15.997	 50.364	 82.54047	 58.30384	  7.98204	 69.03840	 -1.19256	 -3.76892	 92.37986	707.21997	 43.20	
 16.009	 64.774	 82.23164	 47.57906	 16.18737	 75.31952	 -6.17241	 -4.01512	 92.43527	707.22998	 43.20	
 15.992	 79.234	 81.83656	 36.01666	 25.88799	 78.62360	 -8.99597	 -4.19640	 92.40714	707.15997	 43.20	
 16.005	 93.629	 81.40837	 24.82273	 36.63257	 78.93436	 -9.65049	 -4.17496	 92.38292	707.21997	 43.20	
 15.993	107.966	 80.99362	 14.27030	 47.79301	 76.21289	 -8.30321	 -4.21943	 92.36982	707.29999	 43.20	
 15.995	122.439	 80.74774	  4.67561	 58.39279	 70.46854	 -3.96782	 -4.32508	 92.34663	707.17999	 43.20	
 16.002	136.836	 80.60413	 -2.49479	 67.66399	 62.19426	  1.90493	 -4.24720	 92.36272	707.17999	 43.20	
 16.002	151.165	 80.34982	 -7.89711	 74.69786	 51.96770	 10.07976	 -4.17151	 92.36378	707.29999	 43.20	
 15.990	165.604	 80.30257	-10.96165	 79.02627	 40.77419	 19.64834	 -3.90190	 92.35598	707.29999	 43.20	
 20.003	168.362	 73.00542	-23.78848	 84.81503	 34.35692	 14.47891	 -4.06337	 92.29577	707.15997	 43.20	
 20.008	156.764	 73.10831	-21.32324	 81.39746	 45.92597	  4.77520	 -4.59866	 92.34933	707.23999	 43.20	
 20.000	145.147	 73.41286	-16.91151	 75.55339	 56.77457	 -3.05782	 -5.08736	 92.37485	707.28998	 43.20	
 19.995	133.545	 73.54923	-11.39587	 67.70086	 66.57589	-10.01372	 -5.47720	 92.34125	707.21997	 43.20	
 20.009	121.926	 73.76973	 -4.28941	 58.12484	 74.62766	-15.47575	 -5.75674	 92.32026	707.28998	 43.20	
 20.005	110.327	 74.01676	  4.06209	 47.45124	 80.64362	-19.45482	 -5.95066	 92.35983	707.26001	 43.20	
 19.989	 98.733	 74.30633	 14.18519	 36.27451	 84.09814	-22.13481	 -6.07613	 92.37316	707.26001	 43.20	
 19.999	 87.075	 74.65611	 25.08068	 25.51717	 85.03072	-22.48008	 -6.26962	 92.30319	707.15002	 43.20	
 19.992	 75.457	 75.05090	 36.00121	 15.95924	 83.68882	-21.19150	 -5.96885	 92.35993	707.26001	 43.20	
 20.009	 63.844	 75.46385	 47.70254	  6.74697	 79.78680	-17.80750	 -5.76831	 92.34638	707.23999	 43.20	
 19.989	 52.269	 75.92496	 58.49820	 -0.67298	 73.60169	-12.88833	 -5.59688	 92.34863	707.28003	 43.20	
 19.999	 40.602	 76.27122	 67.91095	 -6.81903	 65.36017	 -6.57558	 -5.35066	 92.38692	707.29999	 43.20	
 20.004	 29.051	 76.46098	 75.36732	-11.55901	 55.76938	  0.91193	 -4.91565	 92.40083	707.28003	 43.20	
 20.005	 17.433	 76.49989	 80.52317	-15.17455	 44.87548	  9.74125	 -4.44489	 92.32530	707.31000	 43.20	
 20.006	  5.780	 76.70647	 83.28133	-16.66708	 33.67777	 20.42705	 -3.95367	 92.35982	707.29999	 43.20	
 20.006	 -5.780	 76.80902	 83.55797	-16.84658	 23.25649	 30.70228	 -3.41686	 92.34914	707.29999	 43.20	
 20.005	-17.433	 76.77694	 81.33028	-15.64539	 12.58306	 42.32764	 -2.97658	 92.35717	707.28003	 43.20	
 20.004	-29.051	 76.60729	 76.48894	-12.19661	  3.13008	 53.42538	 -2.66816	 92.33362	707.28998	 43.20	
 19.999	-40.602	 76.46674	 69.54594	 -7.43148	 -4.75201	 63.68966	 -2.52466	 92.38288	707.17999	 43.20	
 19.989	-52.269	 76.26182	 60.42662	 -0.80889	-10.64180	 72.21747	 -2.34648	 92.34288	707.16998	 43.20	
 20.009	-63.844	 75.81490	 49.74874	  6.75852	-16.10818	 78.74225	 -2.16432	 92.36069	707.28003	 43.20	
 19.992	-75.457	 75.42799	 38.28091	 16.10966	-19.68323	 82.91732	 -2.07453	 92.38792	707.21997	 43.20	
 19.999	-87.075	 75.02004	 26.76301	 25.96233	-21.36845	 84.55775	 -1.91422	 92.35245	707.31000	 43.20	
 19.989	-98.733	 74.77335	 16.52943	 36.09174	-21.57958	 83.85018	 -1.82781	 92.39478	707.19000	 43.20	
 20.005	-110.327	 74.47501	  6.56758	 47.50541	-19.26017	 80.51789	 -1.89739	 92.34374	707.28003	 43.20	
 20.009	-121.926	 74.28844	 -2.12713	 58.12132	-15.31007	 75.05550	 -2.03220	 92.35677	707.26001	 43.20	
 19.995	-133.545	 74.14341	 -9.42414	 67.71381	-10.06554	 67.20057	 -2.20705	 92.30760	707.34998	 43.20	
 20.000	-145.147	 73.88656	-15.52945	 75.66348	 -3.58015	 57.58982	 -2.35692	 92.32749	707.26001	 43.20	
 20.008	-156.764	 73.52219	-20.51263	 81.47574	  3.95807	 46.71045	 -2.42764	 92.32694	707.22998	 43.20	
 20.003	-168.362	 73.24733	-23.70831	 84.89767	 13.98232	 35.12144	 -2.81738	 92.33160	707.23999	 43.20	
 20.000	180.000	 73.07264	-24.58989	 85.99522	 23.84135	 24.38317	 -3.54627	 92.34146	707.31000	 43.20	
