FileType=PCF
NHL=14
Date=03/14/19	16:28:21
Facility=APL
Serial=16071-2
Customer=NASA
NP=6
Mach=0.380000
Calibration=1:1
CalPts=490
TstPts=95
PortNumbering=AP Standard
Units=Torr C m/s kg/m^3 deg mm 
Theta[deg]	Phi[deg]	P1[Torr]	P2[Torr]	P3[Torr]	P4[Torr]	P5[Torr]	P6[Torr]	Pt[Torr]	Ps[Abs,Torr]	Ts[C]	
  0.000	  0.000	 66.69507	 27.07121	 31.41352	 29.16472	 28.57278	  1.52850	 66.63683	707.26001	 41.70	
  1.691	128.401	 66.63316	 24.67034	 33.56236	 31.69609	 25.75230	  1.46067	 66.61613	707.28003	 41.60	
  1.692	 77.194	 66.69646	 27.72543	 30.60503	 32.50637	 25.12278	  1.56572	 66.63964	707.29999	 41.60	
  1.699	 26.182	 66.66840	 30.20973	 28.21798	 30.72541	 26.94160	  1.59538	 66.59691	707.35999	 41.50	
  1.699	-26.182	 66.71223	 30.26721	 28.18108	 27.66531	 30.07993	  1.54637	 66.63332	707.28003	 41.50	
  1.692	-77.194	 66.68301	 27.81567	 30.48203	 25.66173	 31.99825	  1.43746	 66.62363	707.40002	 41.40	
  1.691	-128.401	 66.63822	 24.76999	 33.43346	 26.22911	 31.24632	  1.37095	 66.61534	707.56000	 41.40	
  1.700	180.000	 66.59262	 23.33168	 34.84687	 28.91304	 28.41436	  1.37830	 66.59801	707.34003	 41.40	
  3.400	180.000	 66.36650	 19.43311	 38.22120	 28.52104	 28.10897	  1.12338	 66.60330	707.27002	 41.30	
  3.388	-152.325	 66.34284	 20.29218	 37.32461	 25.27031	 31.45394	  1.09945	 66.54812	707.37000	 41.30	
  3.397	-124.529	 66.45462	 22.65314	 35.06594	 22.83567	 34.14743	  1.12345	 66.60764	707.35999	 41.30	
  3.399	-96.763	 66.50728	 25.96815	 31.83747	 21.72966	 35.42491	  1.18890	 66.60529	707.41998	 41.20	
  3.394	-69.283	 66.53813	 29.33726	 28.53814	 22.29086	 34.99339	  1.27545	 66.55897	707.40002	 41.20	
  3.400	-41.398	 66.58021	 32.26400	 25.78163	 24.34989	 33.00037	  1.39672	 66.55223	707.35999	 41.20	
  3.401	-14.021	 66.60030	 33.88058	 24.38299	 27.39895	 29.92491	  1.48155	 66.55186	707.37000	 41.20	
  3.401	 14.021	 66.61094	 33.83913	 24.44392	 30.78238	 26.49946	  1.54160	 66.55550	707.27002	 41.10	
  3.400	 41.398	 66.57672	 32.12183	 25.96214	 33.70247	 23.52131	  1.56652	 66.55193	707.31000	 41.10	
  3.394	 69.283	 66.54659	 29.11275	 28.71678	 35.59827	 21.50756	  1.51028	 66.56319	707.25000	 41.10	
  3.399	 96.763	 66.42107	 25.64322	 31.97153	 35.84566	 21.09179	  1.42088	 66.50857	707.41998	 41.00	
  3.397	124.529	 66.37768	 22.41901	 35.17139	 34.44770	 22.34276	  1.31457	 66.51579	707.40002	 41.00	
  3.388	152.325	 66.32274	 20.15170	 37.44335	 31.72168	 24.91601	  1.18714	 66.54626	707.39001	 41.00	
  5.099	161.165	 65.85722	 16.15088	 40.89213	 31.30791	 24.25106	  0.80794	 66.52645	707.22998	 41.00	
  5.109	142.013	 65.89436	 17.62678	 39.25802	 34.58344	 21.09598	  0.89770	 66.50975	707.35999	 40.90	
  5.095	123.033	 66.01398	 20.06168	 36.63036	 37.12690	 18.98296	  1.01933	 66.53671	707.16998	 40.90	
  5.105	104.191	 66.09193	 23.29734	 33.34212	 38.74311	 17.70155	  1.14461	 66.54681	707.31000	 40.90	
  5.093	 85.207	 66.16380	 26.86940	 29.85114	 39.21124	 17.45369	  1.23576	 66.51660	707.27002	 40.90	
  5.104	 66.290	 66.23141	 30.42365	 26.55216	 38.49437	 18.20563	  1.31750	 66.49586	707.26001	 40.80	
  5.094	 47.331	 66.31167	 33.57385	 23.79352	 36.56671	 19.97905	  1.37036	 66.52559	707.15002	 40.80	
  5.089	 28.397	 66.33726	 35.92109	 21.79605	 33.79935	 22.70137	  1.40116	 66.49576	707.20001	 40.80	
  5.096	  9.576	 66.37170	 37.17113	 20.66176	 30.56817	 26.00657	  1.40000	 66.49846	707.21997	 40.70	
  5.096	 -9.576	 66.36494	 37.24306	 20.54752	 27.05733	 29.52892	  1.30638	 66.51206	707.20001	 40.70	
  5.089	-28.397	 66.35329	 36.05663	 21.53799	 23.65905	 32.99198	  1.21733	 66.51286	707.28998	 40.60	
  5.094	-47.331	 66.29108	 33.85450	 23.58059	 20.67165	 35.90023	  1.08534	 66.51141	707.10999	 40.60	
  5.104	-66.290	 66.17140	 30.81300	 26.38501	 18.66606	 37.90926	  0.98530	 66.45504	707.28998	 40.60	
  5.093	-85.207	 66.10828	 27.33816	 29.62262	 17.77920	 38.74488	  0.89398	 66.47520	707.26001	 40.60	
  5.105	-104.191	 66.04049	 23.74277	 33.12724	 17.91529	 38.44256	  0.80409	 66.49392	707.23999	 40.50	
  5.095	-123.033	 65.92845	 20.38870	 36.41224	 19.15893	 36.79683	  0.76079	 66.47169	707.22998	 40.50	
  5.109	-142.013	 65.90519	 17.90302	 39.05373	 21.36922	 34.32753	  0.75279	 66.50458	707.20001	 40.50	
  5.099	-161.165	 65.81820	 16.29645	 40.73604	 24.29592	 31.10254	  0.74231	 66.45746	707.27002	 40.40	
  5.100	180.000	 65.78957	 15.66613	 41.33003	 27.92691	 27.58010	  0.76459	 66.47324	707.08002	 40.40	
  6.800	180.000	 65.13853	 11.96415	 44.37685	 27.21032	 26.93480	  0.33687	 66.47325	707.21997	 40.40	
  6.796	-166.229	 65.17021	 12.42528	 43.94171	 23.83848	 30.43124	  0.32544	 66.49393	707.16998	 40.40	
  6.808	-152.311	 65.17799	 13.57836	 42.70201	 20.48712	 33.75515	  0.29023	 66.46842	707.20001	 40.40	
  6.795	-138.383	 65.24028	 15.46820	 40.67947	 17.98552	 36.65666	  0.32672	 66.46312	707.17999	 40.30	
  6.792	-124.591	 65.29263	 17.80929	 38.04679	 15.96296	 39.05777	  0.29699	 66.43801	707.26001	 40.30	
  6.787	-110.754	 65.37708	 20.73614	 34.92118	 14.89750	 40.83045	  0.32840	 66.43757	707.12000	 40.30	
  6.800	-96.985	 65.49480	 24.15347	 31.60961	 14.21585	 41.81641	  0.36649	 66.47249	707.15002	 40.30	
  6.800	-83.015	 65.58989	 27.67962	 28.18938	 14.25306	 41.91029	  0.45700	 66.46974	707.07001	 40.30	
  6.787	-69.246	 65.67226	 31.07468	 25.10441	 15.05799	 41.01912	  0.52632	 66.45191	707.08002	 40.30	
  6.792	-55.409	 65.76666	 34.23997	 22.29552	 16.42481	 39.30875	  0.60895	 66.45218	707.17999	 40.20	
  6.795	-41.617	 65.83532	 36.84907	 19.93768	 18.62568	 36.97524	  0.69113	 66.45889	707.00000	 40.20	
  6.808	-27.689	 65.89772	 38.93481	 18.03745	 21.38919	 34.00819	  0.86273	 66.48425	707.04999	 40.20	
  6.796	-13.771	 65.89493	 40.21653	 16.92293	 24.97014	 30.63373	  0.96337	 66.43700	707.03998	 40.20	
  6.800	  0.000	 65.91616	 40.63974	 16.65444	 28.37638	 27.13123	  1.04747	 66.45831	707.15002	 40.20	
  6.796	 13.771	 65.85538	 40.15521	 17.03625	 31.69997	 23.66706	  1.08091	 66.40885	707.08002	 40.20	
  6.808	 27.689	 65.81464	 38.76663	 18.12523	 34.95821	 20.41346	  1.08193	 66.42492	707.06000	 40.20	
  6.795	 41.617	 65.77621	 36.56601	 19.96035	 37.76034	 17.83395	  1.07986	 66.42777	706.96997	 40.20	
  6.792	 55.409	 65.67677	 33.76805	 22.27786	 40.13050	 15.77442	  1.04308	 66.39297	707.07001	 40.10	
  6.787	 69.246	 65.66525	 30.54531	 25.15811	 41.70692	 14.39393	  0.98032	 66.44566	707.00000	 40.10	
  6.800	 83.015	 65.55777	 27.10464	 28.24395	 42.45913	 13.57107	  0.89551	 66.43310	707.02002	 40.10	
  6.800	 96.985	 65.43401	 23.57247	 31.61564	 42.29288	 13.61322	  0.79110	 66.43189	707.03003	 40.00	
  6.787	110.754	 65.34904	 20.23661	 34.97199	 41.21423	 14.43388	  0.70414	 66.41598	706.92999	 40.00	
  6.792	124.591	 65.25861	 17.33232	 38.08446	 39.36036	 15.81050	  0.60602	 66.43088	706.97998	 40.00	
  6.795	138.383	 65.13345	 14.99718	 40.73497	 36.90092	 17.85250	  0.25185	 66.37512	707.04999	 40.00	
  6.808	152.311	 65.11177	 13.28084	 42.78955	 33.86970	 20.46492	  0.44153	 66.39870	707.02002	 40.00	
  6.796	166.229	 65.07736	 12.29389	 43.95539	 30.52948	 23.56019	  0.38111	 66.40131	706.96997	 40.00	
  8.491	168.704	 64.18738	  8.42763	 46.93441	 29.75006	 22.56426	 -0.28809	 66.42369	706.96002	 40.00	
  8.502	157.493	 64.18004	  9.21038	 45.93185	 33.18595	 19.49943	 -0.31251	 66.37488	707.03003	 39.90	
  8.494	146.194	 64.22840	 10.61565	 44.14203	 36.44473	 16.69307	 -0.37629	 66.37746	707.07001	 39.90	
  8.495	135.039	 64.29642	 12.49660	 41.84460	 39.25806	 14.35989	 -0.14003	 66.36944	707.04999	 39.90	
  8.487	123.723	 64.37749	 14.87476	 39.06957	 41.84246	 12.38121	  0.13763	 66.38234	707.02002	 39.90	
  8.492	112.575	 64.44782	 17.63846	 35.96833	 43.74157	 10.91852	 -0.21855	 66.37262	707.09998	 39.90	
  8.510	101.220	 64.51370	 20.90562	 32.49674	 45.02119	  9.95872	  0.30204	 66.34181	707.00000	 39.90	
  8.500	 90.000	 64.66138	 24.46219	 29.07534	 45.49488	  9.70147	 -0.04264	 66.37825	707.03998	 39.90	
  8.510	 78.780	 64.75587	 28.03503	 25.76139	 45.33445	  9.92073	  0.47127	 66.37505	707.04999	 39.90	
  8.492	 67.425	 64.85220	 31.56129	 22.58837	 44.40772	 10.78687	  0.54152	 66.36821	707.08002	 39.80	
  8.487	 56.277	 64.92358	 34.78482	 19.79027	 42.75428	 12.22550	  0.16687	 66.36061	707.02002	 39.80	
  8.495	 44.961	 65.00568	 37.73841	 17.37829	 40.43252	 14.23992	  0.38558	 66.34727	707.10999	 39.80	
  8.494	 33.806	 65.08601	 40.24581	 15.42330	 37.65388	 16.66108	  0.72581	 66.38126	707.03998	 39.80	
  8.502	 22.507	 65.12806	 42.18425	 13.90803	 34.52105	 19.59142	  0.74043	 66.36817	707.03003	 39.80	
  8.491	 11.296	 65.18398	 43.36749	 13.06479	 31.15343	 22.84821	  0.71738	 66.38461	707.00000	 39.80	
  8.500	  0.000	 65.18661	 43.81804	 12.72285	 27.71449	 26.37389	  0.65566	 66.36436	707.01001	 39.70	
  8.491	-11.296	 65.22306	 43.45306	 13.00305	 24.24448	 29.99854	  0.54052	 66.39352	707.08002	 39.70	
  8.502	-22.507	 65.19296	 42.40480	 13.90109	 20.89978	 33.41977	  0.44015	 66.38036	707.00000	 39.70	
  8.494	-33.806	 65.15585	 40.58306	 15.55756	 17.74032	 36.57353	  0.11798	 66.36897	707.02002	 39.70	
  8.495	-44.961	 65.08356	 38.17454	 17.58658	 15.14593	 39.37304	  0.08817	 66.35400	707.00000	 39.60	
  8.487	-56.277	 65.00984	 35.38282	 19.96140	 13.28140	 41.82150	  0.05095	 66.39227	707.02002	 39.60	
  8.492	-67.425	 64.87831	 32.20591	 22.72342	 11.76359	 43.60724	 -0.02190	 66.37087	707.06000	 39.60	
  8.510	-78.780	 64.80816	 28.76533	 25.79971	 10.81620	 44.70700	 -0.23950	 66.39272	706.96997	 39.60	
  8.500	-90.000	 64.64692	 25.21684	 29.06403	 10.44514	 44.95450	 -0.12438	 66.33383	707.00000	 39.60	
  8.510	-101.220	 64.55016	 21.67277	 32.47458	 10.60644	 44.55516	 -0.26789	 66.34539	707.09998	 39.60	
  8.492	-112.575	 64.47318	 18.34733	 35.92504	 11.41683	 43.37532	 -0.19982	 66.36840	707.03003	 39.60	
  8.487	-123.723	 64.37812	 15.56832	 39.01260	 12.68581	 41.51985	 -0.38052	 66.34589	707.07001	 39.50	
  8.495	-135.039	 64.30257	 13.06554	 41.83919	 14.48186	 39.07229	 -0.20000	 66.35181	707.09998	 39.50	
  8.494	-146.194	 64.23222	 11.07418	 44.07137	 16.79456	 36.26888	 -0.19210	 66.34917	706.96997	 39.50	
  8.502	-157.493	 64.16360	  9.54591	 45.79738	 19.56374	 33.08307	 -0.33411	 66.34833	707.02002	 39.50	
  8.491	-168.704	 64.16447	  8.65541	 46.84973	 22.63130	 29.65060	 -0.30148	 66.36370	707.07001	 39.50	
  8.500	180.000	 64.13576	  8.21382	 47.20799	 26.30042	 26.04070	 -0.13478	 66.35788	707.09003	 39.50	
 10.200	180.000	 62.97566	  4.32590	 49.92632	 25.21786	 24.93669	 -1.04689	 66.32763	707.01001	 39.50	
 10.191	-170.497	 63.00750	  4.69286	 49.60036	 21.66702	 28.68514	 -1.12492	 66.33043	707.00000	 39.50	
 10.210	-161.034	 63.04560	  5.50218	 48.73054	 18.43009	 32.24773	 -1.16356	 66.33925	706.97998	 39.40	
 10.194	-151.526	 63.08961	  6.78102	 47.25529	 15.58208	 35.55234	 -1.14320	 66.33742	707.09998	 39.40	
 10.190	-142.105	 63.16258	  8.47285	 45.28366	 13.00271	 38.64324	 -1.11218	 66.33839	707.00000	 39.40	
 10.215	-132.646	 63.20052	 10.58871	 42.78044	 10.69581	 41.46538	 -1.09329	 66.31703	706.97998	 39.40	
 10.203	-123.092	 63.28778	 13.11494	 39.89228	  8.91951	 43.94868	 -1.05371	 66.32175	706.96002	 39.40	
 10.192	-113.678	 63.39522	 15.96839	 36.75654	  7.76132	 45.77411	 -1.03445	 66.33509	706.95001	 39.40	
 10.208	-104.249	 63.50420	 18.98476	 33.36917	  6.94441	 47.04878	 -1.07078	 66.33772	707.01001	 39.40	
 10.210	-94.801	 63.60904	 22.49422	 29.87606	  6.60030	 47.71673	 -0.95524	 66.34901	706.88000	 39.40	
 10.210	-85.199	 63.72778	 26.17077	 26.46106	  6.75327	 47.75852	 -0.76227	 66.32999	707.09998	 39.40	
 10.208	-75.751	 63.85958	 29.77945	 23.26032	  7.39192	 47.20599	 -0.92975	 66.36485	707.08002	 39.40	
 10.192	-66.322	 63.95159	 33.16950	 20.23378	  8.38136	 46.03712	 -0.68614	 66.35502	707.06000	 39.40	
 10.203	-56.908	 64.00802	 36.33136	 17.38030	  9.78403	 44.26423	 -0.82507	 66.31635	707.04999	 39.40	
 10.215	-47.354	 64.12526	 39.32818	 14.89168	 11.76663	 41.93717	 -0.69537	 66.33966	707.09998	 39.40	
 10.190	-37.895	 64.19895	 41.99197	 12.81298	 14.22516	 39.05114	 -0.66458	 66.31404	707.06000	 39.30	
 10.194	-28.474	 64.25198	 44.12401	 11.03567	 16.68038	 35.95686	 -0.33095	 66.33691	707.00000	 39.30	
 10.210	-18.966	 64.27675	 45.63919	  9.65071	 19.72256	 32.67001	 -0.13415	 66.33167	706.96997	 39.30	
 10.191	 -9.503	 64.33318	 46.46722	  8.97928	 23.27180	 29.14002	 -0.44448	 66.33891	707.06000	 39.30	
 10.200	  0.000	 64.31982	 46.76744	  8.79553	 26.97777	 25.44094	  0.14467	 66.35890	707.00000	 39.30	
 10.191	  9.503	 64.26585	 46.34962	  9.10175	 30.45807	 21.84480	  0.16737	 66.32879	706.97998	 39.30	
 10.210	 18.966	 64.17666	 45.32582	  9.86652	 33.92477	 18.57615	 -0.02602	 66.29618	707.06000	 39.30	
 10.194	 28.474	 64.12681	 43.63859	 11.07517	 37.10098	 15.56575	 -0.07271	 66.29996	706.98999	 39.30	
 10.190	 37.895	 64.07664	 41.43671	 12.74537	 40.14338	 12.95391	  0.19033	 66.29677	707.04999	 39.30	
 10.215	 47.354	 64.01648	 38.73240	 14.77289	 42.91523	 10.58708	 -0.39180	 66.31773	706.98999	 39.30	
 10.203	 56.908	 63.89827	 35.63792	 17.22074	 45.15973	  8.64107	 -0.54568	 66.29549	707.00000	 39.20	
 10.192	 66.322	 63.79929	 32.35077	 20.03252	 46.83002	  7.19748	 -0.05706	 66.29906	706.90997	 39.20	
 10.208	 75.751	 63.69966	 28.85639	 23.12127	 47.95131	  6.25851	 -0.16788	 66.30631	707.15002	 39.20	
 10.210	 85.199	 63.60272	 25.28694	 26.36255	 48.38837	  5.85835	 -0.75341	 66.30125	706.97998	 39.20	
 10.210	 94.801	 63.52378	 21.66590	 29.79543	 48.28210	  5.83176	 -0.72876	 66.34911	707.06000	 39.20	
 10.208	104.249	 63.34951	 18.18887	 33.24528	 47.50424	  6.20811	 -0.72461	 66.29820	707.03003	 39.20	
 10.192	113.678	 63.24761	 15.04098	 36.64624	 46.10369	  7.15481	 -0.91349	 66.28422	706.96002	 39.20	
 10.203	123.092	 63.17069	 12.30141	 39.80650	 44.19332	  8.64268	 -0.86285	 66.29683	707.03998	 39.20	
 10.215	132.646	 63.06239	  9.84488	 42.70092	 41.62424	 10.55216	 -0.95521	 66.25409	706.97998	 39.20	
 10.190	142.105	 63.01839	  7.78465	 45.19282	 38.73338	 12.83151	 -0.99927	 66.25803	707.00000	 39.20	
 10.194	151.526	 62.94725	  6.20243	 47.22552	 35.62633	 15.38185	 -1.13390	 66.25915	706.92999	 39.20	
 10.210	161.034	 62.90221	  5.09077	 48.77811	 32.22380	 18.36598	 -1.19104	 66.24736	706.97998	 39.20	
 10.191	170.497	 62.89598	  4.52817	 49.60732	 28.70043	 21.55206	 -1.17752	 66.25639	706.97998	 39.20	
 11.899	171.783	 61.53555	  0.59098	 52.14814	 27.51741	 20.46196	 -1.74869	 66.23505	706.87000	 39.20	
 11.890	163.610	 61.56304	  1.11821	 51.42742	 31.11059	 17.34278	 -1.81410	 66.24359	707.03003	 39.10	
 11.889	155.445	 61.59586	  1.95139	 50.12485	 34.57071	 14.29539	 -1.79830	 66.27289	707.02002	 39.10	
 11.909	147.299	 61.59741	  3.22738	 48.37833	 37.78135	 11.51026	 -1.74135	 66.25385	707.04999	 39.10	
 11.902	139.148	 61.67315	  4.95002	 46.15356	 40.89035	  8.97751	 -1.61641	 66.24876	707.06000	 39.10	
 11.894	130.867	 61.70589	  7.07668	 43.48264	 43.79161	  6.76447	 -1.60269	 66.23451	707.08002	 39.10	
 11.897	122.732	 61.81999	  9.55495	 40.56519	 46.22491	  4.99868	 -1.65083	 66.25401	707.14001	 39.10	
 11.903	114.597	 61.87321	 12.34013	 37.33204	 48.10831	  3.67015	 -1.57367	 66.20322	707.07001	 39.10	
 11.893	106.346	 62.05434	 15.41954	 33.94898	 49.58744	  2.72544	 -1.47736	 66.27884	707.02002	 39.10	
 11.892	 98.155	 62.15247	 18.75640	 30.42976	 50.55590	  1.73589	 -1.41911	 66.24352	706.98999	 39.10	
 11.900	 90.000	 62.28192	 22.24055	 27.05678	 50.96861	  1.58864	 -1.36537	 66.25536	707.09998	 39.10	
 11.892	 81.845	 62.42119	 25.91784	 23.72351	 50.81559	  1.92473	 -1.37773	 66.26273	707.15997	 39.10	
 11.893	 73.654	 62.54914	 29.56208	 20.50855	 50.15856	  2.60891	 -1.38291	 66.28121	707.13000	 39.10	
 11.903	 65.403	 62.62344	 33.05865	 17.38255	 49.01268	  3.52796	 -1.30903	 66.28304	707.09998	 39.10	
 11.897	 57.268	 62.70876	 36.34041	 14.62573	 47.32186	  4.93375	 -1.17931	 66.25843	707.14001	 39.10	
 11.894	 49.133	 62.81255	 39.43298	 12.14368	 45.17185	  6.70669	 -1.13783	 66.27524	707.19000	 39.00	
 11.902	 40.852	 62.90457	 42.34626	  9.95057	 42.52521	  8.91271	 -0.56022	 66.29159	707.16998	 39.00	
 11.909	 32.701	 62.94650	 44.76403	  8.18585	 39.53867	 11.37556	 -1.07519	 66.24638	707.07001	 39.00	
 11.889	 24.555	 63.04021	 46.70324	  6.87980	 36.38110	 14.42975	 -0.65228	 66.28131	707.09998	 39.00	
 11.890	 16.390	 63.08704	 48.17482	  5.85642	 33.06846	 17.55569	 -0.84705	 66.27508	707.03003	 39.00	
 11.899	  8.217	 63.14537	 49.09146	  5.22840	 29.54167	 20.87386	 -0.82256	 66.28532	707.07001	 39.00	
 11.900	  0.000	 63.19083	 49.44897	  5.01665	 26.00173	 24.40427	 -0.91643	 66.29916	707.04999	 39.00	
 11.899	 -8.217	 63.14769	 49.19504	  5.12437	 22.30627	 28.12981	 -1.05835	 66.25665	706.96997	 39.00	
 11.890	-16.390	 63.16887	 48.47324	  5.77378	 18.76645	 31.73178	 -1.14074	 66.27193	707.13000	 39.00	
 11.889	-24.555	 63.13216	 47.20873	  6.79911	 15.88736	 35.09713	 -1.14288	 66.28175	707.00000	 39.00	
 11.909	-32.701	 63.07219	 45.41030	  8.22208	 13.03966	 38.34158	 -1.17362	 66.27068	707.06000	 39.00	
 11.902	-40.852	 63.00582	 43.16388	  9.97996	 10.44911	 41.38745	 -1.27049	 66.29196	707.07001	 39.00	
 11.894	-49.133	 62.93242	 40.33720	 12.23813	  8.17579	 44.16685	 -1.39935	 66.27585	707.09003	 39.00	
 11.897	-57.268	 62.83327	 37.29278	 14.78466	  6.34392	 46.39327	 -1.43852	 66.26759	707.03003	 39.00	
 11.903	-65.403	 62.73746	 34.08348	 17.56801	  4.80491	 48.21915	 -1.40264	 66.30891	707.02002	 38.90	
 11.893	-73.654	 62.58936	 30.55434	 20.59198	  3.66523	 49.49042	 -1.37011	 66.27689	707.15997	 38.90	
 11.892	-81.845	 62.49105	 26.88055	 23.82256	  3.02019	 50.28387	 -1.34385	 66.29581	707.06000	 38.90	
 11.900	-90.000	 62.36963	 23.21725	 27.02781	  2.67271	 50.50694	 -1.40020	 66.27399	707.10999	 38.90	
 11.892	-98.155	 62.25081	 19.71133	 30.39628	  2.77822	 50.16904	 -1.44494	 66.25867	707.03998	 38.90	
 11.893	-106.346	 62.14100	 16.47024	 33.91777	  3.21860	 49.30785	 -1.44144	 66.27411	707.02002	 38.90	
 11.903	-114.597	 62.04036	 13.39109	 37.33088	  4.00697	 47.92000	 -1.42554	 66.26627	706.98999	 38.90	
 11.897	-122.732	 61.97605	 10.61357	 40.54904	  5.29118	 46.05371	 -1.38987	 66.28337	707.06000	 38.90	
 11.894	-130.867	 61.89770	  8.06392	 43.49905	  6.93455	 43.71456	 -1.43584	 66.31226	707.03003	 38.90	
 11.902	-139.148	 61.77586	  5.76377	 46.14308	  9.06764	 40.74258	 -1.53458	 66.27203	707.03998	 38.90	
 11.909	-147.299	 61.70557	  3.88588	 48.37384	 11.51923	 37.84387	 -1.59762	 66.24587	706.95001	 38.90	
 11.889	-155.445	 61.73219	  2.50454	 50.17011	 14.36418	 34.57847	 -1.61945	 66.34461	706.92999	 38.90	
 11.890	-163.610	 61.66456	  1.45064	 51.40645	 17.29430	 31.14573	 -1.60882	 66.29523	706.92999	 38.90	
 11.899	-171.783	 61.60872	  0.72025	 52.19019	 20.50705	 27.42844	 -1.56996	 66.30315	706.96002	 38.80	
 11.900	180.000	 61.60498	  0.42785	 52.45785	 23.96481	 23.72093	 -1.62864	 66.29506	706.88000	 38.80	
 13.600	180.000	 59.99938	 -3.48027	 54.78466	 22.59395	 22.54992	 -2.06559	 66.28268	706.98999	 38.80	
 13.608	-172.853	 60.00361	 -3.26911	 54.58762	 19.26478	 25.99643	 -2.00066	 66.27470	706.96002	 38.80	
 13.611	-165.583	 60.04731	 -2.68039	 53.90368	 15.95530	 29.77823	 -1.94464	 66.28210	706.89001	 38.80	
 13.601	-158.353	 60.08848	 -1.73190	 52.72565	 12.96914	 33.32487	 -1.93274	 66.25957	706.96997	 38.80	
 13.609	-151.210	 60.15342	 -0.47878	 51.15324	 10.11242	 36.76878	 -1.88292	 66.26871	706.95001	 38.80	
 13.611	-143.999	 60.18623	  1.10982	 49.15137	  7.44982	 39.88561	 -1.82858	 66.27132	706.97998	 38.80	
 13.601	-136.825	 60.26011	  3.05811	 46.81189	  5.16568	 42.85748	 -1.68698	 66.28083	706.96002	 38.80	
 13.596	-129.640	 60.31054	  5.31352	 44.07145	  3.17328	 45.61857	 -1.58305	 66.22198	706.96997	 38.80	
 13.611	-122.431	 60.42021	  7.86376	 41.04884	  1.52724	 48.01951	 -1.53675	 66.26222	706.94000	 38.80	
 13.604	-115.211	 60.51361	 10.68213	 37.77896	  0.28781	 49.94509	 -1.56485	 66.27142	707.04999	 38.80	
 13.595	-108.042	 60.57808	 13.71686	 34.36025	 -0.47616	 51.32831	 -1.58105	 66.21329	706.92999	 38.80	
 13.607	-100.793	 60.68214	 16.90609	 30.82508	 -1.16593	 52.40060	 -1.57244	 66.23579	707.07001	 38.80	
 13.601	-93.617	 60.81841	 20.20470	 27.43836	 -1.33689	 52.94798	 -1.54396	 66.25869	706.98999	 38.80	
 13.601	-86.383	 60.93782	 23.79435	 24.11475	 -1.16955	 52.99600	 -1.51247	 66.26487	707.00000	 38.80	
 13.607	-79.207	 61.00721	 27.57381	 20.89254	 -0.78353	 52.53683	 -1.52114	 66.23922	707.03003	 38.80	
 13.595	-71.958	 61.15535	 31.23765	 17.77014	  0.02615	 51.62666	 -1.59141	 66.25111	707.08002	 38.80	
 13.604	-64.789	 61.29808	 34.68880	 14.81380	  1.12981	 50.30156	 -1.67709	 66.28829	707.09003	 38.80	
 13.611	-57.569	 61.39631	 37.94316	 11.99660	  2.67597	 48.44373	 -1.74356	 66.23824	707.09998	 38.70	
 13.596	-50.360	 61.53465	 41.11753	  9.42872	  4.49686	 46.21347	 -1.76033	 66.27139	707.15997	 38.70	
 13.601	-43.175	 61.60373	 44.02022	  7.13328	  6.61571	 43.54181	 -1.68899	 66.26138	707.04999	 38.70	
 13.611	-36.001	 61.68265	 46.48603	  5.27274	  9.00064	 40.60281	 -1.61053	 66.29470	706.96997	 38.70	
 13.609	-28.790	 61.74677	 48.53807	  3.79937	 11.75988	 37.42847	 -1.60498	 66.28408	707.06000	 38.70	
 13.601	-21.647	 61.78571	 50.09266	  2.62779	 14.74600	 34.02663	 -1.64818	 66.26083	707.06000	 38.70	
 13.611	-14.417	 61.78500	 51.22651	  1.74370	 17.60128	 30.50693	 -1.66047	 66.24423	707.07001	 38.70	
 13.608	 -7.147	 61.84522	 51.89397	  1.26234	 21.10752	 26.79405	 -1.60411	 66.28442	706.98999	 38.70	
 13.600	  0.000	 61.82208	 52.04223	  1.16846	 24.86386	 23.06348	 -1.54233	 66.26804	706.96997	 38.70	
 13.608	  7.147	 61.77530	 51.75482	  1.40148	 28.40942	 19.81372	 -1.46488	 66.25635	706.91998	 38.70	
 13.611	 14.417	 61.71826	 50.92872	  1.87749	 31.97809	 16.44160	 -1.40971	 66.25630	706.96002	 38.70	
 13.601	 21.647	 61.68275	 49.62230	  2.72446	 35.45824	 13.22379	 -1.45819	 66.28778	707.03003	 38.70	
 13.609	 28.790	 61.59040	 47.86549	  3.82030	 38.54179	 10.27310	 -1.55863	 66.25665	706.97998	 38.70	
 13.611	 36.001	 61.52200	 45.67308	  5.29998	 41.93370	  7.56384	 -1.68151	 66.24725	707.02002	 38.70	
 13.601	 43.175	 61.44323	 43.05781	  7.07956	 44.79785	  5.21610	 -1.71516	 66.23971	707.01001	 38.70	
 13.596	 50.360	 61.36926	 40.10081	  9.26063	 47.28511	  3.19827	 -1.78779	 66.26075	707.03998	 38.70	
 13.611	 57.569	 61.27056	 36.99141	 11.73474	 49.35224	  1.26340	 -1.85601	 66.24392	707.09003	 38.70	
 13.604	 64.789	 61.17920	 33.60795	 14.52105	 51.04584	 -0.21758	 -1.95793	 66.25903	706.91998	 38.70	
 13.595	 71.958	 61.06188	 30.13733	 17.55059	 52.34312	 -1.21786	 -2.07849	 66.25117	707.04999	 38.70	
 13.607	 79.207	 60.95530	 26.41405	 20.78362	 53.21577	 -1.89883	 -2.09359	 66.27409	707.10999	 38.60	
 13.601	 86.383	 60.84752	 22.76154	 24.07250	 53.55180	 -2.21725	 -2.02052	 66.27675	707.01001	 38.60	
 13.601	 93.617	 60.71468	 19.23930	 27.46874	 53.38122	 -2.21733	 -2.05190	 66.25431	707.09003	 38.60	
 13.607	100.793	 60.59913	 15.87173	 30.94312	 52.77505	 -1.93498	 -2.12231	 66.29431	706.90997	 38.60	
 13.595	108.042	 60.49464	 12.63829	 34.47313	 51.62942	 -1.28804	 -2.13015	 66.27865	706.94000	 38.60	
 13.604	115.211	 60.33716	  9.61143	 37.82273	 50.04615	 -0.30644	 -2.21533	 66.21782	706.91998	 38.60	
 13.611	122.431	 60.25584	  6.77505	 41.09718	 48.10748	  1.08832	 -2.28030	 66.24696	706.94000	 38.60	
 13.596	129.640	 60.18755	  4.30548	 44.07800	 45.71443	  2.81978	 -2.25193	 66.27223	707.02002	 38.60	
 13.601	136.825	 60.12484	  2.16290	 46.76401	 42.97368	  4.83993	 -2.23437	 66.26081	706.92999	 38.60	
 13.611	143.999	 60.06584	  0.38192	 49.16108	 39.87674	  7.26837	 -2.29880	 66.26550	706.95001	 38.60	
 13.609	151.210	 60.02267	 -1.05182	 51.15917	 36.64537	 10.15950	 -2.37487	 66.24885	706.96002	 38.60	
 13.601	158.353	 59.98090	 -2.19120	 52.73545	 33.31377	 13.00708	 -2.38932	 66.25156	706.89001	 38.60	
 13.611	165.583	 59.95598	 -2.98142	 53.91537	 29.75544	 16.07713	 -2.31616	 66.25993	706.91998	 38.60	
 13.608	172.853	 59.93734	 -3.39900	 54.55210	 26.00091	 19.32040	 -2.18616	 66.23137	706.97998	 38.60	
 15.298	173.587	 58.18666	 -7.12506	 56.70921	 24.46180	 18.00459	 -2.50057	 66.24954	706.98999	 38.60	
 15.291	167.167	 58.23680	 -6.75648	 56.12420	 28.15242	 14.81823	 -2.66833	 66.28876	707.07001	 38.60	
 15.307	160.676	 58.16322	 -6.16390	 55.03448	 31.79796	 11.62128	 -2.84633	 66.23008	706.90002	 38.60	
 15.300	154.261	 58.21661	 -5.31191	 53.64438	 35.21180	  8.72751	 -2.86223	 66.26440	707.01001	 38.60	
 15.288	147.854	 58.28647	 -4.04177	 51.82395	 38.56027	  5.97722	 -2.89088	 66.27803	706.94000	 38.60	
 15.293	141.428	 58.31107	 -2.49526	 49.60930	 41.71014	  3.48436	 -2.86283	 66.26054	706.95001	 38.60	
 15.299	134.985	 58.38108	 -0.61384	 47.11529	 44.72879	  1.20225	 -2.81720	 66.25372	706.96997	 38.60	
 15.305	128.583	 58.43844	  1.56827	 44.39534	 47.38542	 -0.79809	 -2.86729	 66.23930	706.94000	 38.60	
 15.309	122.142	 58.52969	  4.03139	 41.41191	 49.82343	 -2.25151	 -2.91519	 66.27472	706.94000	 38.60	
 15.304	115.711	 58.58743	  6.76496	 38.10298	 51.79558	 -3.53224	 -2.88217	 66.24654	706.94000	 38.60	
 15.297	109.291	 58.67603	  9.67620	 34.66896	 53.42641	 -4.81906	 -2.79515	 66.25943	706.91998	 38.60	
 15.293	102.897	 58.79430	 12.83993	 31.22723	 54.65676	 -5.47317	 -2.76633	 66.26749	706.94000	 38.60	
 15.293	 96.458	 58.95390	 16.17790	 27.83059	 55.46701	 -5.61998	 -2.77374	 66.27450	707.06000	 38.60	
 15.300	 90.000	 59.07837	 19.59046	 24.44482	 55.81973	 -5.58739	 -2.71899	 66.27721	706.96997	 38.60	
 15.293	 83.542	 59.21091	 23.11630	 21.07414	 55.75452	 -5.54852	 -2.75000	 66.27196	706.92999	 38.60	
 15.293	 77.103	 59.29553	 26.78368	 17.78014	 55.26653	 -5.28947	 -2.79127	 66.27605	706.91998	 38.60	
 15.297	 70.709	 59.42065	 30.42935	 14.65426	 54.33352	 -4.55418	 -2.74743	 66.28352	706.90997	 38.60	
 15.304	 64.289	 59.51049	 33.93945	 11.65803	 52.92068	 -3.60716	 -2.61005	 66.24081	706.95001	 38.60	
 15.309	 57.858	 59.63923	 37.37659	  8.94914	 51.18784	 -2.41525	 -2.54336	 66.26250	706.95001	 38.60	
 15.305	 51.417	 59.76753	 40.55168	  6.60002	 49.06020	 -0.73561	 -2.45227	 66.26405	706.92999	 38.60	
 15.299	 45.015	 59.83670	 43.57354	  4.45469	 46.68324	  1.29377	 -2.37144	 66.24914	706.87000	 38.60	
 15.293	 38.572	 59.95700	 46.31636	  2.60335	 43.95139	  3.55828	 -2.28957	 66.28399	706.81000	 38.60	
 15.288	 32.146	 60.00828	 48.67043	  1.04350	 40.76873	  6.09371	 -2.21221	 66.24199	706.97998	 38.50	
 15.300	 25.739	 60.05398	 50.64827	 -0.23318	 37.39414	  8.83458	 -2.11896	 66.24194	706.89001	 38.50	
 15.307	 19.324	 60.10796	 52.22863	 -1.23601	 34.32642	 11.92389	 -2.01958	 66.26166	706.84998	 38.50	
 15.291	 12.833	 60.19781	 53.42692	 -1.91781	 30.80996	 15.19244	 -1.97098	 66.27422	706.89001	 38.50	
 15.298	  6.413	 60.21840	 54.14777	 -2.31595	 27.21058	 18.53489	 -2.00350	 66.24305	706.81000	 38.50	
 15.300	  0.000	 60.26297	 54.46561	 -2.55224	 23.58566	 21.83894	 -2.04486	 66.25366	706.94000	 38.50	
 15.298	 -6.413	 60.27961	 54.30703	 -2.41706	 19.86468	 25.37319	 -2.03737	 66.23857	706.91998	 38.50	
 15.291	-12.833	 60.24757	 53.71534	 -2.08274	 16.71430	 29.10981	 -2.01070	 66.24040	706.84003	 38.50	
 15.307	-19.324	 60.24245	 52.72636	 -1.40310	 13.56997	 32.72217	 -1.97735	 66.27644	706.90997	 38.50	
 15.300	-25.739	 60.19267	 51.26596	 -0.38044	 10.51049	 36.21844	 -1.91620	 66.27934	706.90002	 38.50	
 15.288	-32.146	 60.10812	 49.43480	  0.89451	  7.63814	 39.44440	 -1.83410	 66.24444	706.88000	 38.50	
 15.293	-38.572	 60.09424	 47.27662	  2.48762	  5.12908	 42.56065	 -1.79796	 66.30529	706.84998	 38.50	
 15.299	-45.015	 59.99694	 44.62599	  4.36597	  2.75770	 45.49347	 -1.79947	 66.25609	706.85999	 38.60	
 15.305	-51.417	 59.87914	 41.65551	  6.52150	  0.68431	 48.05970	 -1.82127	 66.25708	706.78003	 38.50	
 15.309	-57.858	 59.75700	 38.42679	  9.03533	 -1.17206	 50.28062	 -1.78478	 66.24757	706.85999	 38.50	
 15.304	-64.289	 59.63055	 35.15666	 11.85452	 -2.62569	 52.08992	 -1.73859	 66.22540	706.91998	 38.60	
 15.297	-70.709	 59.54037	 31.68922	 14.84290	 -3.73573	 53.54006	 -1.64401	 66.24898	706.78003	 38.50	
 15.293	-77.103	 59.46370	 28.08443	 17.90321	 -4.63333	 54.55232	 -1.55783	 66.26701	706.83002	 38.50	
 15.293	-83.542	 59.35476	 24.31233	 21.17424	 -5.07296	 55.14143	 -1.50465	 66.24843	706.73999	 38.50	
 15.300	-90.000	 59.25942	 20.72696	 24.43536	 -5.33927	 55.31672	 -1.50416	 66.25757	706.79999	 38.50	
 15.293	-96.458	 59.16293	 17.34418	 27.82475	 -5.34170	 55.05852	 -1.50950	 66.28694	706.83002	 38.50	
 15.293	-102.897	 59.01052	 14.03968	 31.31320	 -4.87236	 54.29204	 -1.54734	 66.24148	706.82001	 38.50	
 15.297	-109.291	 58.93637	 10.92633	 34.76575	 -4.27481	 53.14643	 -1.53965	 66.28261	706.79999	 38.50	
 15.304	-115.711	 58.78355	  7.94481	 38.14445	 -3.36636	 51.59435	 -1.55081	 66.22827	706.95001	 38.50	
 15.309	-122.142	 58.69796	  5.17385	 41.41727	 -2.21930	 49.72784	 -1.54040	 66.24645	706.81000	 38.50	
 15.305	-128.583	 58.63396	  2.66350	 44.38630	 -0.64662	 47.45665	 -1.56792	 66.27595	706.85999	 38.50	
 15.299	-134.985	 58.56185	  0.41547	 47.16208	  1.25987	 44.75075	 -1.66202	 66.24389	706.78003	 38.50	
 15.293	-141.428	 58.49274	 -1.60521	 49.69210	  3.41624	 41.70013	 -1.75713	 66.25841	706.77002	 38.50	
 15.288	-147.854	 58.38266	 -3.30271	 51.84248	  5.78624	 38.75008	 -1.87719	 66.21504	706.84003	 38.50	
 15.300	-154.261	 58.35770	 -4.65242	 53.64842	  8.40506	 35.44489	 -1.97478	 66.23116	706.78003	 38.50	
 15.307	-160.676	 58.28724	 -5.87750	 55.09475	 11.49963	 31.99424	 -2.06195	 66.26472	706.84998	 38.50	
 15.291	-167.167	 58.24696	 -6.68445	 56.10164	 14.56037	 28.32069	 -2.13006	 66.26701	706.79999	 38.50	
 15.298	-173.587	 58.22422	 -7.08469	 56.74617	 17.80686	 24.64154	 -2.22712	 66.27070	706.78003	 38.50	
 15.300	180.000	 58.19748	 -7.28545	 56.93834	 21.13919	 21.25572	 -2.36767	 66.27314	706.84003	 38.50	
 17.000	180.000	 56.16924	-10.78193	 58.82191	 19.55581	 19.78950	 -2.51290	 66.23531	706.85999	 38.50	
 16.990	-174.179	 56.20157	-10.66338	 58.66103	 16.24341	 23.18562	 -2.31856	 66.23576	706.79999	 38.50	
 17.009	-168.383	 56.20541	-10.31221	 58.13019	 12.99730	 26.61569	 -2.16651	 66.23837	706.85999	 38.50	
 17.000	-162.596	 56.30693	 -9.74155	 57.25084	 10.01734	 30.32418	 -2.03768	 66.27220	706.85999	 38.50	
 16.990	-156.759	 56.35252	 -8.73140	 55.90635	  7.07588	 33.95449	 -1.92566	 66.23431	706.79999	 38.50	
 16.995	-150.919	 56.40258	 -7.46905	 54.26667	  4.29007	 37.41549	 -1.83165	 66.25101	706.78003	 38.50	
 16.988	-145.161	 56.48685	 -6.00998	 52.30969	  1.80601	 40.40448	 -1.70310	 66.24388	706.90002	 38.50	
 17.014	-139.343	 56.52369	 -4.30125	 50.02513	 -0.49542	 43.43959	 -1.61141	 66.22316	706.90002	 38.50	
 17.007	-133.546	 56.60139	 -2.30317	 47.39288	 -2.57125	 46.49548	 -1.53162	 66.22534	706.84003	 38.50	
 17.001	-127.699	 56.68274	  0.02846	 44.48281	 -4.27155	 49.10308	 -1.47691	 66.22511	706.84998	 38.50	
 17.006	-121.937	 56.79798	  2.39250	 41.57150	 -5.57148	 51.22299	 -1.46073	 66.23356	706.78998	 38.40	
 17.002	-116.134	 56.90990	  5.11895	 38.37685	 -6.58102	 53.09195	 -1.41222	 66.23644	706.75000	 38.40	
 17.001	-110.310	 56.99806	  8.05074	 34.95726	 -7.51049	 54.74278	 -1.41439	 66.24087	706.71997	 38.40	
 16.988	-104.517	 57.07997	 11.19397	 31.42685	 -8.32965	 56.03761	 -1.38569	 66.23375	706.77002	 38.40	
 17.008	-98.662	 57.15829	 14.38487	 27.93102	 -9.03637	 56.94962	 -1.36381	 66.23987	706.84998	 38.40	
 16.996	-92.909	 57.27110	 17.65849	 24.57716	 -9.03914	 57.33752	 -1.37449	 66.21893	706.78003	 38.40	
 16.996	-87.091	 57.36869	 21.08394	 21.23247	 -8.96471	 57.42188	 -1.38507	 66.23106	706.84003	 38.40	
 17.012	-81.253	 57.44339	 24.70828	 17.94451	 -8.65753	 57.06732	 -1.43727	 66.19978	706.78998	 38.40	
 16.988	-75.483	 57.61034	 28.39259	 14.83099	 -8.09817	 56.34351	 -1.50294	 66.23101	706.83002	 38.40	
 17.001	-69.690	 57.74839	 31.96571	 11.79497	 -7.35283	 55.27085	 -1.57581	 66.27500	706.79999	 38.40	
 17.002	-63.866	 57.85181	 35.44382	  8.90871	 -6.26375	 53.72689	 -1.63364	 66.25316	706.87000	 38.40	
 17.006	-58.063	 57.98598	 38.77814	  6.20945	 -4.86052	 51.87889	 -1.68712	 66.27330	706.92999	 38.40	
 17.001	-52.301	 58.06280	 41.96881	  3.83818	 -3.25786	 49.76651	 -1.71457	 66.23982	706.94000	 38.40	
 17.007	-46.454	 58.15075	 45.00910	  1.70045	 -1.33534	 47.27150	 -1.74893	 66.26755	706.81000	 38.40	
 17.014	-40.657	 58.21177	 47.70160	 -0.26543	  0.85815	 44.39292	 -1.79808	 66.25031	706.79999	 38.40	
 16.988	-34.839	 58.30302	 50.03593	 -1.86524	  3.40264	 41.23126	 -1.88913	 66.21626	706.84003	 38.40	
 16.995	-29.081	 58.36454	 52.07628	 -3.22903	  6.00381	 38.14159	 -1.97293	 66.24813	706.73999	 38.40	
 16.990	-23.241	 58.43209	 53.75416	 -4.30972	  8.88731	 34.75124	 -2.06220	 66.22903	706.84998	 38.40	
 17.000	-17.404	 58.49449	 55.09591	 -5.24685	 12.33757	 31.25550	 -2.16663	 66.26041	706.82001	 38.40	
 17.009	-11.617	 58.48576	 56.03522	 -5.93657	 15.43490	 27.62085	 -2.23595	 66.25354	706.84998	 38.40	
 16.990	 -5.821	 58.52782	 56.52701	 -6.17647	 18.76313	 23.91295	 -2.32132	 66.24978	706.89001	 38.40	
 17.000	  0.000	 58.50594	 56.65163	 -6.17387	 21.96796	 20.47360	 -2.39487	 66.24330	706.88000	 38.40	
 16.990	  5.821	 58.47050	 56.37481	 -5.98784	 25.79166	 17.18395	 -2.45316	 66.22350	706.92999	 38.40	
 17.009	 11.617	 58.40217	 55.73214	 -5.73905	 29.39738	 13.84910	 -2.51503	 66.24332	707.01001	 38.40	
 17.000	 17.404	 58.31325	 54.64421	 -5.18685	 32.90117	 10.62371	 -2.55948	 66.23125	706.87000	 38.40	
 16.990	 23.241	 58.26913	 53.18363	 -4.28002	 36.18843	  7.63668	 -2.65511	 66.24640	706.83002	 38.40	
 16.995	 29.081	 58.17717	 51.32494	 -3.17972	 39.36363	  4.73218	 -2.79959	 66.23293	706.90997	 38.40	
 16.988	 34.839	 58.18402	 49.21304	 -1.76291	 42.67409	  1.99514	 -2.90485	 66.27810	706.96997	 38.40	
 17.014	 40.657	 58.03217	 46.71363	 -0.20421	 45.63789	 -0.35339	 -2.97595	 66.20464	706.96002	 38.40	
 17.007	 46.454	 57.96352	 43.88392	  1.73662	 48.33414	 -2.35582	 -3.03337	 66.22730	706.85999	 38.40	
 17.001	 52.301	 57.84872	 40.77055	  3.80668	 50.74265	 -4.15176	 -3.10320	 66.25708	706.89001	 38.40	
 17.006	 58.063	 57.73592	 37.57681	  6.11460	 52.86881	 -5.75750	 -3.15909	 66.26551	706.95001	 38.40	
 17.002	 63.866	 57.61899	 34.14151	  8.75350	 54.60505	 -6.99947	 -3.25056	 66.22015	706.79999	 38.40	
 17.001	 69.690	 57.52527	 30.58281	 11.67663	 55.98379	 -8.05253	 -3.38970	 66.22596	706.85999	 38.40	
 16.988	 75.483	 57.40476	 26.89257	 14.78765	 56.96902	 -8.85021	 -3.43850	 66.22004	706.94000	 38.40	
 17.012	 81.253	 57.26783	 23.18941	 17.99312	 57.65251	 -9.43292	 -3.43730	 66.21072	706.84003	 38.40	
 16.996	 87.091	 57.17953	 19.71805	 21.27312	 57.87073	 -9.56121	 -3.40307	 66.22346	706.90997	 38.40	
 16.996	 92.909	 57.04783	 16.38326	 24.47509	 57.76275	 -9.70375	 -3.41672	 66.26669	706.87000	 38.40	
 17.008	 98.662	 56.86634	 13.05348	 27.77953	 57.22482	 -9.62280	 -3.43466	 66.23035	706.91998	 38.40	
 16.988	104.517	 56.77303	  9.80024	 31.31282	 56.27434	 -9.12023	 -3.42531	 66.20903	707.02002	 38.40	
 17.001	110.310	 56.64801	  6.70981	 34.73813	 55.02668	 -8.42200	 -3.44075	 66.22724	706.91998	 38.40	
 17.002	116.134	 56.58844	  3.86305	 38.18448	 53.33572	 -6.85155	 -3.50691	 66.23009	706.96002	 38.40	
 17.006	121.937	 56.48828	  1.14776	 41.45499	 51.29019	 -5.49186	 -3.49961	 66.22708	706.96997	 38.40	
 17.001	127.699	 56.47852	 -1.21830	 44.47258	 49.01684	 -3.96624	 -3.42153	 66.26239	706.90002	 38.40	
 17.007	133.546	 56.39874	 -3.34696	 47.25979	 46.30537	 -2.24298	 -3.35212	 66.24362	706.90002	 38.40	
 17.014	139.343	 56.35643	 -5.16259	 49.93473	 43.28451	 -0.36166	 -3.33645	 66.27428	706.92999	 38.40	
 16.988	145.161	 56.28828	 -6.68141	 52.21622	 40.16909	  1.94875	 -3.31484	 66.26712	706.92999	 38.40	
 16.995	150.919	 56.25689	 -7.98454	 54.20162	 37.01262	  4.46372	 -3.29505	 66.25288	706.87000	 38.40	
 16.990	156.759	 56.20312	 -9.03943	 55.79737	 33.57790	  7.27294	 -3.19097	 66.22234	706.97998	 38.40	
 17.000	162.596	 56.18636	 -9.89861	 57.14826	 30.03200	 10.24408	 -3.08629	 66.25571	706.95001	 38.40	
 17.009	168.383	 56.16302	-10.43914	 58.07915	 26.31580	 13.35497	 -2.91153	 66.23500	707.07001	 38.40	
 16.990	174.179	 56.17908	-10.72366	 58.61803	 22.84133	 16.64128	 -2.74190	 66.24191	706.89001	 38.40	
 18.709	174.675	 53.90115	-14.64589	 60.39073	 20.90393	 15.10870	 -2.81179	 66.22292	707.03003	 38.40	
 18.703	169.441	 53.89054	-14.35325	 59.87805	 24.35720	 11.86117	 -3.05734	 66.20606	706.90997	 38.30	
 18.691	164.085	 53.97404	-13.82549	 59.05598	 27.95404	  8.60910	 -3.21188	 66.27483	706.90002	 38.30	
 18.706	158.818	 53.98285	-13.12356	 57.89793	 31.59465	  5.60799	 -3.39060	 66.27546	706.84003	 38.30	
 18.695	153.537	 54.01116	-12.09027	 56.39379	 35.11414	  2.76093	 -3.49633	 66.24203	706.90002	 38.40	
 18.704	148.255	 54.06180	-10.89499	 54.58024	 38.48844	  0.33163	 -3.51959	 66.27270	706.95001	 38.30	
 18.698	142.952	 54.13808	 -9.42270	 52.45922	 41.60593	 -1.83828	 -3.62428	 66.28272	706.84003	 38.30	
 18.699	137.625	 54.20016	 -7.74476	 50.00472	 44.73295	 -3.82990	 -3.76139	 66.26871	706.84998	 38.30	
 18.705	132.343	 54.25748	 -5.89643	 47.31173	 47.63449	 -5.67173	 -3.84947	 66.27471	706.84998	 38.30	
 18.713	127.067	 54.28956	 -3.92014	 44.39212	 50.23204	 -7.34551	 -3.91978	 66.26310	706.83002	 38.30	
 18.700	121.794	 54.38837	 -1.67258	 41.38901	 52.52790	 -8.81789	 -3.99036	 66.26669	706.82001	 38.30	
 18.698	116.504	 54.43247	  0.84483	 38.14698	 54.61579	-10.17396	 -4.00842	 66.22729	706.90002	 38.30	
 18.707	111.165	 54.49549	  3.74767	 34.68168	 56.37468	-11.39613	 -4.00406	 66.20659	706.78998	 38.30	
 18.690	105.863	 54.61874	  6.78979	 31.28835	 57.76395	-12.33551	 -4.01750	 66.25266	706.78003	 38.30	
 18.696	100.583	 54.69199	  9.92678	 27.82971	 58.77268	-13.04379	 -4.00659	 66.24646	706.88000	 38.30	
 18.700	 95.309	 54.81131	 13.24455	 24.27163	 59.44133	-13.47323	 -4.00761	 66.24236	706.90997	 38.30	
 18.700	 90.000	 54.95429	 16.61060	 20.92134	 59.72169	-13.37038	 -4.05901	 66.21901	706.82001	 38.30	
 18.700	 84.691	 55.14909	 19.98927	 17.89526	 59.67772	-12.80776	 -4.10275	 66.24236	706.88000	 38.30	
 18.696	 79.417	 55.24934	 23.37039	 14.83364	 59.27905	-12.50630	 -4.10822	 66.23946	706.85999	 38.30	
 18.690	 74.137	 55.34785	 26.93952	 11.71230	 58.53630	-12.05077	 -4.08663	 66.23229	706.92999	 38.30	
 18.707	 68.835	 55.52415	 30.64964	  8.72495	 57.51298	-11.29991	 -4.01702	 66.29578	706.90997	 38.30	
 18.698	 63.496	 55.60214	 34.23542	  5.91342	 56.02156	-10.27207	 -3.88084	 66.24282	706.88000	 38.30	
 18.700	 58.206	 55.71729	 37.66277	  3.36235	 54.26545	 -8.97121	 -3.78025	 66.27354	706.89001	 38.30	
 18.713	 52.933	 55.78387	 40.82785	  1.06233	 52.16275	 -7.48220	 -3.69382	 66.23277	706.84003	 38.30	
 18.705	 47.657	 55.92070	 43.96239	 -0.98338	 49.76059	 -5.68459	 -3.61653	 66.24854	706.79999	 38.30	
 18.699	 42.375	 56.06413	 46.88446	 -2.76669	 47.14004	 -3.71086	 -3.54996	 66.26678	706.83002	 38.30	
 18.698	 37.048	 56.17087	 49.50319	 -4.40304	 44.23553	 -1.65135	 -3.46523	 66.28134	706.79999	 38.30	
 18.704	 31.745	 56.16938	 51.76945	 -5.92479	 41.09853	  0.53770	 -3.38775	 66.25716	706.94000	 38.30	
 18.695	 26.463	 56.22427	 53.75164	 -7.17871	 37.89727	  3.28421	 -3.24133	 66.24846	706.84998	 38.30	
 18.706	 21.182	 56.29116	 55.49224	 -8.25969	 34.71053	  6.18915	 -3.10024	 66.26463	706.92999	 38.30	
 18.691	 15.915	 56.30717	 56.76810	 -9.08358	 31.31409	  9.20508	 -2.96534	 66.21625	706.91998	 38.30	
 18.703	 10.559	 56.40755	 57.84774	 -9.68624	 27.65541	 12.43608	 -2.85411	 66.29620	706.94000	 38.30	
 18.709	  5.325	 56.45692	 58.43929	 -9.80752	 23.99392	 15.66849	 -2.72831	 66.25980	706.96002	 38.30	
 18.700	  0.000	 56.50830	 58.66582	 -9.82342	 20.55649	 18.93970	 -2.64326	 66.25382	706.96997	 38.20	
 18.709	 -5.325	 56.51926	 58.58694	 -9.89735	 17.41380	 22.40425	 -2.45747	 66.27708	706.87000	 38.30	
 18.703	-10.559	 56.51815	 58.12156	 -9.62153	 14.14182	 25.84092	 -2.34626	 66.28779	706.91998	 38.30	
 18.691	-15.915	 56.46902	 57.23063	 -9.17031	 10.92691	 29.47576	 -2.21959	 66.23737	706.83002	 38.30	
 18.706	-21.182	 56.44536	 56.04683	 -8.47730	  7.79906	 33.12516	 -2.09681	 66.26031	706.82001	 38.30	
 18.695	-26.463	 56.41902	 54.49998	 -7.48668	  4.82791	 36.62485	 -1.96110	 66.29606	706.89001	 38.30	
 18.704	-31.745	 56.33250	 52.63796	 -6.26481	  2.05668	 39.79945	 -1.88016	 66.26879	706.90002	 38.30	
 18.698	-37.048	 56.25922	 50.42566	 -4.72485	 -0.54097	 42.86674	 -1.78857	 66.26083	706.87000	 38.30	
 18.699	-42.375	 56.15375	 47.93824	 -2.99436	 -2.94079	 46.03445	 -1.67566	 66.23245	706.85999	 38.20	
 18.705	-47.657	 56.14857	 45.23476	 -0.99484	 -4.82330	 48.78050	 -1.66524	 66.27872	706.97998	 38.20	
 18.713	-52.933	 56.08720	 42.13320	  1.06915	 -6.58321	 51.18663	 -1.55970	 66.27014	706.97998	 38.20	
 18.700	-58.206	 55.97651	 38.97201	  3.35711	 -8.13545	 53.32425	 -1.52582	 66.26128	706.84003	 38.30	
 18.698	-63.496	 55.81168	 35.64610	  5.84801	 -9.43305	 55.19080	 -1.45965	 66.23632	706.94000	 38.30	
 18.707	-68.835	 55.64727	 32.07013	  8.66796	-10.63024	 56.75430	 -1.41488	 66.22219	706.94000	 38.30	
 18.690	-74.137	 55.57248	 28.47355	 11.74810	-11.53062	 57.94069	 -1.39974	 66.25644	706.88000	 38.30	
 18.696	-79.417	 55.42926	 24.82296	 14.75608	-12.08961	 58.75221	 -1.37581	 66.23246	706.85999	 38.30	
 18.700	-84.691	 55.32496	 21.24765	 17.96674	-12.43587	 59.24178	 -1.29734	 66.25777	706.94000	 38.30	
 18.700	-90.000	 55.22249	 17.83167	 21.26280	-12.59289	 59.35463	 -1.28008	 66.25389	706.91998	 38.30	
 18.700	-95.309	 55.12262	 14.57322	 24.47386	-12.84845	 59.16117	 -1.21564	 66.27439	706.84003	 38.30	
 18.696	-100.583	 54.95667	 11.28336	 27.87742	-12.66867	 58.52385	 -1.28691	 66.23790	706.83002	 38.30	
 18.690	-105.863	 54.95135	  8.14110	 31.43788	-11.76006	 57.54591	 -1.30700	 66.25619	706.88000	 38.30	
 18.707	-111.165	 54.82463	  5.07081	 34.88508	-11.07609	 56.23745	 -1.29054	 66.21049	706.85999	 38.30	
 18.698	-116.504	 54.76366	  2.17063	 38.34011	 -9.99510	 54.54694	 -1.31737	 66.23670	706.84003	 38.30	
 18.700	-121.794	 54.72239	 -0.41569	 41.55723	 -8.81403	 52.58554	 -1.35406	 66.26121	706.92999	 38.20	
 18.713	-127.067	 54.59444	 -2.80734	 44.57046	 -7.54534	 50.39116	 -1.37466	 66.24213	706.97998	 38.30	
 18.705	-132.343	 54.52803	 -4.90375	 47.43874	 -6.05998	 47.95275	 -1.43220	 66.26070	707.00000	 38.30	
 18.699	-137.625	 54.41634	 -6.73304	 50.07034	 -4.41234	 45.11764	 -1.44178	 66.26862	706.92999	 38.20	
 18.698	-142.952	 54.36761	 -8.39954	 52.51514	 -2.32949	 41.95185	 -1.52155	 66.26808	706.96997	 38.30	
 18.704	-148.255	 54.28073	 -9.97632	 54.64293	  0.07007	 38.98386	 -1.62709	 66.21960	707.00000	 38.30	
 18.695	-153.537	 54.22483	-11.39669	 56.45207	  2.57352	 35.73001	 -1.71256	 66.25256	706.90002	 38.30	
 18.706	-158.818	 54.09447	-12.67591	 57.96327	  5.33293	 32.14705	 -1.79419	 66.24063	707.00000	 38.20	
 18.691	-164.085	 54.10608	-13.48887	 59.12720	  8.41426	 28.40168	 -1.94266	 66.28782	706.97998	 38.20	
 18.703	-169.441	 53.97842	-14.20788	 59.95010	 11.49152	 24.83269	 -2.08047	 66.26318	707.01001	 38.20	
 18.709	-174.675	 53.93930	-14.61878	 60.46317	 14.61950	 21.37997	 -2.26280	 66.26575	706.96002	 38.20	
 18.700	180.000	 53.93952	-14.62830	 60.55420	 17.72229	 18.20549	 -2.53824	 66.24966	706.90002	 38.20	
 20.400	180.000	 51.45182	-18.60375	 62.02382	 15.79511	 16.27049	 -2.46399	 66.22427	707.00000	 38.20	
 20.401	-175.153	 51.49615	-18.50900	 61.93408	 12.84874	 19.41353	 -2.14151	 66.24815	707.03998	 38.20	
 20.407	-170.264	 51.55280	-18.13647	 61.53127	  9.73757	 22.94637	 -1.90596	 66.25959	706.91998	 38.20	
 20.410	-165.423	 51.62692	-17.41902	 60.81621	  6.67409	 26.31698	 -1.78622	 66.28027	706.90997	 38.20	
 20.392	-160.496	 51.73683	-16.49341	 59.72810	  3.62278	 30.04177	 -1.70487	 66.26607	707.02002	 38.20	
 20.401	-155.705	 51.78599	-15.50853	 58.38683	  0.91824	 33.64546	 -1.61865	 66.26576	706.95001	 38.20	
 20.405	-150.835	 51.88945	-14.10864	 56.70336	 -1.46286	 37.10190	 -1.52763	 66.23638	706.97998	 38.20	
 20.397	-145.903	 51.97811	-12.51267	 54.68073	 -3.76459	 40.38727	 -1.46706	 66.24920	706.91998	 38.20	
 20.392	-141.062	 52.05031	-10.86312	 52.40431	 -5.87796	 43.32918	 -1.42717	 66.25041	706.90002	 38.20	
 20.396	-136.227	 52.12798	 -9.16851	 49.92936	 -7.81546	 46.41603	 -1.35898	 66.24506	706.88000	 38.20	
 20.408	-131.372	 52.16827	 -7.41728	 47.19852	 -9.57815	 49.14177	 -1.31970	 66.23097	706.81000	 38.20	
 20.410	-126.511	 52.24139	 -5.44567	 44.22751	-11.18955	 51.60321	 -1.27042	 66.23862	706.98999	 38.20	
 20.400	-121.604	 52.33331	 -3.21201	 41.07507	-12.61624	 53.90629	 -1.22138	 66.27220	706.88000	 38.20	
 20.403	-116.741	 52.37412	 -0.71534	 37.83578	-13.81917	 55.90475	 -1.17032	 66.27492	706.95001	 38.20	
 20.413	-111.900	 52.44267	  2.08594	 34.46215	-14.73010	 57.56376	 -1.12388	 66.24713	706.83002	 38.20	
 20.398	-107.004	 52.53497	  5.09656	 30.98007	-15.51780	 58.89991	 -1.10066	 66.25082	706.90002	 38.20	
 20.394	-102.132	 52.63845	  8.20804	 27.55313	-16.08108	 59.89904	 -1.10504	 66.27968	706.96002	 38.20	
 20.403	-97.332	 52.72416	 11.36869	 24.11786	-16.53796	 60.64028	 -1.11248	 66.28553	706.84998	 38.20	
 20.392	-92.440	 52.82433	 14.60994	 20.85289	-16.38621	 60.95719	 -1.13737	 66.26265	706.78998	 38.20	
 20.392	-87.560	 52.90797	 17.64030	 17.88879	-16.25388	 61.00408	 -1.23092	 66.23483	706.85999	 38.20	
 20.403	-82.668	 52.97164	 20.96065	 14.79428	-16.24807	 60.77566	 -1.26949	 66.24726	706.88000	 38.20	
 20.394	-77.868	 53.12648	 24.49436	 11.52238	-15.73763	 60.20139	 -1.27918	 66.25335	706.87000	 38.20	
 20.398	-72.996	 53.22449	 28.19892	  8.40323	-15.04581	 59.28404	 -1.28767	 66.22401	706.83002	 38.20	
 20.413	-68.100	 53.32854	 31.86639	  5.57009	-14.23409	 58.15889	 -1.33585	 66.26274	706.91998	 38.20	
 20.403	-63.259	 53.47699	 35.37443	  2.92411	-13.12896	 56.61158	 -1.35775	 66.25944	706.90997	 38.20	
 20.400	-58.396	 53.65598	 38.76592	  0.47876	-11.63042	 54.68526	 -1.36563	 66.25435	706.91998	 38.20	
 20.410	-53.489	 53.80488	 42.05943	 -1.74453	 -9.95240	 52.47860	 -1.44266	 66.24434	706.89001	 38.20	
 20.408	-48.628	 53.88957	 45.15960	 -3.69646	 -8.44665	 50.04719	 -1.53448	 66.25190	706.90002	 38.20	
 20.396	-43.773	 53.93926	 47.97740	 -5.65327	 -6.79339	 47.34595	 -1.59076	 66.23325	706.84998	 38.20	
 20.392	-38.938	 53.99357	 50.52771	 -7.46448	 -4.74225	 44.36804	 -1.62514	 66.23763	706.89001	 38.20	
 20.397	-34.097	 54.09638	 52.89473	 -8.96109	 -2.24568	 41.29102	 -1.70386	 66.27858	706.96997	 38.20	
 20.405	-29.165	 54.14591	 54.99709	-10.35836	  0.45638	 38.18950	 -1.77278	 66.26163	706.84003	 38.20	
 20.401	-24.295	 54.18343	 56.69188	-11.43160	  3.26285	 34.84355	 -1.89222	 66.25379	706.94000	 38.20	
 20.392	-19.504	 54.26736	 58.10551	-12.24311	  6.25998	 31.33151	 -1.98812	 66.27110	706.94000	 38.20	
 20.410	-14.577	 54.29192	 59.22269	-12.85081	  9.42029	 27.52727	 -2.11525	 66.26377	706.96002	 38.20	
 20.407	 -9.736	 54.31789	 59.92826	-13.30304	 12.60924	 24.19736	 -2.25176	 66.28201	706.83002	 38.20	
 20.401	 -4.847	 54.29602	 60.33217	-13.54830	 16.00703	 20.62579	 -2.42980	 66.22372	706.89001	 38.20	
 20.400	  0.000	 54.32140	 60.44814	-13.49546	 19.21971	 17.24854	 -2.63520	 66.26947	706.94000	 38.20	
 20.401	  4.847	 54.29097	 60.20029	-13.28561	 22.25678	 14.01140	 -2.84730	 66.24698	706.94000	 38.20	
 20.407	  9.736	 54.20112	 59.66618	-13.30662	 25.69791	 10.88124	 -3.05499	 66.26054	706.91998	 38.20	
 20.410	 14.577	 54.12447	 58.78140	-12.97154	 29.28059	  7.68115	 -3.21907	 66.26053	706.90002	 38.20	
 20.392	 19.504	 54.09766	 57.53914	-12.25628	 32.91425	  4.52490	 -3.34222	 66.27456	707.00000	 38.20	
 20.401	 24.295	 54.01093	 55.98751	-11.25562	 36.19732	  1.61009	 -3.49801	 66.26381	706.95001	 38.20	
 20.405	 29.165	 53.99010	 54.11992	-10.08385	 39.49028	 -0.89209	 -3.62296	 66.29005	706.96002	 38.20	
 20.397	 34.097	 53.93885	 51.89293	 -8.56017	 42.67611	 -3.08754	 -3.81829	 66.22433	706.84998	 38.20	
 20.392	 38.938	 53.92829	 49.50577	 -7.01250	 45.77783	 -5.19740	 -3.97588	 66.27808	706.89001	 38.20	
 20.396	 43.773	 53.78823	 46.82882	 -5.42888	 48.52782	 -7.23459	 -4.03983	 66.24893	706.85999	 38.20	
 20.408	 48.628	 53.65226	 43.87058	 -3.68501	 51.06100	 -9.15144	 -4.12566	 66.25752	706.85999	 38.20	
 20.410	 53.489	 53.56219	 40.74351	 -1.74730	 53.41505	-10.90279	 -4.19437	 66.27601	706.87000	 38.20	
 20.400	 58.396	 53.42889	 37.45739	  0.58578	 55.51763	-12.41856	 -4.24101	 66.25931	706.85999	 38.20	
 20.403	 63.259	 53.26088	 33.99734	  3.00386	 57.33428	-13.81248	 -4.30150	 66.22590	706.87000	 38.20	
 20.413	 68.100	 53.13865	 30.38403	  5.70036	 58.79940	-14.93018	 -4.42822	 66.24017	706.77002	 38.20	
 20.398	 72.996	 53.06344	 26.71828	  8.58484	 59.96178	-15.75156	 -4.50766	 66.29546	706.84003	 38.20	
 20.394	 77.868	 52.94893	 23.12855	 11.57252	 60.78340	-16.36565	 -4.58882	 66.30154	706.84998	 38.20	
 20.403	 82.668	 52.79438	 19.65163	 14.62708	 61.21969	-16.69725	 -4.68197	 66.24924	706.88000	 38.10	
 20.392	 87.560	 52.65195	 16.55702	 17.32024	 61.39042	-17.07906	 -4.61620	 66.23117	706.87000	 38.10	
 20.392	 92.440	 52.52850	 13.32160	 20.50194	 61.31246	-17.28633	 -4.53551	 66.26849	706.90997	 38.20	
 20.403	 97.332	 52.35561	  9.91723	 24.02236	 60.85566	-17.05479	 -4.48832	 66.23920	706.91998	 38.20	
 20.394	102.132	 52.29691	  6.70740	 27.54269	 60.08524	-16.48156	 -4.45170	 66.25864	706.95001	 38.20	
 20.398	107.004	 52.15288	  3.52781	 30.94412	 58.96964	-15.78411	 -4.42914	 66.20351	706.96002	 38.20	
 20.413	111.900	 52.07263	  0.56381	 34.35838	 57.58787	-14.87875	 -4.37126	 66.24613	706.87000	 38.20	
 20.403	116.741	 52.03798	 -2.03081	 37.76044	 55.73637	-13.64997	 -4.31865	 66.26139	706.94000	 38.20	
 20.400	121.604	 52.02233	 -4.30876	 41.06548	 53.63232	-12.22266	 -4.31629	 66.27374	706.78003	 38.20	
 20.410	126.511	 51.93378	 -6.43784	 44.14085	 51.31622	-10.74670	 -4.19913	 66.24348	706.78998	 38.20	
 20.408	131.372	 51.83539	 -8.51232	 47.08229	 48.78984	 -9.21169	 -4.07481	 66.24393	706.78003	 38.20	
 20.396	136.227	 51.83541	-10.35088	 49.84041	 45.99889	 -7.40991	 -3.95594	 66.28235	706.90002	 38.10	
 20.392	141.062	 51.76708	-11.99307	 52.34255	 42.89112	 -5.45005	 -3.82274	 66.24474	706.91998	 38.10	
 20.397	145.903	 51.69228	-13.46811	 54.60106	 39.79983	 -3.41365	 -3.71300	 66.23865	706.91998	 38.10	
 20.405	150.835	 51.61246	-14.86584	 56.61086	 36.49694	 -1.25024	 -3.54719	 66.26494	706.79999	 38.10	
 20.401	155.705	 51.54270	-16.04029	 58.29258	 32.99027	  1.31578	 -3.44938	 66.22791	706.87000	 38.10	
 20.392	160.496	 51.56847	-16.91772	 59.67619	 29.37558	  3.97253	 -3.29307	 66.27628	706.85999	 38.10	
 20.410	165.423	 51.46813	-17.73786	 60.70798	 25.75311	  7.00844	 -3.14352	 66.24495	706.91998	 38.10	
 20.407	170.264	 51.48906	-18.19474	 61.48057	 22.32917	 10.17310	 -2.97241	 66.26630	706.89001	 38.10	
 20.401	175.153	 51.49097	-18.37433	 61.91454	 18.81060	 13.52617	 -2.76898	 66.25580	706.90002	 38.10	
  0.141	 45.000	 66.35928	 27.16364	 31.12460	 29.28606	 28.27079	  1.56789	 66.25867	706.85999	 38.10	
  4.001	128.691	 65.98399	 20.98772	 36.19297	 34.96517	 21.31983	  1.20243	 66.24749	706.87000	 38.20	
  4.002	 76.995	 66.18900	 28.19972	 29.11650	 36.95100	 19.91298	  1.43821	 66.28445	706.91998	 38.20	
  4.002	 25.892	 66.26260	 34.27349	 23.65328	 32.47409	 24.41136	  1.53580	 66.23784	706.90997	 38.10	
  4.002	-25.892	 66.25062	 34.32585	 23.48348	 25.17381	 31.76668	  1.39825	 66.23962	706.94000	 38.20	
  4.002	-76.995	 66.17266	 28.54214	 28.92348	 20.34936	 36.36456	  1.15387	 66.28972	706.95001	 38.10	
  4.001	-128.691	 65.99818	 21.23154	 36.00477	 21.68408	 34.57976	  1.01870	 66.26844	706.88000	 38.20	
  4.000	180.000	 65.90583	 18.04139	 39.21424	 28.19646	 27.87034	  1.02026	 66.26852	706.84998	 38.20	
  8.000	180.000	 64.34041	  9.32913	 46.34044	 26.52929	 26.30517	  0.02579	 66.28082	706.84998	 38.20	
  7.991	-152.370	 64.40477	 11.17727	 44.32439	 18.82957	 34.29355	 -0.04310	 66.26737	706.82001	 38.20	
  7.997	-124.550	 64.55325	 16.07592	 38.85043	 13.75949	 40.62830	 -0.08774	 66.24958	707.01001	 38.20	
  8.006	-96.837	 64.76410	 23.39966	 31.23731	 11.55522	 43.88984	  0.00566	 66.24917	706.95001	 38.20	
  7.988	-69.228	 65.03148	 31.49749	 23.76310	 12.63786	 42.96675	  0.16166	 66.28945	706.96002	 38.20	
  7.997	-41.563	 65.23562	 38.32492	 17.78569	 16.63272	 38.19388	  0.16256	 66.27705	706.95001	 38.20	
  8.008	-13.821	 65.31476	 42.37315	 14.25747	 23.70067	 30.75481	  0.66694	 66.27079	706.92999	 38.20	
  8.008	 13.821	 65.26221	 42.28690	 14.31190	 31.85152	 22.45576	  0.85073	 66.25353	706.89001	 38.20	
  7.997	 41.563	 65.16956	 37.97218	 17.69161	 39.04148	 15.76875	  0.81253	 66.25333	706.90997	 38.20	
  7.988	 69.228	 65.00430	 30.90192	 23.67419	 43.72215	 11.73652	  0.67480	 66.28341	706.92999	 38.20	
  8.006	 96.837	 64.73408	 22.72789	 31.20576	 44.39478	 10.90415	  0.48079	 66.26074	706.89001	 38.20	
  7.997	124.550	 64.53263	 15.55738	 38.83074	 40.99170	 13.49882	  0.29116	 66.26475	706.90002	 38.20	
  7.991	152.370	 64.35957	 10.91910	 44.37829	 34.46649	 18.82005	  0.11286	 66.22995	706.96997	 38.10	
 12.009	161.059	 61.48581	  1.12672	 51.23246	 32.20623	 16.25237	 -1.87620	 66.27362	706.83002	 38.10	
 12.013	142.081	 61.60183	  4.17903	 47.09521	 39.89141	  9.73325	 -1.71956	 66.26762	706.96997	 38.10	
 12.006	123.113	 61.77044	  9.33394	 40.76752	 46.25032	  4.94583	 -1.69458	 66.27803	706.98999	 38.10	
 12.007	104.200	 61.99271	 16.21446	 32.97837	 50.02976	  2.33451	 -1.48633	 66.27409	707.00000	 38.10	
 11.989	 85.301	 62.28221	 24.32840	 24.99611	 51.08189	  1.91718	 -1.38387	 66.24524	707.04999	 38.10	
 12.013	 66.294	 62.49847	 32.76109	 17.50405	 49.24724	  3.24541	 -1.33965	 66.23819	707.04999	 38.10	
 12.012	 47.388	 62.68565	 40.18550	 11.34311	 44.73951	  6.96734	 -1.19609	 66.23286	707.00000	 38.10	
 11.990	 28.440	 62.91334	 46.01613	  7.21852	 37.84495	 12.97470	 -1.00346	 66.26548	707.02002	 38.10	
 11.991	  9.464	 62.99321	 49.12067	  5.04232	 30.01308	 20.29873	 -0.89351	 66.22779	707.04999	 38.10	
 11.991	 -9.464	 63.09557	 49.28474	  5.00304	 21.66977	 28.72554	 -1.11659	 66.26818	706.97998	 38.10	
 11.990	-28.440	 62.97876	 46.52283	  7.21436	 14.33242	 36.76908	 -1.19891	 66.23455	706.97998	 38.10	
 12.012	-47.388	 62.83611	 41.07869	 11.46382	  8.39135	 43.75417	 -1.42622	 66.26545	707.15002	 38.10	
 12.013	-66.294	 62.60839	 33.73919	 17.67566	  4.42224	 48.54880	 -1.44924	 66.28208	707.12000	 38.20	
 11.989	-85.301	 62.33801	 25.27976	 25.04159	  2.59197	 50.61256	 -1.37569	 66.26792	707.07001	 38.20	
 12.007	-104.200	 62.07459	 17.20747	 32.97365	  2.86212	 49.75843	 -1.49181	 66.26768	706.96002	 38.20	
 12.006	-123.113	 61.85263	 10.31552	 40.70845	  5.18260	 46.07607	 -1.41362	 66.25330	707.04999	 38.20	
 12.013	-142.081	 61.65612	  4.87138	 47.08041	  9.73519	 39.79260	 -1.59118	 66.26048	707.09998	 38.10	
 12.009	-161.059	 61.53700	  1.52945	 51.14271	 16.16690	 32.27991	 -1.65318	 66.24495	707.08002	 38.10	
 16.000	180.000	 57.38261	 -8.64820	 57.67343	 20.53495	 20.70864	 -2.44125	 66.22456	707.03998	 38.10	
 15.990	-165.604	 57.47487	 -7.95309	 56.64814	 12.92583	 28.93439	 -2.12492	 66.25363	706.97998	 38.10	
 16.002	-151.165	 57.54576	 -5.53114	 53.44180	  6.13547	 37.21851	 -1.90929	 66.21039	707.03998	 38.10	
 16.002	-136.836	 57.68166	 -1.62265	 48.29274	  0.48399	 44.33481	 -1.61221	 66.19514	706.98999	 38.10	
 15.995	-122.439	 57.91898	  3.94974	 41.62894	 -3.52503	 50.22716	 -1.51256	 66.21667	706.96997	 38.10	
 15.993	-107.966	 58.17736	 10.66468	 33.86319	 -5.78311	 54.19198	 -1.48939	 66.21290	706.94000	 38.20	
 16.005	-93.629	 58.40898	 18.16307	 25.79106	 -6.88266	 56.12232	 -1.45295	 66.22078	706.97998	 38.20	
 15.992	-79.234	 58.66055	 26.47260	 18.14392	 -6.34181	 55.67710	 -1.51385	 66.24020	706.92999	 38.20	
 16.009	-64.774	 58.88884	 34.94553	 10.98178	 -4.30843	 52.95782	 -1.67895	 66.19273	706.90002	 38.20	
 15.997	-50.364	 59.17276	 42.47364	  4.96533	 -0.64356	 48.24948	 -1.81948	 66.21770	706.87000	 38.10	
 15.997	-36.045	 59.37150	 48.72818	  0.43537	  4.58210	 41.61291	 -1.86883	 66.24926	706.88000	 38.10	
 16.000	-21.597	 59.49574	 53.02285	 -2.53334	 11.52032	 33.93244	 -2.04871	 66.24263	706.76001	 38.10	
 16.003	 -7.169	 59.55413	 55.18035	 -3.95355	 18.76160	 25.46008	 -2.17949	 66.24315	706.87000	 38.10	
 16.003	  7.169	 59.47077	 55.00215	 -3.82569	 27.22879	 17.47003	 -2.21624	 66.20763	706.91998	 38.10	
 16.000	 21.597	 59.35009	 52.51855	 -2.43316	 35.45239	  9.93422	 -2.29020	 66.23771	707.03003	 38.10	
 15.997	 36.045	 59.19024	 47.89410	  0.45709	 43.02745	  3.42989	 -2.53053	 66.25437	706.95001	 38.10	
 15.997	 50.364	 59.03128	 41.41867	  4.99375	 49.23798	 -1.68891	 -2.74923	 66.23426	706.88000	 38.20	
 16.009	 64.774	 58.71864	 33.66073	 10.76761	 53.81824	 -5.09075	 -2.88025	 66.23949	706.89001	 38.10	
 15.992	 79.234	 58.44402	 25.11450	 18.01179	 56.27288	 -7.04461	 -3.04318	 66.20424	706.91998	 38.10	
 16.005	 93.629	 58.18893	 16.99901	 25.68554	 56.56754	 -7.47213	 -3.02473	 66.26511	706.85999	 38.10	
 15.993	107.966	 57.83015	  9.36851	 33.66285	 54.46000	 -6.47574	 -3.07804	 66.17248	706.82001	 38.20	
 15.995	122.439	 57.70553	  2.74626	 41.61871	 50.29654	 -3.36990	 -3.15858	 66.22321	706.90997	 38.20	
 16.002	136.836	 57.57328	 -2.57476	 48.27343	 44.23675	  0.60718	 -3.03380	 66.25049	706.83002	 38.20	
 16.002	151.165	 57.37358	 -6.07717	 53.37807	 36.84190	  6.29405	 -3.06029	 66.19336	706.91998	 38.20	
 15.990	165.604	 57.38713	 -7.98196	 56.57974	 28.72770	 13.16399	 -2.84264	 66.21816	706.90002	 38.20	
 20.003	168.362	 52.05651	-17.13906	 60.83511	 24.03835	  9.46767	 -3.04631	 66.22276	706.87000	 38.20	
 20.008	156.764	 52.10547	-15.48159	 58.37186	 32.32534	  2.47934	 -3.42213	 66.23593	706.90002	 38.20	
 20.000	145.147	 52.26629	-12.48701	 54.08432	 40.25748	 -3.07497	 -3.69511	 66.24913	706.90002	 38.20	
 19.995	133.545	 52.43227	 -8.66068	 48.29620	 47.44399	 -7.65865	 -4.00268	 66.25637	706.82001	 38.20	
 20.009	121.926	 52.58979	 -3.84378	 41.35837	 53.25909	-11.31008	 -4.26063	 66.27189	706.85999	 38.20	
 20.005	110.327	 52.72455	  2.07679	 33.55611	 57.72272	-14.29214	 -4.32804	 66.25224	706.85999	 38.20	
 19.989	 98.733	 52.92723	  9.46233	 25.49544	 60.24153	-15.97063	 -4.34493	 66.22802	706.90997	 38.20	
 19.999	 87.075	 53.25706	 17.29895	 17.53675	 60.98626	-16.10558	 -4.49348	 66.20440	706.78998	 38.20	
 19.992	 75.457	 53.57177	 25.14872	 10.66471	 60.00999	-15.14895	 -4.45273	 66.26110	706.91998	 38.20	
 20.009	 63.844	 53.86386	 33.69475	  3.99406	 57.21859	-13.10365	 -4.24354	 66.27073	706.78003	 38.20	
 19.989	 52.269	 54.20815	 41.47575	 -1.44824	 52.61602	 -9.66444	 -4.06934	 66.28699	706.84998	 38.20	
 19.999	 40.602	 54.40004	 48.42345	 -5.73087	 46.62054	 -5.22342	 -3.91779	 66.24152	706.67999	 38.20	
 20.004	 29.051	 54.52628	 53.83211	 -9.27262	 39.43498	 -0.25770	 -3.57010	 66.26330	706.81000	 38.20	
 20.005	 17.433	 54.60567	 57.69597	-11.73970	 31.56304	  6.48235	 -3.23983	 66.22353	706.71002	 38.10	
 20.006	  5.780	 54.80835	 59.72117	-12.42479	 23.18331	 13.93073	 -2.83257	 66.26803	706.77002	 38.10	
 20.006	 -5.780	 54.86008	 59.87599	-12.57324	 15.80224	 21.70788	 -2.43003	 66.24881	706.72998	 38.10	
 20.005	-17.433	 54.78240	 58.19411	-11.67909	  8.18082	 29.92671	 -2.12012	 66.24306	706.72998	 38.10	
 20.004	-29.051	 54.65729	 54.69912	 -9.58801	  1.24896	 38.12595	 -1.82362	 66.23851	706.78998	 38.10	
 19.999	-40.602	 54.52843	 49.50917	 -6.07171	 -4.62775	 45.34900	 -1.65274	 66.26211	706.78998	 38.10	
 19.989	-52.269	 54.41209	 42.83243	 -1.49317	 -8.75993	 51.63387	 -1.46141	 66.23053	706.84003	 38.10	
 20.009	-63.844	 54.08123	 35.24939	  3.85020	-12.16511	 56.45012	 -1.36955	 66.25903	706.84003	 38.10	
 19.992	-75.457	 53.77488	 26.77155	 10.55553	-14.47140	 59.37582	 -1.30291	 66.20963	706.83002	 38.10	
 19.999	-87.075	 53.52445	 18.59675	 17.97652	-15.21185	 60.56208	 -1.24473	 66.22225	706.83002	 38.10	
 19.989	-98.733	 53.28852	 10.96211	 25.59914	-15.39099	 59.96734	 -1.16508	 66.20337	706.76001	 38.10	
 20.005	-110.327	 53.08720	  3.65993	 33.66727	-14.07635	 57.68442	 -1.23383	 66.25920	706.95001	 38.20	
 20.009	-121.926	 52.92808	 -2.68998	 41.51758	-11.16621	 53.44238	 -1.31401	 66.23750	706.83002	 38.20	
 19.995	-133.545	 52.76806	 -7.39002	 48.42135	 -7.81925	 47.79020	 -1.42811	 66.21930	706.90997	 38.10	
 20.000	-145.147	 52.56035	-11.50140	 54.13157	 -3.45990	 40.82422	 -1.49361	 66.24031	706.88000	 38.10	
 20.008	-156.764	 52.35432	-14.88296	 58.40493	  2.15495	 33.06738	 -1.67317	 66.25025	706.88000	 38.10	
 20.003	-168.362	 52.19429	-16.87855	 60.90905	  9.20613	 24.63949	 -1.94717	 66.24400	706.82001	 38.10	
 20.000	180.000	 52.07278	-17.59700	 61.68651	 16.26036	 16.83918	 -2.48921	 66.22662	706.76001	 38.20	
