FileType=PCF
NHL=14
Date=05/30/19	09:40:04
Facility=APL
Serial=16071-2
Customer=NASA
NP=6
Mach=0.550000
Calibration=1:1
CalPts=490
TstPts=95
PortNumbering=AP Standard
Units=Torr C m/s kg/m^3 deg mm 
Theta[deg]	Phi[deg]	P1[Torr]	P2[Torr]	P3[Torr]	P4[Torr]	P5[Torr]	P6[Torr]	Pt[Torr]	Ps[Abs,Torr]	Ts[C]	
  0.000	  0.000	163.41507	 72.98395	 82.83081	 73.77443	 78.25916	  6.77693	163.27980	702.33002	 24.70	
  1.691	128.401	163.39291	 67.68593	 87.51855	 79.69920	 71.23254	  6.66714	163.33607	702.37000	 24.70	
  1.692	 77.194	163.55763	 74.83447	 81.05024	 81.78925	 69.66531	  6.70916	163.41896	702.37000	 24.80	
  1.699	 26.182	163.64716	 80.25733	 75.72067	 77.66335	 74.08908	  6.68163	163.51044	702.39001	 24.90	
  1.699	-26.182	163.66696	 80.23327	 75.69867	 70.36639	 81.47079	  6.63394	163.55318	702.28998	 24.90	
  1.692	-77.194	163.70844	 74.88308	 80.98379	 66.03680	 85.66336	  6.59266	163.63844	702.41998	 25.00	
  1.691	-128.401	163.70764	 67.82057	 87.62376	 67.33443	 84.17992	  6.57487	163.69911	702.42999	 25.00	
  1.700	180.000	163.78435	 64.89335	 90.70101	 73.84151	 78.15859	  6.60870	163.76889	702.32001	 25.10	
  3.400	180.000	163.35536	 56.44714	 98.26984	 72.87949	 77.68685	  6.14074	163.78232	702.40997	 25.20	
  3.388	-152.325	163.38565	 58.47511	 96.27120	 65.35880	 84.93604	  6.13984	163.88840	702.40002	 25.20	
  3.397	-124.529	163.49118	 63.49623	 91.17814	 59.89605	 90.58533	  6.14319	163.91049	702.42999	 25.30	
  3.399	-96.763	163.62540	 70.83821	 84.13837	 57.50343	 93.49896	  6.15729	163.98941	702.34998	 25.30	
  3.394	-69.283	163.80945	 78.56422	 76.77361	 58.61422	 92.56564	  6.18606	164.02519	702.35999	 25.40	
  3.400	-41.398	163.98296	 84.90997	 70.57082	 63.28742	 88.02854	  6.22263	164.05220	702.39001	 25.40	
  3.401	-14.021	164.13272	 88.67536	 67.26198	 70.24574	 81.43857	  6.28845	164.11185	702.46002	 25.50	
  3.401	 14.021	164.19218	 88.56484	 67.42970	 78.30593	 73.16086	  6.32154	164.11607	702.50000	 25.60	
  3.400	 41.398	164.26843	 85.04665	 70.83958	 85.20789	 66.48196	  6.40050	164.19164	702.40002	 25.70	
  3.394	 69.283	164.27405	 78.62077	 77.19067	 89.42984	 62.39630	  6.44704	164.22540	702.40997	 25.70	
  3.399	 96.763	164.19951	 70.90846	 84.54958	 90.06702	 61.55006	  6.40903	164.24731	702.31000	 25.80	
  3.397	124.529	164.08403	 63.37179	 91.76597	 86.91332	 64.31333	  6.35144	164.29541	702.46002	 25.90	
  3.388	152.325	163.93279	 58.59027	 96.72391	 80.54246	 70.02493	  6.24048	164.30034	702.37000	 25.90	
  5.099	161.165	163.05067	 49.86164	104.59814	 79.71080	 68.96299	  5.54171	164.34984	702.32001	 26.00	
  5.109	142.013	163.28273	 53.19452	100.90131	 87.25926	 62.09941	  5.64846	164.41650	702.45001	 26.00	
  5.095	123.033	163.59891	 58.92089	 95.01924	 93.25198	 57.41999	  5.80820	164.47124	702.37000	 26.00	
  5.105	104.191	163.83748	 65.79208	 87.86430	 96.92487	 54.79672	  5.85111	164.49646	702.40997	 26.10	
  5.093	 85.207	164.04276	 74.03305	 80.03674	 97.98708	 54.12849	  5.87284	164.52365	702.45001	 26.10	
  5.104	 66.290	164.23557	 81.91054	 72.51865	 96.37143	 55.67040	  5.86452	164.59782	702.34998	 26.20	
  5.094	 47.331	164.33682	 88.66548	 66.22633	 92.13714	 58.98854	  5.86773	164.64180	702.33002	 26.20	
  5.089	 28.397	164.41762	 94.06529	 61.61812	 85.96086	 64.96631	  5.80571	164.69798	702.42999	 26.30	
  5.096	  9.576	164.38884	 96.85632	 59.05565	 78.33410	 72.32566	  5.75853	164.69319	702.27002	 26.30	
  5.096	 -9.576	164.39597	 96.96236	 59.06907	 70.04075	 80.91084	  5.72172	164.77577	702.33002	 26.40	
  5.089	-28.397	164.28621	 94.57031	 61.37369	 62.57979	 88.28881	  5.68589	164.80046	702.37000	 26.50	
  5.094	-47.331	164.16226	 88.98951	 66.00422	 56.21228	 94.95343	  5.64058	164.85184	702.33002	 26.50	
  5.104	-66.290	163.99976	 82.29273	 72.33012	 51.63735	100.04929	  5.62608	164.89563	702.34998	 26.50	
  5.093	-85.207	163.79076	 74.62984	 79.75459	 49.50412	101.92665	  5.59685	164.90306	702.41998	 26.60	
  5.105	-104.191	163.64172	 66.55229	 87.48813	 49.79442	101.39330	  5.57507	164.90196	702.40002	 26.60	
  5.095	-123.033	163.64438	 59.46832	 94.88866	 52.73621	 98.31866	  5.60292	165.01357	702.38000	 26.70	
  5.109	-142.013	163.59468	 53.70909	100.86439	 57.61457	 92.04720	  5.54120	164.99603	702.46002	 26.80	
  5.099	-161.165	163.64063	 50.16749	104.80482	 64.48866	 85.00725	  5.57968	165.05919	702.38000	 26.80	
  5.100	180.000	163.73155	 49.03255	106.21272	 72.19617	 77.51124	  5.57426	165.10475	702.38000	 26.90	
  6.800	180.000	162.31535	 40.69521	113.59672	 70.70126	 76.17942	  4.99381	165.09964	702.27002	 27.00	
  6.796	-166.229	162.37505	 41.82350	112.58717	 63.11992	 83.80399	  5.00732	165.18918	702.41998	 27.00	
  6.808	-152.311	162.35419	 44.54961	109.74775	 56.08548	 91.32380	  5.04419	165.20752	702.38000	 27.00	
  6.795	-138.383	162.44096	 48.34639	104.75546	 50.33207	 98.29302	  5.06760	165.25786	702.34003	 27.00	
  6.792	-124.591	162.48256	 53.62406	 98.80406	 46.07125	103.63005	  5.05725	165.24919	702.34003	 27.10	
  6.787	-110.754	162.58400	 60.35268	 91.77754	 42.79121	106.85492	  5.03336	165.25946	702.42999	 27.20	
  6.800	-96.985	162.76024	 67.80848	 84.32675	 41.09788	108.89761	  5.11551	165.30492	702.39001	 27.20	
  6.800	-83.015	162.96643	 75.63625	 76.80853	 41.56368	108.83472	  5.16784	165.30861	702.28998	 27.20	
  6.787	-69.246	163.24229	 83.13778	 69.78748	 43.49266	106.99387	  5.20369	165.37714	702.34003	 27.30	
  6.792	-55.409	163.50865	 90.49094	 63.40900	 47.08809	103.23789	  5.20588	165.37527	702.27002	 27.30	
  6.795	-41.617	163.79761	 96.77980	 58.13856	 52.36613	 98.35684	  5.21186	165.44356	702.28998	 27.40	
  6.808	-27.689	163.94148	101.14220	 53.90100	 58.72880	 90.99682	  5.26175	165.43121	702.28003	 27.40	
  6.796	-13.771	164.20300	103.96783	 51.41424	 66.12769	 83.63277	  5.24664	165.50632	702.31000	 27.50	
  6.800	  0.000	164.31453	104.95078	 50.48518	 73.79132	 75.71674	  5.19809	165.52934	702.29999	 27.50	
  6.796	 13.771	164.41364	103.98894	 51.47194	 81.75282	 67.97023	  5.22730	165.56821	702.35999	 27.50	
  6.808	 27.689	164.44913	101.10383	 54.06697	 89.16998	 60.85986	  5.20748	165.61354	702.37000	 27.60	
  6.795	 41.617	164.40689	 96.58704	 58.30988	 95.72027	 55.43283	  5.20856	165.56845	702.28998	 27.60	
  6.792	 55.409	164.38438	 89.78645	 63.88852	100.80590	 50.77442	  5.22613	165.56671	702.40002	 27.60	
  6.787	 69.246	164.33292	 82.86358	 70.51041	104.26289	 47.01830	  5.24223	165.59856	702.38000	 27.70	
  6.800	 83.015	164.22005	 75.45399	 77.69596	105.96963	 45.28090	  5.26914	165.64618	702.39001	 27.70	
  6.800	 96.985	164.08421	 67.24767	 85.38722	105.69234	 45.46611	  5.27876	165.69684	702.37000	 27.70	
  6.787	110.754	163.93217	 59.89682	 92.84445	103.24940	 47.65529	  5.24149	165.70566	702.40002	 27.80	
  6.792	124.591	163.71680	 53.35613	 99.70862	 99.10596	 51.72559	  5.23446	165.72774	702.40002	 27.80	
  6.795	138.383	163.54872	 48.70430	105.55299	 93.52290	 56.22274	  5.17197	165.72566	702.42999	 27.90	
  6.808	152.311	163.37169	 44.66457	109.94304	 86.44797	 61.59183	  5.00252	165.76147	702.40997	 27.90	
  6.796	166.229	163.26236	 42.12700	113.08225	 78.76468	 68.66540	  4.95462	165.77669	702.35999	 28.00	
  8.491	168.704	161.46066	 33.18899	119.86008	 77.02966	 67.09630	  4.67293	165.84656	702.40002	 28.00	
  8.502	157.493	161.64198	 34.77879	117.72185	 85.01074	 60.17634	  4.69237	165.88962	702.34003	 28.10	
  8.494	146.194	161.84674	 38.16423	113.93752	 92.64848	 54.15469	  4.82220	165.90569	702.33002	 28.10	
  8.495	135.039	162.05540	 43.00288	108.98993	 99.27335	 48.65647	  4.91636	165.90445	702.48999	 28.20	
  8.487	123.723	162.23056	 48.91759	102.31644	104.95047	 42.74094	  4.89107	165.90559	702.45001	 28.30	
  8.492	112.575	162.53941	 54.74135	 95.39294	109.25890	 39.55473	  4.79714	165.97713	702.37000	 28.30	
  8.510	101.220	162.81290	 62.05472	 87.88367	112.54497	 37.59899	  4.76069	166.02364	702.41998	 28.40	
  8.500	 90.000	163.04485	 69.90709	 80.22284	113.55376	 37.13321	  4.73432	166.01097	702.44000	 28.50	
  8.510	 78.780	163.24643	 77.96593	 72.75419	113.17374	 37.77587	  4.73877	166.04477	702.40997	 28.50	
  8.492	 67.425	163.40623	 85.48327	 65.55384	111.01527	 39.89946	  4.76611	166.02243	702.34998	 28.50	
  8.487	 56.277	163.44102	 93.03309	 59.03567	107.35086	 42.88253	  4.79041	165.96201	702.41998	 28.50	
  8.495	 44.961	163.60965	 99.63899	 53.45706	102.48691	 47.43884	  4.82820	166.07347	702.40002	 28.50	
  8.494	 33.806	163.63599	104.86732	 48.64981	 95.78529	 53.70731	  4.86480	166.07285	702.46997	 28.60	
  8.502	 22.507	163.59882	109.37157	 45.17656	 88.72522	 59.42201	  4.95846	166.06952	702.33002	 28.60	
  8.491	 11.296	163.62398	111.88429	 43.25727	 81.17409	 66.63783	  5.03613	166.12454	702.42999	 28.60	
  8.500	  0.000	163.55254	112.90710	 42.31623	 72.96230	 74.50626	  5.11607	166.13397	702.44000	 28.70	
  8.491	-11.296	163.40340	112.20876	 42.75557	 64.98374	 82.60982	  5.09850	166.11194	702.40997	 28.70	
  8.502	-22.507	163.26549	109.81551	 44.86276	 57.55750	 90.27370	  5.14620	166.12254	702.41998	 28.80	
  8.494	-33.806	163.13872	105.94751	 48.29452	 50.57721	 98.32964	  5.17022	166.19463	702.48999	 28.80	
  8.495	-44.961	162.90620	100.24955	 52.94484	 44.61456	104.22927	  5.11208	166.16452	702.35999	 28.90	
  8.487	-56.277	162.63092	 94.18666	 58.40768	 39.59994	109.40594	  5.05838	166.17528	702.39001	 28.90	
  8.492	-67.425	162.42610	 86.45112	 64.81023	 36.22279	113.81441	  5.09904	166.21225	702.41998	 28.90	
  8.510	-78.780	162.21889	 78.49740	 72.01110	 33.98232	116.32677	  5.07345	166.27072	702.46997	 29.00	
  8.500	-90.000	162.01439	 70.85443	 79.34308	 33.00547	117.02284	  5.01984	166.29161	702.47998	 29.00	
  8.510	-101.220	161.80167	 62.98354	 86.98988	 33.32291	116.26578	  4.93500	166.27776	702.35999	 29.00	
  8.492	-112.575	161.69151	 55.61540	 94.69153	 35.02483	113.76517	  4.90554	166.28139	702.45001	 29.10	
  8.487	-123.723	161.67468	 48.97908	101.78180	 38.19303	109.91434	  4.85576	166.33931	702.40002	 29.10	
  8.495	-135.039	161.61678	 43.80438	108.12554	 42.46283	104.73766	  4.85207	166.37050	702.45001	 29.20	
  8.494	-146.194	161.61314	 39.23985	113.30416	 48.41505	 98.33582	  4.86264	166.37726	702.46002	 29.20	
  8.502	-157.493	161.64056	 35.05130	117.31206	 54.36166	 91.16737	  4.80619	166.38100	702.52002	 29.20	
  8.491	-168.704	161.66537	 32.95671	120.10995	 61.55727	 83.23479	  4.79266	166.36708	702.46002	 29.20	
  8.500	180.000	161.83038	 32.58604	121.00606	 69.38653	 75.08193	  4.72982	166.40271	702.53003	 29.30	
 10.200	180.000	159.46133	 23.69300	127.29134	 67.13293	 73.21177	  4.78429	166.45708	702.54999	 29.40	
 10.191	-170.497	159.33981	 24.10781	126.44639	 59.24334	 81.52348	  4.83207	166.44313	702.45001	 29.40	
 10.210	-161.034	159.24240	 25.55805	124.43660	 52.24430	 89.66203	  4.87012	166.46365	702.33002	 29.50	
 10.194	-151.526	159.22433	 28.54800	120.63428	 45.46506	 97.08526	  4.90138	166.43802	702.45001	 29.50	
 10.190	-142.105	159.23129	 32.52840	116.06715	 39.07099	103.94321	  4.85698	166.44333	702.34003	 29.60	
 10.215	-132.646	159.18558	 38.20972	110.36417	 33.81644	110.16360	  4.87531	166.41629	702.38000	 29.60	
 10.203	-123.092	159.32864	 44.24878	103.77694	 29.80369	115.36137	  4.95623	166.45515	702.40997	 29.60	
 10.192	-113.678	159.44701	 50.40379	 96.55708	 26.82308	119.33910	  4.99685	166.46223	702.53003	 29.60	
 10.208	-104.249	159.54025	 57.60408	 88.87035	 24.82723	122.25585	  5.07380	166.49176	702.47998	 29.70	
 10.210	-94.801	159.76262	 65.22878	 81.12254	 24.00347	123.73721	  5.09682	166.52052	702.41998	 29.70	
 10.210	-85.199	159.94279	 73.00782	 73.66585	 24.60696	123.69006	  5.12634	166.47392	702.40002	 29.80	
 10.208	-75.751	160.19591	 81.09683	 66.25819	 25.65082	122.37883	  5.15081	166.50821	702.31000	 29.80	
 10.192	-66.322	160.48584	 89.34896	 59.35751	 28.15597	119.55508	  5.20524	166.50008	702.40997	 29.80	
 10.203	-56.908	160.75281	 96.64052	 52.94012	 31.64182	115.60500	  5.21524	166.48167	702.34003	 29.90	
 10.215	-47.354	161.04102	103.49741	 47.16690	 36.25874	110.40370	  5.23925	166.47617	702.52002	 29.90	
 10.190	-37.895	161.38205	109.20391	 42.35044	 42.00734	104.24267	  5.27069	166.51588	702.44000	 29.90	
 10.194	-28.474	161.60255	113.70396	 38.64823	 48.64614	 97.26644	  5.22723	166.52565	702.44000	 30.00	
 10.210	-18.966	161.84366	117.18391	 35.94023	 56.01250	 88.89702	  5.23012	166.57811	702.51001	 30.00	
 10.191	 -9.503	162.02936	119.11854	 34.43526	 63.75583	 81.07547	  5.22102	166.55554	702.46997	 30.10	
 10.200	  0.000	162.16998	119.77433	 34.18723	 71.67999	 72.96098	  5.19056	166.57491	702.46997	 30.10	
 10.191	  9.503	162.23357	119.01268	 34.80766	 79.84716	 65.06979	  5.08102	166.56693	702.50000	 30.10	
 10.210	 18.966	162.18077	116.88712	 36.34752	 87.70261	 57.63011	  5.01519	166.52577	702.46997	 30.10	
 10.194	 28.474	162.20517	113.34425	 39.10980	 95.33113	 51.33253	  4.91354	166.56076	702.46997	 30.10	
 10.190	 37.895	162.25455	108.67702	 43.10065	102.05108	 44.65250	  4.80459	166.57874	702.54999	 30.20	
 10.215	 47.354	162.14590	102.54530	 47.88561	108.04987	 39.25576	  4.68710	166.55064	702.53003	 30.20	
 10.203	 56.908	162.13971	 96.09667	 53.85031	113.37445	 35.00789	  4.66549	166.59706	702.53003	 30.20	
 10.192	 66.322	162.06371	 87.99417	 60.43073	117.19466	 32.00772	  4.57489	166.63368	702.52002	 30.30	
 10.208	 75.751	161.87270	 80.34371	 67.39568	119.66223	 29.92821	  4.56210	166.57411	702.46002	 30.30	
 10.210	 85.199	161.71231	 72.35426	 74.83852	120.76735	 28.97914	  4.51259	166.61655	702.51001	 30.40	
 10.210	 94.801	161.48776	 64.30586	 82.52094	120.56327	 28.55195	  4.51965	166.64993	702.46002	 30.40	
 10.208	104.249	161.26437	 56.50983	 90.29588	118.64270	 29.69434	  4.56822	166.62497	702.50000	 30.40	
 10.192	113.678	161.00374	 50.05857	 97.96490	115.51934	 31.75784	  4.64265	166.61337	702.56000	 30.50	
 10.203	123.092	160.76297	 43.09512	104.94743	111.27564	 34.95011	  4.77030	166.65585	702.44000	 30.50	
 10.215	132.646	160.54050	 36.90861	111.41933	105.43233	 39.38308	  4.90060	166.66991	702.40997	 30.50	
 10.190	142.105	160.40495	 32.06828	117.34695	 99.06754	 46.16326	  4.95335	166.69093	702.45001	 30.50	
 10.194	151.526	160.18159	 28.50270	121.74384	 91.40110	 52.16130	  4.82516	166.65132	702.41998	 30.60	
 10.210	161.034	160.03302	 25.70452	124.97703	 83.36771	 58.91243	  4.73691	166.68324	702.53003	 30.60	
 10.191	170.497	159.89291	 24.45534	126.78175	 75.21111	 65.64310	  4.72764	166.66695	702.50000	 30.70	
 11.899	171.783	156.95146	 15.10915	132.72643	 72.50110	 63.90698	  4.87225	166.66789	702.46002	 30.70	
 11.890	163.610	157.16670	 16.38173	131.09225	 80.74717	 56.77847	  4.89557	166.68323	702.46002	 30.70	
 11.889	155.445	157.35886	 18.65935	128.34930	 89.06411	 49.91168	  5.00060	166.72226	702.60999	 30.70	
 11.909	147.299	157.44939	 21.55579	124.58900	 97.21489	 43.31197	  5.07602	166.72830	702.42999	 30.80	
 11.902	139.148	157.66151	 25.90532	119.59871	103.91345	 36.76147	  5.06649	166.69923	702.52002	 30.80	
 11.894	130.867	157.93871	 31.10989	113.72769	110.35316	 31.11190	  4.93665	166.72229	702.45001	 30.80	
 11.897	122.732	158.12013	 36.75351	106.81828	116.29850	 26.92326	  4.79878	166.70610	702.47998	 30.90	
 11.903	114.597	158.34143	 43.77780	 99.86864	120.71021	 23.44645	  4.87015	166.70305	702.46997	 30.90	
 11.893	106.346	158.62288	 51.39169	 92.10152	124.12907	 21.15765	  4.66081	166.73393	702.59003	 31.00	
 11.892	 98.155	158.92886	 58.36931	 84.08638	126.23531	 19.96263	  4.60176	166.73076	702.46002	 31.00	
 11.900	 90.000	159.18713	 66.12759	 76.36247	127.19991	 19.93310	  4.60921	166.73413	702.50000	 31.10	
 11.892	 81.845	159.40543	 73.87350	 69.05274	126.98895	 20.39061	  4.61798	166.74841	702.48999	 31.10	
 11.893	 73.654	159.63660	 82.25151	 61.62654	125.46625	 21.65771	  4.69350	166.77528	702.51001	 31.10	
 11.903	 65.403	159.76353	 90.20239	 54.49273	122.69793	 23.82098	  4.71858	166.75829	702.47998	 31.20	
 11.897	 57.268	159.93268	 97.98623	 48.16353	118.84044	 27.11095	  4.79726	166.76820	702.54999	 31.20	
 11.894	 49.133	160.03317	104.80944	 42.23033	113.83218	 31.25748	  4.93459	166.80070	702.42999	 31.20	
 11.902	 40.852	160.10977	111.19521	 37.07818	108.06262	 36.27389	  4.93093	166.81079	702.48999	 31.20	
 11.909	 32.701	160.07643	116.36768	 32.93774	101.00412	 41.95613	  4.98859	166.75488	702.48999	 31.20	
 11.889	 24.555	160.13669	120.51831	 29.71057	 94.15283	 48.85859	  5.06195	166.78940	702.46002	 31.20	
 11.890	 16.390	160.15306	123.59093	 27.34365	 86.08430	 56.20108	  5.14241	166.80344	702.65997	 31.20	
 11.899	  8.217	160.06734	125.62973	 25.90228	 77.97981	 62.99228	  5.19784	166.79736	702.52002	 31.20	
 11.900	  0.000	160.00204	126.28970	 25.60579	 69.86015	 70.82059	  5.25970	166.78305	702.45001	 31.30	
 11.899	 -8.217	159.87823	125.74779	 25.63681	 61.99440	 78.85760	  5.30675	166.79080	702.60999	 31.30	
 11.890	-16.390	159.70752	124.06243	 26.87018	 54.26552	 86.91846	  5.31976	166.81021	702.54999	 31.40	
 11.889	-24.555	159.49438	121.15127	 29.11948	 46.83460	 95.16454	  5.33685	166.79295	702.50000	 31.40	
 11.909	-32.701	159.24887	117.15388	 32.06395	 39.72018	102.72501	  5.35061	166.81152	702.46002	 31.40	
 11.902	-40.852	159.05049	112.01401	 36.17857	 33.52296	109.57819	  5.38159	166.85411	702.48999	 31.50	
 11.894	-49.133	158.74438	105.88121	 41.29400	 28.08376	115.63536	  5.32029	166.82578	702.59998	 31.50	
 11.897	-57.268	158.44946	 99.09546	 47.09243	 23.62152	120.73756	  5.39134	166.82074	702.59003	 31.60	
 11.903	-65.403	158.11603	 91.74320	 53.44406	 20.04174	124.89675	  5.33402	166.82936	702.50000	 31.60	
 11.893	-73.654	157.80832	 83.76198	 60.40168	 17.39361	127.91504	  5.26719	166.84807	702.57001	 31.60	
 11.892	-81.845	157.60619	 75.37351	 67.83791	 15.91840	129.65056	  5.26234	166.87039	702.46997	 31.70	
 11.900	-90.000	157.29404	 67.11133	 74.95741	 15.29709	130.21989	  5.20398	166.80147	702.34998	 31.70	
 11.892	-98.155	157.14113	 59.50338	 82.67933	 15.22050	129.59779	  5.23522	166.87671	702.56000	 31.80	
 11.893	-106.346	156.89891	 51.92447	 90.60655	 16.31047	127.77807	  5.25238	166.82677	702.47998	 31.80	
 11.903	-114.597	156.78746	 45.23108	 98.44555	 18.36941	124.68805	  5.18824	166.82899	702.51001	 31.80	
 11.897	-122.732	156.76993	 38.82035	105.66674	 21.53140	120.52712	  5.14469	166.87300	702.58002	 31.80	
 11.894	-130.867	156.69760	 32.00698	112.31474	 25.66499	115.38618	  5.02621	166.83946	702.56000	 31.80	
 11.902	-139.148	156.67703	 26.69601	118.47240	 30.45896	109.32365	  5.01297	166.84695	702.53998	 31.90	
 11.909	-147.299	156.64874	 22.28082	123.78716	 35.99973	102.57529	  5.03032	166.86580	702.51001	 31.90	
 11.889	-155.445	156.73267	 18.96898	127.88522	 42.52295	 95.37173	  4.98399	166.85783	702.48999	 31.90	
 11.890	-163.610	156.75017	 16.40988	130.83769	 50.37622	 87.72554	  5.01636	166.83963	702.51001	 32.00	
 11.899	-171.783	156.85846	 15.01362	132.70323	 57.02941	 79.48152	  5.01570	166.91801	702.50000	 32.00	
 11.900	180.000	156.99171	 15.07348	133.33044	 64.73849	 71.14318	  4.94371	166.85878	702.45001	 32.00	
 13.600	180.000	153.57646	  5.68572	138.87917	 61.80124	 68.74840	  5.06226	166.89835	702.46002	 32.00	
 13.608	-172.853	153.33965	  5.43826	138.32907	 54.86914	 76.24290	  5.19977	166.89688	702.48999	 32.10	
 13.611	-165.583	153.25992	  6.57889	136.65590	 47.20183	 85.35561	  5.13589	166.92125	702.46002	 32.10	
 13.601	-158.353	153.29036	  9.11660	133.96202	 39.29923	 93.10959	  5.21165	166.93884	702.53003	 32.20	
 13.609	-151.210	153.24779	 12.25160	130.31911	 32.71683	100.40572	  5.17826	166.92558	702.48999	 32.20	
 13.611	-143.999	153.23453	 16.12081	125.73550	 26.69571	107.73949	  5.16929	166.94830	702.50000	 32.20	
 13.601	-136.825	153.27155	 20.70034	120.30135	 21.56379	114.20029	  5.18093	166.92915	702.51001	 32.30	
 13.596	-129.640	153.18845	 25.94965	114.07182	 16.92127	120.10040	  5.28417	166.87346	702.50000	 32.30	
 13.611	-122.431	153.26726	 32.01186	107.23878	 13.04026	125.21497	  5.30986	166.91899	702.59998	 32.40	
 13.604	-115.211	153.30869	 39.38712	 99.51279	  9.70031	129.47772	  5.35560	166.90710	702.56000	 32.40	
 13.595	-108.042	153.43169	 46.47803	 91.82615	  7.39674	132.58063	  5.40919	166.90596	702.53003	 32.40	
 13.607	-100.793	153.58791	 53.65087	 83.79339	  5.97102	134.84444	  5.35321	166.92000	702.52002	 32.40	
 13.601	-93.617	153.81604	 61.34451	 75.73444	  5.46304	135.88599	  5.27064	166.92561	702.59998	 32.40	
 13.601	-86.383	154.12029	 68.26084	 68.92121	  6.39633	135.88815	  5.28682	166.92822	702.56000	 32.40	
 13.607	-79.207	154.31949	 77.37502	 61.28544	  7.01721	134.86461	  5.32131	166.92227	702.57001	 32.40	
 13.595	-71.958	154.62708	 85.67268	 53.92993	  8.86839	132.71111	  5.30252	166.87784	702.59998	 32.50	
 13.604	-64.789	154.97218	 93.39805	 47.23078	 11.68990	129.68398	  5.39474	166.90955	702.54999	 32.50	
 13.611	-57.569	155.23523	100.85564	 40.87546	 15.11712	125.59978	  5.42870	166.87810	702.53998	 32.50	
 13.596	-50.360	155.59850	107.78374	 35.13910	 19.62919	120.50033	  5.41385	166.91487	702.54999	 32.50	
 13.601	-43.175	155.88908	114.05074	 29.96642	 24.62390	114.54713	  5.38577	166.87968	702.59998	 32.60	
 13.611	-36.001	156.17407	119.58592	 25.71085	 30.53918	107.99012	  5.38907	166.88374	702.59998	 32.70	
 13.609	-28.790	156.43518	124.17940	 22.22199	 37.15062	100.76620	  5.35083	166.91229	702.56000	 32.70	
 13.601	-21.647	156.63318	127.93354	 19.41559	 44.30819	 92.99346	  5.36913	166.88597	702.54999	 32.70	
 13.611	-14.417	156.87401	130.47989	 17.49272	 51.98615	 84.43999	  5.39410	166.91434	702.69000	 32.70	
 13.608	 -7.147	157.06131	131.94333	 16.52143	 59.90757	 76.13103	  5.38707	166.91264	702.59998	 32.70	
 13.600	  0.000	157.24239	132.34155	 16.75713	 67.73833	 68.33794	  5.32175	166.87206	702.56000	 32.70	
 13.608	  7.147	157.26154	131.76825	 16.80152	 75.61831	 61.05997	  5.22215	166.90630	702.59003	 32.80	
 13.611	 14.417	157.28450	130.08643	 17.87555	 83.84370	 53.93808	  5.21569	166.88959	702.67999	 32.80	
 13.601	 21.647	157.33055	127.26292	 20.19067	 92.04931	 45.97538	  5.25978	166.89774	702.60999	 32.90	
 13.609	 28.790	157.30434	123.51056	 23.10369	 99.32559	 39.18976	  5.15105	166.87177	702.60999	 32.90	
 13.611	 36.001	157.33253	118.79180	 26.81993	106.46196	 33.03088	  5.18694	166.91753	702.69000	 32.90	
 13.601	 43.175	157.30807	113.13012	 31.22606	113.29314	 27.62098	  5.09698	166.91833	702.63000	 33.00	
 13.596	 50.360	157.21716	106.78122	 36.41586	118.65224	 22.91885	  5.11054	166.91992	702.63000	 33.00	
 13.611	 57.569	157.06958	 99.80985	 42.19038	123.87951	 18.74056	  5.05987	166.92093	702.64001	 33.00	
 13.604	 64.789	156.93344	 92.14404	 48.62607	127.80576	 15.44943	  4.92726	166.92101	702.66998	 33.00	
 13.595	 71.958	156.79933	 83.67783	 55.53896	130.71072	 13.14368	  5.07425	166.90372	702.53003	 33.00	
 13.607	 79.207	156.58287	 75.44179	 62.88142	132.60365	 11.44832	  4.88926	166.92032	702.58002	 33.00	
 13.601	 86.383	156.35556	 67.32143	 70.52750	133.29008	 10.95439	  4.92395	166.89737	702.60999	 33.00	
 13.601	 93.617	156.07854	 59.81171	 77.64286	132.95369	 10.45543	  5.00553	166.90483	702.64001	 33.10	
 13.607	100.793	155.74858	 52.78149	 85.55899	131.71375	 10.89010	  4.90066	166.91647	702.54999	 33.10	
 13.595	108.042	155.51311	 45.00374	 93.97803	129.10722	 13.66456	  4.91593	166.88072	702.58002	 33.10	
 13.604	115.211	155.28406	 37.32005	101.31989	125.53096	 16.50559	  5.05392	166.88548	702.59003	 33.10	
 13.611	122.431	155.04781	 30.73285	108.78670	120.89773	 19.53621	  4.87485	166.89201	702.65002	 33.20	
 13.596	129.640	154.87541	 24.82192	115.49872	115.48148	 23.81884	  4.94948	166.94221	702.66998	 33.30	
 13.601	136.825	154.63007	 19.81290	121.44112	109.19033	 28.76721	  5.12692	166.89658	702.62000	 33.30	
 13.611	143.999	154.43349	 15.44240	126.66374	102.06414	 34.34379	  5.30509	166.87485	702.69000	 33.30	
 13.609	151.210	154.27776	 11.81779	131.07674	 94.65250	 40.51239	  5.35441	166.87651	702.59998	 33.40	
 13.601	158.353	154.11479	  8.94033	134.55344	 86.48780	 47.26464	  5.28848	166.88515	702.65997	 33.40	
 13.611	165.583	153.87759	  6.78274	137.07829	 77.73198	 54.45943	  5.17577	166.88396	702.66998	 33.50	
 13.608	172.853	153.69707	  5.75622	138.55658	 69.43998	 61.94719	  5.11651	166.89732	702.64001	 33.50	
 15.298	173.587	149.77655	 -3.48583	143.56693	 66.20997	 59.25352	  5.18052	166.90244	702.71002	 33.50	
 15.291	167.167	149.94702	 -2.61483	142.31375	 74.42389	 51.73637	  5.13570	166.88528	702.56000	 33.50	
 15.307	160.676	150.18137	 -0.90497	140.22511	 83.21038	 44.38686	  5.24847	166.93611	702.65997	 33.60	
 15.300	154.261	150.37514	  1.60027	137.12018	 91.62415	 37.46162	  5.35315	166.96571	702.70001	 33.60	
 15.288	147.854	150.65393	  5.16886	133.02016	 99.26130	 31.16677	  5.36262	166.92432	702.59003	 33.50	
 15.293	141.428	150.85565	  9.08806	128.22693	106.57036	 25.46316	  5.25418	166.96123	702.71997	 33.50	
 15.299	134.985	150.94577	 13.71061	122.58651	113.65990	 20.05155	  5.07083	166.91978	702.71002	 33.60	
 15.305	128.583	151.17589	 18.71581	116.55263	119.73022	 15.40779	  4.98532	166.93840	702.54999	 33.60	
 15.309	122.142	151.33096	 24.55214	109.73682	125.12427	 11.38794	  4.95990	166.86247	702.63000	 33.60	
 15.304	115.711	151.56799	 30.90725	102.34837	129.87421	  7.10002	  5.06273	166.91249	702.53998	 33.70	
 15.297	109.291	151.84628	 38.09443	 94.91385	133.48972	  4.44249	  5.19586	166.91948	702.71997	 33.70	
 15.293	102.897	152.00365	 45.82140	 86.78479	136.13632	  2.41574	  5.23982	166.86391	702.71997	 33.70	
 15.293	 96.458	152.24290	 53.88877	 78.50629	138.02890	  1.09469	  5.18957	166.89265	702.67999	 33.70	
 15.300	 90.000	152.57758	 61.04712	 70.87095	138.69014	  1.33189	  5.19114	166.86205	702.71997	 33.70	
 15.293	 83.542	152.83990	 68.25209	 63.86099	138.62428	  1.65168	  5.14029	166.88461	702.62000	 33.70	
 15.293	 77.103	153.10869	 76.39490	 56.40427	137.46732	  2.76342	  5.06252	166.86378	702.56000	 33.80	
 15.297	 70.709	153.37590	 84.83179	 49.28407	135.36685	  4.59687	  5.16206	166.93773	702.73999	 33.80	
 15.304	 64.289	153.50684	 93.21775	 42.46029	132.36220	  7.17007	  5.11918	166.89717	702.60999	 33.90	
 15.309	 57.858	153.62556	100.92056	 36.12053	128.40636	 10.44868	  5.20469	166.89214	702.65997	 33.90	
 15.305	 51.417	153.74371	107.92022	 30.39854	123.50114	 14.43686	  5.21392	166.87138	702.71997	 33.90	
 15.299	 45.015	153.88155	114.50514	 25.32003	117.80685	 19.14135	  5.16624	166.84525	702.84998	 34.00	
 15.293	 38.572	154.01752	120.42391	 20.79201	111.64872	 24.34626	  5.24057	166.86012	702.72998	 34.00	
 15.288	 32.146	153.96176	125.59260	 16.75034	104.31272	 30.08014	  5.24891	166.83804	702.63000	 34.00	
 15.300	 25.739	153.96278	129.83870	 13.43596	 97.02644	 36.33601	  5.16990	166.82025	702.71997	 34.00	
 15.307	 19.324	153.87332	133.24704	 10.56872	 89.34214	 43.20938	  5.19830	166.85194	702.73999	 34.00	
 15.291	 12.833	153.91022	135.77718	  8.68229	 81.06538	 51.33048	  5.20119	166.87540	702.67999	 34.00	
 15.298	  6.413	153.87204	137.26894	  7.88560	 73.02406	 58.60108	  5.22981	166.83286	702.78998	 34.10	
 15.300	  0.000	153.79672	137.88258	  7.71687	 65.35468	 65.34995	  5.31753	166.84113	702.66998	 34.10	
 15.298	 -6.413	153.65570	137.45238	  7.38590	 57.50864	 73.04398	  5.33121	166.84738	702.67999	 34.10	
 15.291	-12.833	153.38332	136.15094	  8.18464	 49.48491	 81.10789	  5.28432	166.79424	702.72998	 34.00	
 15.307	-19.324	153.26135	133.82158	  9.84304	 41.86296	 90.01795	  5.26267	166.83110	702.65997	 34.00	
 15.300	-25.739	152.95097	130.63959	 12.30028	 34.49535	 97.88992	  5.25469	166.79181	702.58002	 34.10	
 15.288	-32.146	152.76025	126.52985	 15.46920	 27.76865	105.27151	  5.30543	166.80365	702.70001	 34.10	
 15.293	-38.572	152.47517	121.32086	 19.25122	 21.61269	112.46649	  5.32444	166.79404	702.60999	 34.20	
 15.299	-45.015	152.16975	115.54475	 23.68041	 15.92858	118.96411	  5.33239	166.81931	702.53998	 34.20	
 15.305	-51.417	151.82916	109.05877	 28.80135	 11.07172	124.77454	  5.36512	166.78941	702.65002	 34.30	
 15.309	-57.858	151.51591	101.88613	 34.50336	  6.82637	129.78885	  5.31203	166.79121	702.69000	 34.40	
 15.304	-64.289	151.18385	 94.43188	 40.69187	  3.24140	133.87016	  5.30303	166.79846	702.65002	 34.40	
 15.297	-70.709	150.86411	 86.62071	 47.39462	  0.34279	137.13539	  5.21486	166.79160	702.59003	 34.40	
 15.293	-77.103	150.47946	 78.43230	 54.44661	 -1.73070	139.56918	  5.26287	166.77713	702.64001	 34.40	
 15.293	-83.542	150.23959	 69.38277	 62.11977	 -2.74362	140.78104	  5.24642	166.76663	702.71002	 34.40	
 15.300	-90.000	149.93187	 62.53621	 68.54382	 -3.77023	141.31781	  5.26920	166.76083	702.84998	 34.40	
 15.293	-96.458	149.69994	 55.25285	 76.29134	 -3.81006	140.73816	  5.27776	166.79218	702.69000	 34.50	
 15.293	-102.897	149.48454	 47.35900	 84.54018	 -3.01854	139.37164	  5.29836	166.80067	702.65997	 34.50	
 15.297	-109.291	149.27774	 40.14967	 92.35033	 -1.42109	136.86447	  5.33445	166.77623	702.69000	 34.60	
 15.304	-115.711	149.15076	 33.00866	100.11221	  1.03828	133.60190	  5.36776	166.78922	702.63000	 34.60	
 15.309	-122.142	149.11874	 25.83257	107.50204	  4.65472	129.40547	  5.31279	166.79669	702.69000	 34.60	
 15.305	-128.583	149.04369	 19.85161	114.76935	  8.90332	124.35313	  5.23182	166.79408	702.83002	 34.60	
 15.299	-134.985	149.15543	 14.67149	121.00755	 13.49342	118.57990	  5.19274	166.75821	702.70001	 34.60	
 15.293	-141.428	149.22202	  9.92259	126.83739	 18.02915	112.12047	  5.14255	166.78891	702.63000	 34.70	
 15.288	-147.854	149.21046	  5.80519	131.89760	 23.26802	105.09542	  5.17229	166.76649	702.65002	 34.70	
 15.300	-154.261	149.19524	  2.30724	136.03616	 29.29219	 97.59907	  5.16199	166.74434	702.60999	 34.70	
 15.307	-160.676	149.21390	 -0.63117	139.36594	 36.50519	 90.18049	  5.18691	166.76942	702.69000	 34.70	
 15.291	-167.167	149.34892	 -2.59509	141.77629	 44.23715	 81.48431	  5.19691	166.79179	702.66998	 34.70	
 15.298	-173.587	149.38078	 -3.72894	143.23160	 51.89244	 73.32752	  5.26703	166.76878	702.67999	 34.70	
 15.300	180.000	149.46310	 -3.93931	143.79025	 59.05444	 66.43919	  5.24637	166.75830	702.39001	 34.70	
 17.000	180.000	145.06218	-13.22292	148.36183	 55.56173	 63.25460	  5.15119	166.79898	701.95001	 34.70	
 16.990	-174.179	144.95761	-13.05666	147.87593	 48.56361	 70.51120	  5.16452	166.81355	701.78998	 34.70	
 17.009	-168.383	144.76440	-11.96448	146.51147	 40.86618	 77.83408	  5.16433	166.73256	701.88000	 34.70	
 17.000	-162.596	144.72852	-10.18123	144.36810	 33.42337	 86.54845	  5.04027	166.75154	701.92999	 34.70	
 16.990	-156.759	144.71394	 -7.73872	141.34253	 26.45756	 94.67540	  4.98982	166.77028	701.97998	 34.70	
 16.995	-150.919	144.66112	 -4.51288	137.46977	 20.16831	102.00308	  4.99466	166.77222	701.88000	 34.70	
 16.988	-145.161	144.63737	 -0.71937	132.96010	 14.35061	109.23391	  5.01145	166.75412	702.32001	 34.80	
 17.014	-139.343	144.51479	  3.56443	127.65231	  8.27913	116.10062	  5.04885	166.75041	701.91998	 34.80	
 17.007	-133.546	144.52969	  8.43994	121.64611	  3.40811	122.32279	  5.05956	166.73071	701.95001	 34.80	
 17.001	-127.699	144.46515	 13.65699	115.16259	 -0.71508	127.98875	  5.05638	166.71080	701.90002	 34.80	
 17.006	-121.937	144.48659	 19.56298	108.17319	 -4.30908	133.12697	  5.17450	166.73297	701.96002	 34.80	
 17.002	-116.134	144.51776	 26.10927	100.38337	 -7.30084	137.30226	  5.15862	166.69218	702.77002	 34.90	
 17.001	-110.310	144.53093	 33.43002	 92.62751	-10.01175	140.80066	  5.12564	166.71428	702.70001	 34.90	
 16.988	-104.517	144.80467	 40.78757	 84.70355	-11.78718	143.31966	  5.11804	166.70953	701.87000	 35.00	
 17.008	-98.662	144.97987	 48.34486	 76.44216	-12.88854	145.16748	  5.08751	166.71245	701.85999	 35.10	
 16.996	-92.909	145.31548	 55.83738	 68.80308	-13.17352	145.90753	  5.10296	166.70575	701.88000	 35.20	
 16.996	-87.091	145.51630	 62.25467	 62.51917	-12.63111	145.91258	  5.15535	166.67671	701.89001	 35.30	
 17.012	-81.253	145.75864	 70.10429	 54.90444	-11.75956	145.14308	  5.13194	166.66174	701.94000	 35.30	
 16.988	-75.483	146.11278	 78.43012	 47.59021	-10.38196	143.45508	  5.12517	166.60559	701.87000	 35.30	
 17.001	-69.690	146.47487	 87.12317	 40.49075	 -8.30622	140.97252	  5.05397	166.59398	701.87000	 35.30	
 17.002	-63.866	146.86357	 95.07726	 33.86345	 -5.28774	137.67168	  5.13718	166.63724	701.98999	 35.40	
 17.006	-58.063	147.24730	102.46882	 27.89977	 -1.67975	133.50475	  5.14508	166.61769	701.90997	 35.40	
 17.001	-52.301	147.59929	109.69183	 22.35945	  2.42497	128.57233	  5.12193	166.59076	702.00000	 35.40	
 17.007	-46.454	147.96764	116.34209	 17.15054	  7.08622	122.89641	  5.15576	166.60629	701.89001	 35.50	
 17.014	-40.657	148.19667	122.45810	 12.49984	 12.24359	116.67542	  5.13191	166.61449	701.87000	 35.50	
 16.988	-34.839	148.43993	127.94913	  8.61829	 18.19091	109.62579	  5.13436	166.59679	701.92999	 35.50	
 16.995	-29.081	148.80995	132.48941	  5.41213	 24.65966	102.46655	  5.09576	166.62529	701.89001	 35.50	
 16.990	-23.241	149.00571	136.31042	  2.58832	 31.53686	 94.71796	  5.05250	166.59880	701.96002	 35.50	
 17.000	-17.404	149.25366	139.27835	  0.40544	 38.96814	 86.13686	  5.08761	166.59663	701.96997	 35.50	
 17.009	-11.617	149.35947	141.25197	 -1.23885	 46.67300	 77.62473	  5.09127	166.56097	701.91998	 35.60	
 16.990	 -5.821	149.54773	142.41296	 -1.89955	 54.58848	 69.50523	  5.15603	166.57309	701.95001	 35.60	
 17.000	  0.000	149.73439	142.71356	 -1.82875	 62.70592	 62.19607	  5.14589	166.59770	701.95001	 35.60	
 16.990	  5.821	149.78265	142.15138	 -1.16893	 69.97195	 55.53675	  5.10245	166.53717	702.00000	 35.60	
 17.009	 11.617	149.79166	140.90382	 -0.66908	 77.88174	 47.95761	  5.08677	166.57877	702.08002	 35.70	
 17.000	 17.404	149.85742	138.62665	  0.96952	 86.12301	 40.49609	  5.09055	166.56793	701.98999	 35.70	
 16.990	 23.241	149.91570	135.45323	  3.54945	 94.43848	 33.17334	  5.11372	166.56709	702.03003	 35.70	
 16.995	 29.081	149.86369	131.55977	  6.56907	101.64342	 26.54669	  5.13535	166.54077	702.02002	 35.70	
 16.988	 34.839	149.94786	126.83105	 10.19320	108.88367	 20.78573	  5.15674	166.60548	701.96002	 35.60	
 17.014	 40.657	149.88657	121.37873	 14.33375	115.91579	 15.32490	  5.19446	166.59325	702.00000	 35.70	
 17.007	 46.454	149.77396	115.23038	 19.14820	121.76948	 10.37374	  5.14697	166.58102	702.03003	 35.60	
 17.001	 52.301	149.69022	108.55595	 24.28018	127.52821	  6.02434	  5.10600	166.58507	702.03998	 35.60	
 17.006	 58.063	149.47205	101.41164	 29.80893	132.19885	  1.98970	  5.05401	166.55293	702.03998	 35.60	
 17.002	 63.866	149.22646	 93.76060	 35.93979	136.22823	 -1.33235	  5.02363	166.55611	702.08002	 35.60	
 17.001	 69.690	149.08159	 85.59119	 42.56713	139.36714	 -3.86733	  5.00729	166.55779	702.12000	 35.60	
 16.988	 75.483	148.87161	 77.03603	 49.58013	141.67326	 -5.83497	  4.99740	166.56978	702.06000	 35.60	
 17.012	 81.253	148.50746	 68.75124	 56.79712	143.24016	 -7.39350	  5.02532	166.56416	702.03998	 35.70	
 16.996	 87.091	148.20509	 60.91595	 64.43139	143.77138	 -8.04362	  5.07731	166.56718	702.03998	 35.70	
 16.996	 92.909	148.02672	 54.56555	 71.04652	143.36057	 -8.19259	  5.11705	166.59789	702.09003	 35.70	
 17.008	 98.662	147.74223	 46.64220	 78.71841	142.23892	 -7.73471	  5.22418	166.53244	701.98999	 35.70	
 16.988	104.517	147.48607	 38.48719	 87.13953	140.09099	 -6.05325	  5.19006	166.57426	702.01001	 35.70	
 17.001	110.310	147.22911	 31.19155	 95.23461	137.18575	 -3.97326	  5.14925	166.57512	702.03003	 35.80	
 17.002	116.134	146.96176	 24.38169	102.79578	133.33337	 -1.36212	  5.01849	166.48448	701.96002	 35.80	
 17.006	121.937	146.81744	 18.30919	110.14319	128.64087	  1.76129	  4.94599	166.50404	701.98999	 35.90	
 17.001	127.699	146.73965	 12.57767	116.90202	123.19393	  5.79213	  4.78167	166.57843	701.94000	 35.90	
 17.007	133.546	146.40320	  7.19663	123.17812	117.27001	 11.06035	  4.81085	166.56325	702.16998	 36.00	
 17.014	139.343	146.10068	  2.48922	128.87994	110.29479	 16.06118	  4.90667	166.45738	702.06000	 36.00	
 16.988	145.161	146.04295	 -1.50590	134.04404	103.24159	 21.69165	  5.16104	166.51912	702.06000	 36.10	
 16.995	150.919	145.83237	 -4.99376	138.31891	 95.71914	 27.71845	  5.23788	166.46626	702.21002	 36.10	
 16.990	156.759	145.70065	 -7.85422	141.97176	 87.73548	 34.21415	  5.21413	166.53561	702.12000	 36.20	
 17.000	162.596	145.37968	-10.38012	144.81277	 78.79736	 41.21188	  5.07833	166.49004	702.15002	 36.20	
 17.009	168.383	145.18398	-11.82019	146.72580	 70.41050	 48.51083	  4.99941	166.49313	702.10999	 36.10	
 16.990	174.179	145.03236	-12.64910	147.74669	 62.96710	 55.90997	  5.04393	166.51961	702.13000	 36.10	
 18.709	174.675	140.05247	-21.91633	151.93910	 58.76264	 52.37469	  4.96070	166.48027	702.03003	 36.10	
 18.703	169.441	140.19885	-21.17329	151.03008	 66.89809	 44.86839	  4.89777	166.48694	702.08002	 36.20	
 18.691	164.085	140.55061	-19.49289	149.24887	 74.69075	 37.50898	  4.91435	166.48772	702.14001	 36.20	
 18.706	158.818	140.70265	-17.64365	146.76489	 82.99675	 30.59012	  4.98034	166.48082	702.09003	 36.30	
 18.695	153.537	141.06532	-14.58963	143.47983	 91.76740	 24.26882	  5.11055	166.49072	702.06000	 36.20	
 18.704	148.255	141.28212	-11.41721	139.46315	 99.48869	 18.20746	  5.02397	166.49736	702.09998	 36.30	
 18.698	142.952	141.42125	 -7.87048	134.77708	106.86777	 11.77367	  4.88522	166.47403	702.03003	 36.30	
 18.699	137.625	141.58871	 -3.62654	129.42604	114.03097	  6.09526	  4.64874	166.46043	702.09003	 36.30	
 18.705	132.343	141.76759	  0.86545	123.47130	120.62565	  1.40404	  4.66059	166.45802	702.09998	 36.20	
 18.713	127.067	141.96191	  5.89596	117.08176	126.47231	 -2.80514	  4.72569	166.43228	702.13000	 36.20	
 18.700	121.794	142.09717	 11.57253	110.19151	131.96555	 -6.54527	  4.76993	166.40297	702.03003	 36.20	
 18.698	116.504	142.28009	 17.92818	102.90861	136.49998	 -9.67209	  4.91009	166.39262	702.06000	 36.30	
 18.707	111.165	142.48921	 24.98281	 95.32213	140.56717	-12.50482	  5.02662	166.44778	702.09003	 36.30	
 18.690	105.863	142.68825	 31.54823	 87.05308	143.57005	-14.39609	  5.02431	166.37718	702.03998	 36.30	
 18.696	100.583	142.92551	 38.65907	 79.08157	145.91110	-15.95441	  4.98735	166.38329	702.07001	 36.30	
 18.700	 95.309	143.13670	 46.76652	 71.12437	147.40990	-16.98693	  4.97318	166.40002	702.03998	 36.30	
 18.700	 90.000	143.36774	 53.69583	 64.46854	148.13651	-17.25136	  5.01111	166.41443	702.15002	 36.30	
 18.700	 84.691	143.68890	 61.36991	 57.26297	148.03670	-16.78624	  4.91682	166.39694	702.10999	 36.40	
 18.696	 79.417	143.96193	 68.91067	 49.81204	147.12737	-15.79190	  4.85345	166.34267	702.09003	 36.40	
 18.690	 74.137	144.31740	 77.02229	 42.76465	145.49078	-14.25035	  4.88696	166.40311	702.07001	 36.40	
 18.707	 68.835	144.39983	 85.49361	 35.91065	143.06474	-12.20098	  4.88589	166.34778	702.12000	 36.40	
 18.698	 63.496	144.62860	 94.00314	 29.48860	139.71935	 -9.51953	  4.87483	166.36739	702.09003	 36.40	
 18.700	 58.206	144.89035	101.52914	 23.51725	135.72638	 -6.30007	  4.86581	166.37550	702.16998	 36.40	
 18.713	 52.933	144.96043	108.78411	 17.88727	131.09264	 -2.70114	  4.89656	166.33972	702.15002	 36.40	
 18.705	 47.657	145.20049	115.69364	 12.75286	125.57904	  1.75148	  4.92817	166.33577	702.07001	 36.30	
 18.699	 42.375	145.27994	121.91572	  8.05820	119.60480	  6.31621	  4.99100	166.33614	702.00000	 36.30	
 18.698	 37.048	145.33664	127.71880	  3.54582	113.03391	 11.49916	  5.03079	166.35527	702.06000	 36.30	
 18.704	 31.745	145.32614	132.68927	 -0.31415	105.81136	 17.96650	  5.02121	166.36826	702.28003	 36.30	
 18.695	 26.463	145.39314	137.05652	 -3.51323	 98.45931	 23.73811	  4.95580	166.34901	702.19000	 36.30	
 18.706	 21.182	145.36551	140.62485	 -6.19687	 90.95014	 29.82579	  4.93885	166.32668	702.17999	 36.30	
 18.691	 15.915	145.32042	143.46631	 -8.34778	 82.57031	 37.01360	  4.94053	166.33699	702.09998	 36.30	
 18.703	 10.559	145.21637	145.49590	 -9.95229	 74.16621	 44.72406	  4.96863	166.31877	702.15997	 36.30	
 18.709	  5.325	145.14076	146.66336	-10.57716	 66.78235	 51.70647	  5.02339	166.28494	702.15997	 36.30	
 18.700	  0.000	145.04327	147.23181	-11.24999	 59.52219	 58.32258	  5.09365	166.32230	702.12000	 36.30	
 18.709	 -5.325	144.82930	146.98618	-11.28469	 51.39384	 66.16669	  5.03172	166.30301	702.10999	 36.40	
 18.703	-10.559	144.71864	145.92702	-10.46025	 43.72597	 73.71648	  5.00967	166.33022	702.09003	 36.40	
 18.691	-15.915	144.53023	144.02943	 -9.06431	 36.00434	 82.01283	  4.97157	166.31575	702.08002	 36.40	
 18.706	-21.182	144.36426	141.41856	 -7.21203	 28.53971	 90.76185	  4.98907	166.28934	702.10999	 36.40	
 18.695	-26.463	144.15550	137.89149	 -4.64694	 21.61471	 98.58920	  4.97329	166.26607	702.07001	 36.40	
 18.704	-31.745	143.91176	133.67586	 -1.76372	 14.90046	106.11404	  5.04808	166.31276	702.07001	 36.40	
 18.698	-37.048	143.62872	128.66516	  1.80775	  8.80925	113.34531	  5.00773	166.27222	702.20001	 36.50	
 18.699	-42.375	143.39069	122.86935	  5.94442	  3.30165	120.08425	  5.00772	166.28735	702.21997	 36.60	
 18.705	-47.657	143.05807	116.65193	 10.50751	 -1.61227	126.05946	  5.01976	166.26563	702.12000	 36.60	
 18.713	-52.933	142.71646	109.80447	 15.63441	 -6.12139	131.75758	  5.04666	166.24667	702.10999	 36.70	
 18.700	-58.206	142.39899	102.64819	 21.15726	-10.14354	136.58009	  5.00562	166.28770	702.12000	 36.70	
 18.698	-63.496	142.06671	 95.09937	 27.05775	-13.61755	140.71918	  4.99554	166.27875	702.07001	 36.80	
 18.707	-68.835	141.67963	 87.11781	 33.49592	-16.56862	144.20116	  4.93003	166.28267	702.06000	 36.80	
 18.690	-74.137	141.34412	 78.42950	 40.39666	-18.71909	146.82399	  4.99180	166.30254	702.15997	 36.90	
 18.696	-79.417	140.97725	 70.25146	 47.49447	-20.26355	148.65491	  5.00944	166.28979	702.19000	 36.90	
 18.700	-84.691	140.56882	 62.20194	 54.88496	-21.30598	149.75258	  5.06813	166.30165	702.10999	 36.90	
 18.700	-90.000	140.17000	 54.52153	 62.41748	-22.14035	150.03271	  4.98067	166.22647	702.09998	 36.90	
 18.700	-95.309	139.94220	 48.46627	 68.53651	-21.97117	149.66643	  4.96611	166.24727	702.14001	 36.90	
 18.696	-100.583	139.73303	 40.99991	 76.34570	-21.42206	148.43669	  4.94834	166.24571	702.03003	 37.00	
 18.690	-105.863	139.46866	 33.77570	 84.27816	-20.24817	146.48170	  4.93480	166.21706	702.10999	 37.00	
 18.707	-111.165	139.22134	 26.55103	 92.23426	-18.30108	143.68985	  4.99720	166.17213	702.10999	 37.00	
 18.698	-116.504	139.11752	 19.82930	 99.95695	-15.75586	140.19838	  5.03921	166.23871	702.12000	 37.10	
 18.700	-121.794	138.98587	 13.49306	107.37283	-12.84848	135.87082	  4.99625	166.20238	702.14001	 37.10	
 18.713	-127.067	138.97484	  7.24659	114.69205	 -9.40037	131.02399	  4.96165	166.21402	702.15997	 37.10	
 18.705	-132.343	139.15622	  2.14883	121.20760	 -5.43947	125.35439	  4.95644	166.22195	702.10999	 37.20	
 18.699	-137.625	139.27119	 -2.66979	127.39230	 -0.98815	119.16694	  4.92860	166.17610	702.20001	 37.20	
 18.698	-142.952	139.30376	 -7.07399	133.02357	  4.09389	112.60228	  4.89776	166.20183	702.14001	 37.20	
 18.704	-148.255	139.40230	-10.95875	137.81900	  9.81767	105.50210	  4.84961	166.19540	702.14001	 37.30	
 18.695	-153.537	139.46840	-14.23951	142.03270	 16.45629	 98.16576	  4.80936	166.18320	702.21997	 37.30	
 18.706	-158.818	139.42177	-17.20267	145.65929	 22.99187	 90.44519	  4.84872	166.20102	702.26001	 37.30	
 18.691	-164.085	139.54060	-19.44288	148.29506	 29.78012	 81.80158	  4.85890	166.21638	702.31000	 37.30	
 18.703	-169.441	139.64622	-21.07021	150.32016	 37.22613	 74.22993	  5.13482	166.22894	702.25000	 37.30	
 18.709	-174.675	139.52782	-22.14736	151.44553	 44.71051	 66.26209	  5.04233	166.14426	702.23999	 37.20	
 18.700	180.000	139.71869	-22.24956	151.95595	 51.63132	 59.14045	  5.05280	166.21204	702.23999	 37.20	
 20.400	180.000	134.24240	-31.12316	155.50128	 47.23116	 55.31325	  4.97171	166.21358	702.25000	 37.20	
 20.401	-175.153	134.09262	-30.89201	155.12442	 40.83509	 62.10048	  4.97478	166.19510	702.15997	 37.20	
 20.407	-170.264	134.06226	-29.86427	153.98917	 33.15816	 70.22639	  4.99638	166.20741	702.22998	 37.20	
 20.410	-165.423	134.05803	-28.47246	152.19817	 26.00046	 78.17609	  4.82247	166.18004	702.19000	 37.20	
 20.392	-160.496	133.92259	-26.44643	149.66656	 18.92294	 85.83290	  4.77753	166.15797	702.17999	 37.20	
 20.401	-155.705	133.98506	-23.93942	146.65701	 12.01435	 93.94170	  4.74695	166.18810	702.27002	 37.20	
 20.405	-150.835	133.87411	-20.87637	142.67979	  5.74406	101.58802	  4.69631	166.17149	702.14001	 37.20	
 20.397	-145.903	133.90009	-17.32874	137.99236	  0.06941	108.99451	  4.79614	166.15898	702.13000	 37.30	
 20.392	-141.062	133.76422	-13.50099	132.85434	 -5.07782	115.80770	  4.77797	166.16579	702.21002	 37.30	
 20.396	-136.227	133.55598	 -9.21360	127.05059	 -9.87386	122.21811	  4.77698	166.11488	702.14001	 37.40	
 20.408	-131.372	133.30194	 -4.58483	120.79308	-14.14427	128.31479	  4.77916	166.09807	702.14001	 37.50	
 20.410	-126.511	133.30159	  0.64222	114.14832	-17.81095	133.87613	  4.85884	166.12808	702.15002	 37.50	
 20.400	-121.604	133.36719	  6.96602	106.68584	-21.13957	138.56561	  4.83217	166.08476	702.17999	 37.50	
 20.403	-116.741	133.42363	 13.09793	 99.24615	-24.03382	142.80150	  4.87718	166.07776	702.14001	 37.60	
 20.413	-111.900	133.60802	 19.50894	 91.71799	-26.44788	146.44032	  4.82757	166.10257	702.10999	 37.60	
 20.398	-107.004	133.77351	 26.47404	 83.67663	-28.37721	149.36864	  4.81182	166.09509	702.21997	 37.60	
 20.394	-102.132	133.97679	 33.59984	 75.77388	-29.76848	151.47923	  4.79783	166.07503	702.26001	 37.60	
 20.403	-97.332	134.15312	 40.90877	 67.91402	-30.41279	152.96234	  4.81643	166.07527	702.28998	 37.70	
 20.392	-92.440	134.43207	 48.25685	 60.42214	-30.79067	153.69685	  4.92882	166.09697	702.27002	 37.70	
 20.392	-87.560	134.71713	 54.20318	 54.78431	-30.74617	153.72527	  4.94482	166.05809	702.17999	 37.80	
 20.403	-82.668	135.01678	 62.39470	 47.18696	-30.04103	153.09210	  4.94497	166.04594	702.22998	 37.80	
 20.394	-77.868	135.51088	 69.96154	 40.09807	-28.58997	151.70882	  4.91842	166.02046	702.21997	 37.80	
 20.398	-72.996	135.99980	 78.07648	 33.20591	-26.83073	149.76683	  4.88280	166.06802	702.17999	 37.90	
 20.413	-68.100	136.37123	 86.72742	 26.40832	-24.56553	146.98776	  4.87990	166.01918	702.15002	 37.90	
 20.403	-63.259	136.81250	 94.72455	 20.27698	-21.80254	143.58566	  4.92773	166.04185	702.27002	 37.80	
 20.400	-58.396	137.25053	102.10918	 14.50313	-18.29983	139.39514	  4.93944	166.01836	702.26001	 37.80	
 20.410	-53.489	137.46440	109.41804	  8.88437	-14.71123	134.53732	  4.96118	166.02644	702.25000	 37.80	
 20.408	-48.628	137.89682	116.46866	  3.84043	-10.34556	129.10460	  4.92935	166.04567	702.20001	 37.80	
 20.396	-43.773	138.31755	122.77190	 -0.70972	 -5.62577	123.09010	  4.92015	166.01620	702.16998	 37.70	
 20.392	-38.938	138.53940	128.63013	 -4.77603	 -0.41874	116.51862	  4.99900	166.02489	702.21997	 37.70	
 20.397	-34.097	138.77090	134.00166	 -8.45446	  5.09781	109.55460	  4.95911	166.07843	702.26001	 37.70	
 20.405	-29.165	139.00089	138.66576	-11.66079	 11.55213	102.16449	  4.96123	166.06076	702.22998	 37.70	
 20.401	-24.295	139.22743	142.64549	-14.32772	 18.34112	 94.45486	  4.90433	165.97490	702.27002	 37.70	
 20.392	-19.504	139.58591	145.79260	-16.40801	 25.37557	 86.19527	  4.88824	165.95612	702.28998	 37.60	
 20.410	-14.577	139.79970	148.19270	-18.12211	 32.92025	 77.90224	  4.90126	165.97191	702.28003	 37.60	
 20.407	 -9.736	139.75850	149.95892	-19.41100	 40.33181	 69.47661	  4.97608	165.96765	702.33002	 37.60	
 20.401	 -4.847	139.96127	150.82475	-20.10407	 48.12877	 61.96855	  4.99995	165.95621	702.28003	 37.60	
 20.400	  0.000	140.05653	151.02177	-20.15359	 56.14385	 53.89803	  5.01652	165.98425	702.27002	 37.70	
 20.401	  4.847	140.20294	150.56023	-19.67449	 62.86022	 47.70050	  4.94780	165.98671	702.32001	 37.80	
 20.407	  9.736	140.32990	149.51813	-18.97843	 70.35852	 40.78017	  4.81187	165.98570	702.22998	 37.80	
 20.410	 14.577	140.30864	147.77193	-17.68628	 78.60168	 33.50283	  4.82983	165.97583	702.31000	 37.80	
 20.392	 19.504	140.31285	145.05606	-15.84649	 87.07425	 26.70133	  4.85229	165.95328	702.34998	 37.80	
 20.401	 24.295	140.35265	141.85489	-13.39858	 94.61958	 20.02405	  4.92451	166.01118	702.21002	 37.80	
 20.405	 29.165	140.38036	137.95415	-10.34908	101.96431	 13.55632	  4.95897	166.02408	702.28998	 37.80	
 20.397	 34.097	140.32109	133.02963	 -6.81560	109.53957	  7.60835	  4.88339	165.95705	702.33002	 37.80	
 20.392	 38.938	140.36383	127.71041	 -2.79040	116.33213	  2.45538	  4.82544	165.91910	702.34998	 37.80	
 20.396	 43.773	140.32764	121.83415	  1.52730	122.63792	 -2.43826	  4.84169	165.97366	702.32001	 37.90	
 20.408	 48.628	140.11737	115.44643	  6.10738	128.69241	 -7.04266	  4.80838	165.96919	702.25000	 37.90	
 20.410	 53.489	139.98122	108.33714	 11.40591	134.03732	-11.02859	  4.75209	165.94221	702.28998	 37.90	
 20.400	 58.396	139.87497	101.03274	 17.22055	138.64261	-14.44578	  4.76795	165.95029	702.34998	 37.90	
 20.403	 63.259	139.55319	 93.42050	 23.02991	142.70222	-17.65836	  4.75807	165.92604	702.28003	 37.90	
 20.413	 68.100	139.28276	 84.89531	 29.08843	146.01936	-20.30246	  4.76065	165.94112	702.32001	 37.90	
 20.398	 72.996	139.01817	 76.68680	 35.68715	148.48674	-22.57289	  4.76981	165.89215	702.20001	 38.00	
 20.394	 77.868	138.72516	 68.75985	 42.61351	150.33662	-24.15555	  4.76722	165.91382	702.23999	 38.00	
 20.403	 82.668	138.36331	 61.10431	 49.64294	151.46120	-25.34777	  4.77769	165.90930	702.26001	 38.00	
 20.392	 87.560	138.09358	 52.82368	 57.29541	151.81889	-25.96756	  4.83869	165.89384	702.21002	 38.10	
 20.392	 92.440	137.79578	 46.96285	 62.69053	151.53667	-26.01547	  4.79561	165.91933	702.19000	 38.10	
 20.403	 97.332	137.49715	 38.97160	 70.62606	150.49815	-25.49212	  4.87571	165.86456	702.27002	 38.10	
 20.394	102.132	137.25519	 31.87321	 78.55564	148.80478	-24.35328	  4.88939	165.89272	702.21997	 38.10	
 20.398	107.004	136.98872	 24.76273	 86.44709	146.35002	-22.74358	  4.88467	165.87892	702.29999	 38.10	
 20.413	111.900	136.79453	 17.38692	 94.81480	143.02744	-20.50364	  4.84127	165.86021	702.27002	 38.10	
 20.403	116.741	136.66853	 11.10186	102.31972	139.01529	-17.74233	  4.83313	165.89055	702.20001	 38.10	
 20.400	121.604	136.52005	  5.11280	109.47390	134.47031	-14.67235	  4.74537	165.86745	702.21997	 38.10	
 20.410	126.511	136.31262	 -0.42800	116.45421	129.05177	-11.13824	  4.69197	165.88272	702.28998	 38.10	
 20.408	131.372	136.09802	 -5.61078	123.02433	123.14077	 -7.05884	  4.61827	165.87968	702.25000	 38.10	
 20.396	136.227	135.89961	-10.08764	129.01787	116.69290	 -2.56249	  4.55280	165.83263	702.28003	 38.10	
 20.392	141.062	135.78670	-14.22703	134.52916	109.65358	  2.36187	  4.61685	165.87161	702.33002	 38.10	
 20.397	145.903	135.64500	-17.72032	139.31482	102.61212	  7.56399	  4.86727	165.83487	702.28003	 38.10	
 20.405	150.835	135.40628	-21.00071	143.72734	 95.03776	 13.68023	  4.95523	165.85977	702.21997	 38.20	
 20.401	155.705	135.17482	-24.07102	147.41891	 86.61349	 20.37052	  4.93242	165.89465	702.22998	 38.20	
 20.392	160.496	134.91205	-26.56814	150.28845	 78.39639	 26.81799	  4.84443	165.88834	702.19000	 38.20	
 20.410	165.423	134.53725	-28.49091	152.60805	 70.43285	 33.69392	  4.81933	165.86371	702.29999	 38.20	
 20.407	170.264	134.32765	-29.81397	154.16571	 62.23280	 40.88428	  4.82453	165.85530	702.32001	 38.20	
 20.401	175.153	134.10883	-30.74676	154.98186	 54.04249	 48.47382	  4.83549	165.86978	702.31000	 38.30	
  0.141	 45.000	166.03683	 74.95941	 83.62688	 75.59888	 79.12114	  6.95029	165.88239	702.31000	 38.30	
  4.001	128.691	165.48979	 61.38863	 95.05862	 88.97269	 63.40325	  6.24724	165.83031	702.25000	 38.20	
  4.002	 76.995	165.75993	 77.73881	 79.12094	 93.54327	 59.69155	  6.35274	165.82608	702.39001	 38.30	
  4.002	 25.892	165.80821	 90.74220	 66.61508	 83.64455	 69.36908	  6.24388	165.79749	702.39001	 38.30	
  4.002	-25.892	165.68756	 90.99909	 66.39427	 66.57007	 86.26267	  6.14338	165.81552	702.37000	 38.30	
  4.002	-76.995	165.32231	 77.81794	 78.81995	 56.05068	 97.53230	  6.06908	165.77731	702.34998	 38.20	
  4.001	-128.691	165.09175	 61.75385	 94.68063	 59.08649	 92.98071	  6.01954	165.80179	702.26001	 38.20	
  4.000	180.000	165.11772	 54.59690	102.02402	 73.24722	 78.58510	  5.98442	165.78830	702.39001	 38.20	
  8.000	180.000	161.81517	 34.98352	118.65215	 69.68433	 75.67433	  4.73027	165.79195	702.37000	 38.30	
  7.991	-152.370	161.62479	 39.55818	113.91370	 52.67313	 93.49931	  4.80621	165.75050	702.34998	 38.40	
  7.997	-124.550	161.74550	 50.13264	101.07697	 40.78785	107.81522	  4.86988	165.80490	702.32001	 38.30	
  8.006	-96.837	162.00337	 66.62698	 83.98732	 35.57350	114.43195	  5.00580	165.77800	702.41998	 38.30	
  7.988	-69.228	162.50925	 84.62824	 67.07843	 38.16067	112.17856	  5.04415	165.75829	702.45001	 38.30	
  7.997	-41.563	163.09151	100.39544	 53.45121	 48.19410	101.33732	  5.14610	165.77760	702.31000	 38.30	
  8.008	-13.821	163.49039	109.55764	 45.68593	 64.22369	 84.03836	  5.11658	165.74582	702.37000	 38.30	
  8.008	 13.821	163.68248	109.25288	 46.03993	 82.60565	 65.80955	  5.00773	165.71288	702.31000	 38.30	
  7.997	 41.563	163.68814	 99.82919	 53.78984	 98.79293	 51.53904	  4.89728	165.72705	702.37000	 38.30	
  7.988	 69.228	163.60034	 83.89150	 67.88328	109.44779	 41.66082	  4.82349	165.82397	702.40997	 38.20	
  8.006	 96.837	163.10866	 65.80098	 84.98128	110.90483	 39.70037	  4.83922	165.72411	702.31000	 38.30	
  7.997	124.550	162.59726	 49.52880	101.88779	103.44794	 46.52101	  4.93658	165.72931	702.25000	 38.30	
  7.991	152.370	162.10109	 38.88808	114.27180	 87.79254	 58.39785	  4.74854	165.65460	702.22998	 38.30	
 12.009	161.059	156.07463	 16.39828	129.83934	 82.77787	 53.93447	  4.99943	165.65738	702.28003	 38.40	
 12.013	142.081	156.45158	 23.73260	120.83974	100.96248	 38.88210	  5.04516	165.64735	702.26001	 38.50	
 12.006	123.113	156.92694	 35.93395	106.87667	115.49747	 26.40990	  4.74958	165.64136	702.34998	 38.50	
 12.007	104.200	157.48097	 52.28543	 89.37569	124.34678	 20.13891	  4.60201	165.62813	702.35999	 38.60	
 11.989	 85.301	158.16425	 69.97243	 71.64621	126.60349	 19.69161	  4.62653	165.66846	702.26001	 38.70	
 12.013	 66.294	158.48239	 89.15940	 54.52459	122.48236	 22.90881	  4.73111	165.63196	702.29999	 38.70	
 12.012	 47.388	158.70192	106.08471	 40.26283	111.99174	 31.42449	  4.87497	165.62447	702.28998	 38.80	
 11.990	 28.440	158.84514	118.11893	 30.54817	 96.60952	 44.85674	  5.01747	165.58646	702.34998	 38.80	
 11.991	  9.464	158.80560	124.90102	 25.47262	 78.48045	 61.20785	  5.19793	165.63368	702.45001	 38.80	
 11.991	 -9.464	158.54219	125.00637	 25.14367	 60.12143	 79.32694	  5.29540	165.57646	702.44000	 38.70	
 11.990	-28.440	158.09300	118.60987	 29.88030	 42.78267	 98.23336	  5.25060	165.58324	702.50000	 38.70	
 12.012	-47.388	157.38834	106.61469	 39.38707	 28.43194	113.79425	  5.34180	165.58444	702.40997	 38.70	
 12.013	-66.294	156.71356	 90.18913	 53.45487	 19.09088	124.67599	  5.28593	165.58743	702.46997	 38.70	
 11.989	-85.301	156.12482	 71.01595	 70.25384	 15.09225	129.31494	  5.21583	165.60913	702.35999	 38.70	
 12.007	-104.200	155.57690	 53.18837	 87.75399	 15.25588	127.73994	  5.24623	165.58197	702.40002	 38.70	
 12.006	-123.113	155.32114	 37.87524	105.18890	 20.98588	119.63629	  5.14428	165.56026	702.39001	 38.60	
 12.013	-142.081	155.25661	 24.43208	119.96605	 31.67198	106.26213	  4.96735	165.56679	702.40997	 38.60	
 12.009	-161.059	155.22581	 16.40060	129.34056	 47.32890	 89.38108	  5.00560	165.52968	702.26001	 38.60	
 16.000	180.000	146.63750	 -7.66215	144.57088	 57.12024	 64.72692	  5.17069	165.53860	702.29999	 38.60	
 15.990	-165.604	146.46706	 -5.92980	142.01112	 40.04889	 82.59169	  5.13395	165.53415	702.34003	 38.60	
 16.002	-151.165	146.27689	  0.24924	134.64098	 23.50804	100.70128	  5.04590	165.52803	702.40997	 38.60	
 16.002	-136.836	146.25276	 10.09872	122.79238	 11.48698	116.86516	  5.10720	165.56523	702.44000	 38.60	
 15.995	-122.439	146.21626	 22.63393	107.64054	  1.13598	129.71101	  5.18073	165.55367	702.44000	 38.70	
 15.993	-107.966	146.41150	 39.11538	 89.82706	 -5.61045	138.34047	  5.19595	165.54865	702.40997	 38.70	
 16.005	-93.629	146.84023	 56.50530	 70.92075	 -7.92019	142.20273	  5.18411	165.55930	702.46002	 38.60	
 15.992	-79.234	147.53635	 73.78755	 54.63433	 -5.86352	140.90945	  5.13129	165.50342	702.56000	 38.70	
 16.009	-64.774	148.34529	 93.24277	 38.25117	 -0.61287	134.82964	  5.16048	165.51959	702.51001	 38.70	
 15.997	-50.364	149.18832	110.09442	 24.73374	  8.55735	124.22880	  5.22278	165.51228	702.42999	 38.70	
 15.997	-36.045	149.78278	124.01775	 14.10348	 20.76769	109.70790	  5.19856	165.53239	702.44000	 38.80	
 16.000	-21.597	150.34882	133.71016	  6.92772	 36.37096	 92.14740	  5.11292	165.52248	702.40002	 38.80	
 16.003	 -7.169	150.87189	138.26785	  3.60214	 54.60550	 72.46497	  5.21256	165.49101	702.40997	 38.90	
 16.003	  7.169	151.14040	138.11081	  4.29618	 72.51875	 55.71029	  5.15616	165.50435	702.47998	 38.90	
 16.000	 21.597	151.14594	133.03709	  7.77852	 91.53695	 38.11131	  5.15225	165.51312	702.42999	 38.90	
 15.997	 36.045	151.20750	122.99933	 15.59907	108.89548	 23.39669	  5.20935	165.53542	702.46002	 38.90	
 15.997	 50.364	151.00085	109.08411	 26.34823	122.97083	 11.80523	  5.19765	165.53265	702.38000	 38.80	
 16.009	 64.774	150.61641	 91.85721	 40.11758	133.38255	  3.28330	  5.11063	165.52000	702.33002	 38.80	
 15.992	 79.234	150.14674	 72.07842	 56.56326	138.97928	 -1.42882	  5.12349	165.51534	702.46997	 38.80	
 16.005	 93.629	149.47469	 55.10437	 73.25707	139.39691	 -2.74705	  5.15743	165.47505	702.42999	 38.80	
 15.993	107.966	148.96104	 36.96206	 92.11361	134.90974	  0.30247	  5.16943	165.51674	702.52002	 38.80	
 15.995	122.439	148.43469	 21.15281	109.58287	125.36715	  7.97233	  4.93814	165.50961	702.37000	 38.80	
 16.002	136.836	147.91934	  9.03037	124.25466	111.64787	 18.09578	  4.96650	165.47774	702.44000	 38.80	
 16.002	151.165	147.45058	 -0.39125	135.58966	 94.60134	 31.38789	  5.29427	165.46036	702.42999	 38.80	
 15.990	165.604	147.05566	 -5.91892	142.50450	 75.00117	 47.67631	  5.11713	165.51836	702.35999	 38.80	
 20.003	168.362	135.31874	-27.32280	152.44208	 65.94050	 39.10638	  4.81664	165.40825	702.45001	 38.80	
 20.008	156.764	136.01776	-22.92051	147.12169	 84.81752	 23.19734	  4.93278	165.48961	702.40997	 38.80	
 20.000	145.147	136.61008	-15.41358	137.78731	103.44617	  8.41426	  4.79886	165.47072	702.48999	 38.80	
 19.995	133.545	136.93340	 -6.01688	125.11291	119.65639	 -3.34563	  4.51234	165.40640	702.52002	 38.90	
 20.009	121.926	137.47101	  6.27647	109.66296	133.20998	-12.62799	  4.68356	165.48212	702.46997	 38.90	
 20.005	110.327	137.83965	 21.27091	 92.46667	142.99170	-19.23168	  4.88752	165.45451	702.37000	 39.00	
 19.989	 98.733	138.35187	 37.58897	 73.55339	148.78674	-23.04238	  4.87548	165.45039	702.40997	 39.00	
 19.999	 87.075	139.00591	 54.51479	 57.20274	150.42155	-23.73913	  4.75009	165.41576	702.34003	 39.00	
 19.992	 75.457	139.75439	 73.06522	 40.18428	148.13420	-21.25962	  4.70804	165.45139	702.42999	 39.00	
 20.009	 63.844	140.30014	 92.48073	 25.09730	141.86351	-15.99724	  4.76674	165.42068	702.38000	 39.00	
 19.989	 52.269	140.78949	109.68855	 11.70339	131.65172	 -8.06680	  4.72896	165.42429	702.41998	 39.00	
 19.999	 40.602	141.01942	124.95336	  0.41989	117.84164	  2.29998	  4.83904	165.45415	702.34003	 39.10	
 20.004	 29.051	141.07785	136.80373	 -8.46645	101.38947	 15.38144	  4.79557	165.41122	702.44000	 39.10	
 20.005	 17.433	141.03787	144.96407	-14.47429	 83.58337	 30.52893	  4.82730	165.39995	702.35999	 39.10	
 20.006	  5.780	140.87920	148.99055	-17.38667	 64.87334	 47.11625	  4.93989	165.42966	702.40002	 39.00	
 20.006	 -5.780	140.55070	149.25311	-17.91043	 47.26411	 64.23323	  4.93750	165.40846	702.41998	 39.10	
 20.005	-17.433	140.22772	145.49037	-15.18678	 29.57648	 82.75457	  4.87127	165.39868	702.44000	 39.10	
 20.004	-29.051	139.67545	137.51074	 -9.74890	 13.24028	101.56777	  4.91235	165.38507	702.41998	 39.20	
 19.999	-40.602	139.07954	125.69654	 -1.57378	 -0.53666	118.10090	  4.94286	165.38148	702.41998	 39.20	
 19.989	-52.269	138.36084	110.76918	  9.37010	-11.55376	132.11125	  4.89088	165.40150	702.35999	 39.20	
 20.009	-63.844	137.51697	 93.61953	 22.41521	-20.06702	142.69942	  4.87805	165.41748	702.33002	 39.30	
 19.992	-75.457	136.59319	 74.23982	 37.75978	-25.66652	149.43436	  4.87389	165.43195	702.41998	 39.20	
 19.999	-87.075	135.53905	 55.49862	 54.79724	-28.58577	152.21982	  4.93607	165.40240	702.44000	 39.20	
 19.989	-98.733	134.89137	 39.66008	 70.72719	-28.24394	151.08321	  4.79821	165.35258	702.38000	 39.20	
 20.005	-110.327	134.46977	 23.06599	 89.22925	-25.13127	146.11221	  4.86483	165.43074	702.37000	 39.20	
 20.009	-121.926	134.18312	  8.27151	106.87802	-19.00170	137.09740	  4.85332	165.45001	702.40997	 39.20	
 19.995	-133.545	134.38039	 -4.64689	122.81762	-10.43907	124.62696	  4.75119	165.40004	702.39001	 39.20	
 20.000	-145.147	134.60133	-14.78198	136.10924	  0.87621	109.51631	  4.78222	165.40027	702.38000	 39.20	
 20.008	-156.764	134.72534	-22.62664	145.99844	 15.17510	 92.09959	  4.69444	165.40660	702.33002	 39.20	
 20.003	-168.362	134.70293	-27.36662	151.86560	 31.36212	 73.51933	  4.99775	165.41138	702.46997	 39.20	
 20.000	180.000	134.90802	-28.93811	153.97485	 47.89489	 55.99828	  4.98854	165.42648	702.46002	 39.30	
