FileType=PCF
NHL=14
Date=03/14/19	17:04:20
Facility=APL
Serial=16071-2
Customer=NASA
NP=6
Mach=0.300000
Calibration=1:1
CalPts=490
TstPts=95
PortNumbering=AP Standard
Units=Torr C m/s kg/m^3 deg mm 
Theta[deg]	Phi[deg]	P1[Torr]	P2[Torr]	P3[Torr]	P4[Torr]	P5[Torr]	P6[Torr]	Pt[Torr]	Ps[Abs,Torr]	Ts[C]	
  0.000	  0.000	 42.35490	 16.94036	 19.77693	 18.34034	 18.03603	  1.02453	 42.35772	706.97998	 36.70	
  1.691	128.401	 42.34436	 15.40555	 21.16119	 20.03282	 16.14713	  0.99770	 42.36437	706.90997	 36.70	
  1.692	 77.194	 42.31380	 17.37451	 19.24822	 20.52501	 15.69631	  1.06772	 42.31194	706.96997	 36.70	
  1.699	 26.182	 42.36002	 19.08964	 17.73763	 19.38373	 16.92814	  1.08678	 42.33902	706.94000	 36.60	
  1.699	-26.182	 42.37000	 19.04264	 17.72638	 17.35653	 19.00325	  1.05045	 42.34805	707.01001	 36.60	
  1.692	-77.194	 42.33088	 17.43299	 19.21136	 16.03915	 20.23547	  0.99349	 42.34290	706.95001	 36.60	
  1.691	-128.401	 42.31479	 15.44461	 21.11990	 16.40573	 19.76495	  0.94043	 42.34315	706.90997	 36.50	
  1.700	180.000	 42.30692	 14.50823	 22.01481	 18.16410	 17.94519	  0.95063	 42.34884	706.91998	 36.50	
  3.400	180.000	 42.13253	 12.07970	 24.16391	 17.89722	 17.68140	  0.78958	 42.31227	706.85999	 36.50	
  3.388	-152.325	 42.15578	 12.62850	 23.61303	 15.79659	 19.90381	  0.76959	 42.32830	706.92999	 36.40	
  3.397	-124.529	 42.16806	 14.10377	 22.11418	 14.22288	 21.62508	  0.77159	 42.30924	706.85999	 36.40	
  3.399	-96.763	 42.23124	 16.21736	 20.07772	 13.51255	 22.48349	  0.81745	 42.32159	706.81000	 36.40	
  3.394	-69.283	 42.26093	 18.45195	 17.96306	 13.88152	 22.18217	  0.87666	 42.31250	706.90002	 36.40	
  3.400	-41.398	 42.27942	 20.35231	 16.20101	 15.18325	 20.89086	  0.95520	 42.30654	706.82001	 36.30	
  3.401	-14.021	 42.32857	 21.43241	 15.23308	 17.18778	 18.89654	  1.01583	 42.32314	706.79999	 36.30	
  3.401	 14.021	 42.30742	 21.44730	 15.26321	 19.40204	 16.63666	  1.05633	 42.30515	706.83002	 36.30	
  3.400	 41.398	 42.28944	 20.34053	 16.27353	 21.31340	 14.64818	  1.06115	 42.30300	706.82001	 36.30	
  3.394	 69.283	 42.25679	 18.41786	 18.03050	 22.51762	 13.46177	  1.02654	 42.29273	706.91998	 36.20	
  3.399	 96.763	 42.22371	 16.11440	 20.13801	 22.69314	 13.21856	  0.96623	 42.30094	706.84003	 36.20	
  3.397	124.529	 42.17518	 14.01379	 22.16461	 21.81859	 13.88850	  0.89799	 42.29787	706.88000	 36.20	
  3.388	152.325	 42.14661	 12.59480	 23.63866	 20.06379	 15.52556	  0.82439	 42.33108	706.78998	 36.20	
  5.099	161.165	 41.84131	 10.09476	 25.83517	 19.77020	 15.04390	  0.59364	 42.28936	706.79999	 36.10	
  5.109	142.013	 41.85529	 11.04483	 24.76266	 21.88979	 13.16265	  0.52816	 42.29192	706.87000	 36.10	
  5.095	123.033	 41.92544	 12.59211	 23.03347	 23.57791	 11.84049	  0.71743	 42.30202	706.87000	 36.10	
  5.105	104.191	 41.98422	 14.61925	 20.93287	 24.61620	 11.05491	  0.79187	 42.28556	706.75000	 36.00	
  5.093	 85.207	 42.05014	 16.94255	 18.74408	 24.87910	 10.89992	  0.86167	 42.29254	706.78998	 36.00	
  5.104	 66.290	 42.08713	 19.26255	 16.67216	 24.39341	 11.36395	  0.91239	 42.28544	706.89001	 36.00	
  5.094	 47.331	 42.15969	 21.32614	 14.90757	 23.17256	 12.49933	  0.96760	 42.31387	706.90002	 36.00	
  5.089	 28.397	 42.14497	 22.81776	 13.58857	 21.35171	 14.14711	  0.98116	 42.27307	706.79999	 35.90	
  5.096	  9.576	 42.17739	 23.58784	 12.84136	 19.21520	 16.31950	  0.96106	 42.28623	706.85999	 35.90	
  5.096	 -9.576	 42.17413	 23.61998	 12.80259	 16.92305	 18.66575	  0.91138	 42.29587	706.78998	 35.90	
  5.089	-28.397	 42.17049	 22.86439	 13.48235	 14.76680	 20.87779	  0.84211	 42.31133	706.84003	 35.90	
  5.094	-47.331	 42.13521	 21.42080	 14.78345	 12.92995	 22.72524	  0.75551	 42.30614	706.89001	 35.90	
  5.104	-66.290	 42.07777	 19.42309	 16.57237	 11.70397	 23.99198	  0.67930	 42.30328	706.81000	 35.80	
  5.093	-85.207	 42.01138	 17.14289	 18.68677	 11.17725	 24.53395	  0.61968	 42.28962	706.91998	 35.80	
  5.105	-104.191	 41.94469	 14.81060	 20.90391	 11.26992	 24.32379	  0.55862	 42.28176	707.04999	 35.80	
  5.095	-123.033	 41.90156	 12.75511	 22.99618	 12.04047	 23.35400	  0.53719	 42.29690	706.88000	 35.80	
  5.109	-142.013	 41.84082	 11.12491	 24.71743	 13.37157	 21.73448	  0.52395	 42.28047	706.91998	 35.80	
  5.099	-161.165	 41.83014	 10.11098	 25.80024	 15.31126	 19.61055	  0.53081	 42.28561	706.88000	 35.70	
  5.100	180.000	 41.81602	  9.75299	 26.19115	 17.53714	 17.28538	  0.56723	 42.27515	706.84998	 35.70	
  6.800	180.000	 41.37747	  7.49357	 28.11386	 17.03543	 16.83477	  0.28411	 42.26672	706.90002	 35.70	
  6.796	-166.229	 41.40830	  7.75507	 27.85495	 14.87586	 19.18314	  0.25852	 42.29410	706.96002	 35.70	
  6.808	-152.311	 41.40110	  8.36168	 27.03910	 12.85383	 21.34282	  0.19078	 42.27007	706.84003	 35.70	
  6.795	-138.383	 41.43562	  9.53854	 25.75351	 11.31161	 23.20786	  0.23933	 42.25865	706.82001	 35.60	
  6.792	-124.591	 41.49094	 11.07496	 24.06187	 10.10137	 24.75770	  0.14494	 42.26891	706.83002	 35.60	
  6.787	-110.754	 41.55272	 12.92283	 22.07182	  9.24387	 25.88013	  0.22115	 42.27468	706.81000	 35.60	
  6.800	-96.985	 41.60394	 15.06027	 19.93889	  8.85406	 26.48031	  0.25114	 42.26659	706.84003	 35.60	
  6.800	-83.015	 41.66261	 17.37314	 17.77918	  8.89866	 26.49026	  0.31297	 42.25790	706.87000	 35.50	
  6.787	-69.246	 41.71922	 19.60217	 15.73359	  9.40243	 25.93620	  0.38188	 42.25619	706.88000	 35.50	
  6.792	-55.409	 41.80416	 21.68961	 13.90381	 10.34609	 24.91521	  0.44221	 42.27869	706.90997	 35.50	
  6.795	-41.617	 41.83780	 23.35386	 12.38763	 11.63296	 23.41732	  0.38107	 42.26430	707.06000	 35.50	
  6.808	-27.689	 41.86240	 24.68492	 11.23117	 13.41652	 21.50547	  0.59199	 42.25531	706.91998	 35.50	
  6.796	-13.771	 41.87635	 25.49507	 10.54423	 15.54218	 19.31896	  0.68656	 42.25812	706.84998	 35.40	
  6.800	  0.000	 41.87671	 25.74308	 10.32161	 17.78546	 17.04642	  0.74152	 42.24005	706.90002	 35.40	
  6.796	 13.771	 41.88876	 25.44626	 10.59081	 19.98437	 14.79566	  0.78519	 42.26695	706.85999	 35.40	
  6.808	 27.689	 41.86300	 24.57199	 11.34047	 22.09037	 12.81055	  0.78550	 42.26434	706.87000	 35.40	
  6.795	 41.617	 41.82882	 23.21345	 12.50479	 23.89409	 11.16994	  0.72439	 42.26104	706.87000	 35.40	
  6.792	 55.409	 41.77301	 21.41253	 13.98362	 25.34743	  9.86485	  0.56710	 42.24694	706.96002	 35.30	
  6.787	 69.246	 41.76552	 19.33106	 15.80648	 26.36880	  9.01203	  0.69493	 42.27068	706.96997	 35.30	
  6.800	 83.015	 41.67438	 17.11055	 17.76875	 26.83228	  8.56271	  0.56178	 42.25003	706.91998	 35.30	
  6.800	 96.985	 41.62378	 14.79703	 19.94523	 26.77102	  8.56143	  0.57256	 42.27950	706.97998	 35.30	
  6.787	110.754	 41.54629	 12.66293	 22.06923	 26.09593	  9.02792	  0.42323	 42.25922	706.88000	 35.30	
  6.792	124.591	 41.46954	 10.86245	 24.04442	 24.96914	  9.84974	  0.43961	 42.24305	706.95001	 35.30	
  6.795	138.383	 41.41946	  9.43447	 25.74419	 23.38595	 11.10944	  0.23949	 42.24217	706.98999	 35.20	
  6.808	152.311	 41.38914	  8.36572	 27.07793	 21.43578	 12.72458	  0.26977	 42.24234	706.96002	 35.20	
  6.796	166.229	 41.36348	  7.73957	 27.82740	 19.26776	 14.62278	  0.25049	 42.24922	706.96997	 35.20	
  8.491	168.704	 40.76368	  5.23488	 29.72156	 18.73094	 14.01566	 -0.27913	 42.22934	707.03998	 35.20	
  8.502	157.493	 40.78004	  5.72808	 29.06485	 20.97642	 12.07245	 -0.25870	 42.23948	707.00000	 35.20	
  8.494	146.194	 40.82169	  6.62401	 27.93015	 23.07329	 10.32432	 -0.18630	 42.23874	707.00000	 35.20	
  8.495	135.039	 40.87136	  7.81660	 26.47520	 24.90594	  8.85533	 -0.13552	 42.23255	707.01001	 35.20	
  8.487	123.723	 40.91998	  9.33170	 24.67410	 26.46337	  7.63893	 -0.05079	 42.24100	706.96002	 35.20	
  8.492	112.575	 40.97483	 11.06822	 22.67607	 27.68671	  6.72292	 -0.08225	 42.22813	707.03003	 35.10	
  8.510	101.220	 41.05291	 13.15180	 20.47646	 28.55907	  6.18872	  0.19679	 42.26117	706.96997	 35.10	
  8.500	 90.000	 41.11961	 15.40199	 18.30724	 28.83638	  6.08598	  0.04083	 42.24521	706.90002	 35.10	
  8.510	 78.780	 41.19215	 17.69486	 16.18203	 28.71736	  6.26198	  0.19592	 42.25061	706.90002	 35.10	
  8.492	 67.425	 41.26825	 19.98704	 14.16487	 28.07250	  6.81023	  0.25514	 42.25020	706.94000	 35.10	
  8.487	 56.277	 41.31865	 22.06390	 12.38908	 26.99470	  7.68681	  0.18456	 42.23697	706.96997	 35.10	
  8.495	 44.961	 41.36931	 23.98782	 10.83434	 25.51645	  8.93732	  0.23582	 42.25171	706.91998	 35.10	
  8.494	 33.806	 41.40101	 25.55116	  9.61237	 23.79256	 10.46991	  0.52759	 42.25278	706.96002	 35.10	
  8.502	 22.507	 41.42484	 26.70904	  8.71197	 21.78493	 12.29984	  0.54185	 42.23426	706.97998	 35.00	
  8.491	 11.296	 41.46627	 27.46445	  8.08654	 19.60942	 14.27257	  0.32994	 42.25425	707.00000	 35.00	
  8.500	  0.000	 41.45171	 27.73389	  7.84084	 17.35683	 16.55446	  0.45281	 42.22598	707.00000	 35.00	
  8.491	-11.296	 41.47059	 27.51965	  8.01785	 15.05309	 18.94609	  0.17574	 42.24729	707.00000	 35.00	
  8.502	-22.507	 41.43293	 26.84624	  8.58504	 12.87023	 21.20741	  0.30084	 42.23707	707.06000	 35.00	
  8.494	-33.806	 41.39459	 25.67972	  9.56307	 11.01165	 23.22396	  0.05101	 42.22388	707.03998	 35.00	
  8.495	-44.961	 41.37916	 24.20031	 10.80274	  9.48824	 25.01418	 -0.02812	 42.23808	707.06000	 35.00	
  8.487	-56.277	 41.31513	 22.40391	 12.36126	  8.15194	 26.50795	 -0.01147	 42.25407	707.07001	 34.90	
  8.492	-67.425	 41.24512	 20.33270	 14.16240	  7.19515	 27.58797	  0.01206	 42.25566	707.03998	 34.90	
  8.510	-78.780	 41.15076	 18.04219	 16.20095	  6.58559	 28.26696	 -0.20803	 42.22262	707.03998	 34.90	
  8.500	-90.000	 41.09452	 15.69658	 18.35249	  6.38958	 28.47307	 -0.13373	 42.22808	707.02002	 34.90	
  8.510	-101.220	 41.01757	 13.43619	 20.50206	  6.45309	 28.21922	 -0.26123	 42.23158	707.00000	 34.90	
  8.492	-112.575	 40.97220	 11.33799	 22.71833	  6.96161	 27.43340	 -0.28030	 42.24516	707.00000	 34.90	
  8.487	-123.723	 40.90485	  9.55277	 24.70149	  7.77709	 26.29792	 -0.28374	 42.22856	707.03998	 34.90	
  8.495	-135.039	 40.86224	  7.98158	 26.49682	  8.94019	 24.80346	 -0.28822	 42.23283	706.98999	 34.80	
  8.494	-146.194	 40.81899	  6.71482	 27.96010	 10.39362	 22.95803	 -0.29373	 42.22409	707.04999	 34.80	
  8.502	-157.493	 40.76045	  5.79306	 29.05294	 12.13809	 20.89760	 -0.30145	 42.22651	707.08002	 34.80	
  8.491	-168.704	 40.74549	  5.25394	 29.72048	 14.15849	 18.65418	 -0.27223	 42.20725	707.06000	 34.80	
  8.500	180.000	 40.75904	  5.04274	 29.95706	 16.44004	 16.19904	 -0.27342	 42.23015	706.98999	 34.80	
 10.200	180.000	 39.98653	  2.54710	 31.67776	 15.72415	 15.52262	 -0.64798	 42.18305	706.98999	 34.80	
 10.191	-170.497	 40.04093	  2.72385	 31.51826	 13.49270	 17.93690	 -0.64272	 42.22566	707.00000	 34.80	
 10.210	-161.034	 40.06460	  3.20531	 30.97537	 11.45538	 20.30121	 -0.66239	 42.23831	706.89001	 34.80	
 10.194	-151.526	 40.08550	  3.99239	 29.98716	  9.61386	 22.47555	 -0.67242	 42.22363	706.92999	 34.70	
 10.190	-142.105	 40.11232	  5.02338	 28.70032	  7.96129	 24.47687	 -0.67435	 42.23512	706.84998	 34.70	
 10.215	-132.646	 40.14448	  6.34847	 27.08436	  6.51193	 26.27078	 -0.64145	 42.22010	707.03998	 34.70	
 10.203	-123.092	 40.20339	  7.98408	 25.17770	  5.37479	 27.75971	 -0.63540	 42.22079	706.97998	 34.70	
 10.192	-113.678	 40.25746	  9.80403	 23.15371	  4.60591	 28.89939	 -0.63453	 42.19373	706.97998	 34.70	
 10.208	-104.249	 40.32839	 11.79315	 20.98564	  4.06863	 29.82599	 -0.63579	 42.20924	707.00000	 34.70	
 10.210	-94.801	 40.38318	 13.97185	 18.76786	  3.85913	 30.26317	 -0.61867	 42.20842	707.03003	 34.70	
 10.210	-85.199	 40.47466	 16.33150	 16.58730	  3.96576	 30.28864	 -0.58349	 42.20843	707.06000	 34.70	
 10.208	-75.751	 40.55000	 18.69458	 14.48147	  4.32667	 29.90059	 -0.56023	 42.22082	707.00000	 34.70	
 10.192	-66.322	 40.60945	 20.94027	 12.49741	  5.00177	 29.08453	 -0.54356	 42.20454	707.02002	 34.70	
 10.203	-56.908	 40.68251	 23.01785	 10.68515	  5.90104	 27.98664	 -0.51908	 42.22029	707.03003	 34.60	
 10.215	-47.354	 40.75486	 24.93957	  9.05076	  7.15477	 26.54265	 -0.47125	 42.22604	707.06000	 34.60	
 10.190	-37.895	 40.78975	 26.54402	  7.71672	  8.63772	 24.78884	 -0.39187	 42.21285	707.14001	 34.60	
 10.194	-28.474	 40.83981	 27.89560	  6.64403	 10.30812	 22.82969	 -0.31920	 42.21751	707.07001	 34.60	
 10.210	-18.966	 40.86559	 28.88726	  5.84601	 12.28583	 20.66122	 -0.26680	 42.21704	707.00000	 34.60	
 10.191	 -9.503	 40.90376	 29.45895	  5.42602	 14.51462	 18.34065	 -0.19997	 42.22021	707.01001	 34.60	
 10.200	  0.000	 40.87735	 29.63451	  5.29995	 16.79816	 15.90097	 -0.11025	 42.20405	706.95001	 34.60	
 10.191	  9.503	 40.88474	 29.40051	  5.52474	 19.09994	 13.67731	 -0.05339	 42.23106	706.94000	 34.50	
 10.210	 18.966	 40.83352	 28.76047	  5.96978	 21.34864	 11.61389	 -0.06390	 42.20753	706.98999	 34.50	
 10.194	 28.474	 40.80572	 27.67715	  6.77345	 23.46471	  9.69143	 -0.12336	 42.20477	706.97998	 34.50	
 10.190	 37.895	 40.79003	 26.29457	  7.81954	 25.36410	  8.03037	  0.13052	 42.22766	707.02002	 34.50	
 10.215	 47.354	 40.72071	 24.58024	  9.08556	 27.13557	  6.55772	 -0.21057	 42.20700	706.96997	 34.50	
 10.203	 56.908	 40.65902	 22.59736	 10.64316	 28.59217	  5.32936	 -0.26060	 42.21238	707.08002	 34.50	
 10.192	 66.322	 40.60114	 20.45913	 12.43869	 29.67305	  4.43578	 -0.31147	 42.21775	706.98999	 34.50	
 10.208	 75.751	 40.51989	 18.18848	 14.42336	 30.41136	  3.81847	 -0.36490	 42.21525	706.96002	 34.50	
 10.210	 85.199	 40.45311	 15.84669	 16.55499	 30.72361	  3.54622	 -0.35992	 42.19741	707.01001	 34.50	
 10.210	 94.801	 40.37337	 13.49443	 18.76317	 30.63383	  3.47739	 -0.38566	 42.20976	706.91998	 34.40	
 10.208	104.249	 40.30743	 11.36498	 20.99061	 30.14120	  3.75035	 -0.44696	 42.22599	706.98999	 34.40	
 10.192	113.678	 40.21680	  9.36854	 23.13156	 29.20898	  4.34062	 -0.50524	 42.19590	706.90997	 34.40	
 10.203	123.092	 40.16051	  7.58092	 25.18653	 27.93636	  5.24548	 -0.53204	 42.20435	707.07001	 34.40	
 10.215	132.646	 40.12179	  6.02788	 27.06112	 26.35961	  6.41913	 -0.53352	 42.21455	706.97998	 34.40	
 10.190	142.105	 40.08401	  4.77109	 28.65795	 24.52878	  7.89398	 -0.55640	 42.21133	707.03998	 34.40	
 10.194	151.526	 40.02440	  3.76849	 29.92616	 22.54720	  9.54422	 -0.63348	 42.19403	707.02002	 34.40	
 10.210	161.034	 39.99327	  3.03553	 30.89890	 20.33027	 11.42453	 -0.68195	 42.18835	707.02002	 34.40	
 10.191	170.497	 40.00809	  2.66571	 31.49043	 18.03496	 13.38371	 -0.66808	 42.19718	706.90997	 34.40	
 11.899	171.783	 39.12230	  0.09843	 33.19649	 17.20454	 12.72582	 -1.03273	 42.21465	706.92999	 34.40	
 11.890	163.610	 39.11512	  0.41401	 32.63876	 19.54362	 10.76157	 -1.05546	 42.19381	707.00000	 34.40	
 11.889	155.445	 39.14848	  1.01023	 31.78941	 21.81508	  8.81403	 -1.05739	 42.19899	706.91998	 34.30	
 11.909	147.299	 39.18074	  1.80831	 30.66324	 23.93476	  7.02601	 -1.02200	 42.20517	706.96997	 34.30	
 11.902	139.148	 39.21568	  2.89890	 29.21515	 25.91759	  5.39159	 -0.95958	 42.20939	706.90002	 34.30	
 11.894	130.867	 39.23169	  4.27068	 27.48623	 27.71430	  4.01860	 -0.94735	 42.18713	706.91998	 34.30	
 11.897	122.732	 39.31966	  5.84665	 25.59920	 29.30338	  2.88893	 -0.96570	 42.20886	706.98999	 34.30	
 11.903	114.597	 39.34705	  7.58173	 23.54097	 30.54906	  2.01871	 -0.92450	 42.17440	706.97998	 34.30	
 11.893	106.346	 39.46743	  9.60116	 21.35818	 31.53937	  1.42292	 -0.85004	 42.20636	707.01001	 34.30	
 11.892	 98.155	 39.52462	 11.69551	 19.12038	 32.15158	  1.04561	 -0.80783	 42.18874	706.96002	 34.30	
 11.900	 90.000	 39.61893	 13.90393	 16.92808	 32.45402	  0.93784	 -0.78917	 42.21671	706.96002	 34.30	
 11.892	 81.845	 39.70134	 16.24501	 14.78451	 32.34317	  1.13939	 -0.80030	 42.21540	706.89001	 34.20	
 11.893	 73.654	 39.77460	 18.61304	 12.68724	 31.90637	  1.52789	 -0.79774	 42.20399	706.98999	 34.20	
 11.903	 65.403	 39.83433	 20.89102	 10.69567	 31.13323	  2.13150	 -0.74962	 42.20346	707.03003	 34.20	
 11.897	 57.268	 39.89729	 23.04967	  8.87400	 30.04600	  2.98475	 -0.67594	 42.21807	707.07001	 34.20	
 11.894	 49.133	 39.94513	 25.05474	  7.29331	 28.63253	  4.10936	 -0.61277	 42.20027	707.02002	 34.20	
 11.902	 40.852	 40.03559	 26.90780	  5.90103	 26.90997	  5.50140	 -0.57946	 42.22854	706.98999	 34.20	
 11.909	 32.701	 40.05885	 28.44099	  4.82697	 24.97448	  7.13294	 -0.53249	 42.20834	706.95001	 34.20	
 11.889	 24.555	 40.07327	 29.67510	  4.00182	 22.92795	  8.95353	 -0.46791	 42.18838	707.00000	 34.20	
 11.890	 16.390	 40.12259	 30.62070	  3.38144	 20.74859	 10.96920	 -0.42513	 42.18650	707.09003	 34.20	
 11.899	  8.217	 40.14207	 31.20297	  2.95453	 18.44974	 13.03034	 -0.43834	 42.18622	707.13000	 34.20	
 11.900	  0.000	 40.14605	 31.43421	  2.74960	 16.11279	 15.16590	 -0.52088	 42.20259	707.09998	 34.20	
 11.899	 -8.217	 40.15776	 31.28881	  2.86042	 13.81454	 17.65069	 -0.60283	 42.19675	707.14001	 34.20	
 11.890	-16.390	 40.15311	 30.77657	  3.21925	 11.62398	 20.02316	 -0.65496	 42.20704	706.97998	 34.20	
 11.889	-24.555	 40.11110	 29.91571	  3.85162	  9.67285	 22.20391	 -0.66562	 42.18923	707.03003	 34.20	
 11.909	-32.701	 40.07428	 28.74560	  4.73523	  7.83134	 24.33857	 -0.70970	 42.20877	707.07001	 34.20	
 11.902	-40.852	 40.02428	 27.24316	  5.90110	  6.21640	 26.23275	 -0.76782	 42.19334	707.09003	 34.20	
 11.894	-49.133	 39.99195	 25.49959	  7.31721	  4.80058	 27.89066	 -0.84973	 42.19846	707.14001	 34.10	
 11.897	-57.268	 39.91935	 23.55351	  8.93509	  3.63690	 29.33259	 -0.86471	 42.18765	707.02002	 34.10	
 11.903	-65.403	 39.83987	 21.48998	 10.70834	  2.64639	 30.54580	 -0.86252	 42.19334	707.01001	 34.10	
 11.893	-73.654	 39.77583	 19.18390	 12.70640	  1.96320	 31.42350	 -0.82234	 42.20536	707.00000	 34.10	
 11.892	-81.845	 39.69075	 16.80522	 14.80202	  1.52697	 31.92613	 -0.82660	 42.19208	707.10999	 34.10	
 11.900	-90.000	 39.60394	 14.44379	 16.92599	  1.28785	 32.07749	 -0.85968	 42.17987	707.03003	 34.10	
 11.892	-98.155	 39.53735	 12.22911	 19.12088	  1.33845	 31.87086	 -0.87326	 42.17578	707.03003	 34.10	
 11.893	-106.346	 39.48609	 10.12390	 21.38357	  1.59855	 31.30387	 -0.88837	 42.20760	706.92999	 34.10	
 11.903	-114.597	 39.41831	  8.14569	 23.58896	  2.17846	 30.32166	 -0.86375	 42.19785	706.96997	 34.10	
 11.897	-122.732	 39.36348	  6.37434	 25.64549	  3.06160	 29.05513	 -0.85448	 42.19761	707.06000	 34.10	
 11.894	-130.867	 39.29890	  4.76952	 27.54730	  4.11102	 27.55082	 -0.88382	 42.19330	707.15002	 34.00	
 11.902	-139.148	 39.25467	  3.33235	 29.27314	  5.46663	 25.83444	 -0.92694	 42.19953	707.02002	 34.00	
 11.909	-147.299	 39.21787	  2.17337	 30.71695	  7.03218	 23.90845	 -0.96448	 42.20885	707.09003	 34.00	
 11.889	-155.445	 39.18196	  1.28346	 31.83241	  8.80006	 21.78623	 -0.96220	 42.17836	707.06000	 34.00	
 11.890	-163.610	 39.16114	  0.59802	 32.68701	 10.67837	 19.54803	 -0.94920	 42.20712	707.13000	 34.00	
 11.899	-171.783	 39.12597	  0.16141	 33.16864	 12.74439	 17.15378	 -0.95004	 42.18707	707.14001	 34.00	
 11.900	180.000	 39.13162	 -0.00295	 33.34790	 14.93947	 14.78081	 -0.96609	 42.19583	707.07001	 34.00	
 13.600	180.000	 38.09028	 -2.52992	 34.89175	 14.08333	 14.02262	 -1.24969	 42.20351	707.13000	 34.00	
 13.608	-172.853	 38.09059	 -2.39243	 34.74007	 11.92408	 16.21695	 -1.20427	 42.18131	707.09003	 34.00	
 13.611	-165.583	 38.10417	 -2.05895	 34.31134	  9.78189	 18.66538	 -1.17309	 42.19006	707.09003	 34.00	
 13.601	-158.353	 38.16046	 -1.42030	 33.56844	  7.90264	 20.98887	 -1.17569	 42.21585	707.06000	 34.00	
 13.609	-151.210	 38.18492	 -0.61543	 32.52284	  6.09834	 23.16834	 -1.16112	 42.20031	707.04999	 34.00	
 13.611	-143.999	 38.21793	  0.37845	 31.23029	  4.43532	 25.23499	 -1.10198	 42.19296	706.95001	 34.00	
 13.601	-136.825	 38.27252	  1.62455	 29.68780	  2.99296	 27.09566	 -1.04272	 42.19218	706.90002	 34.00	
 13.596	-129.640	 38.33804	  3.07690	 27.95235	  1.76578	 28.79538	 -1.00133	 42.19005	706.92999	 33.90	
 13.611	-122.431	 38.37280	  4.66730	 25.99243	  0.65327	 30.34914	 -0.98292	 42.18892	706.91998	 33.90	
 13.604	-115.211	 38.42505	  6.45732	 23.86897	 -0.21593	 31.61320	 -0.96448	 42.18180	706.96997	 33.90	
 13.595	-108.042	 38.49051	  8.38862	 21.69714	 -0.78762	 32.60106	 -0.99609	 42.18311	706.98999	 33.90	
 13.607	-100.793	 38.55635	 10.40665	 19.46271	 -1.17738	 33.32889	 -0.98970	 42.20150	706.96997	 33.90	
 13.601	-93.617	 38.65034	 12.54313	 17.23911	 -1.28808	 33.67052	 -0.97693	 42.21490	706.96997	 33.90	
 13.601	-86.383	 38.71110	 14.81895	 15.05575	 -1.21483	 33.70025	 -0.95115	 42.19975	707.01001	 33.90	
 13.607	-79.207	 38.78372	 17.19842	 12.94397	 -0.90229	 33.41692	 -0.96382	 42.20083	706.95001	 33.90	
 13.595	-71.958	 38.85634	 19.61833	 10.88357	 -0.40240	 32.79551	 -0.97642	 42.17468	707.04999	 33.90	
 13.604	-64.789	 38.94263	 21.85324	  8.96896	  0.29507	 31.91774	 -1.02579	 42.20044	707.03003	 33.90	
 13.611	-57.569	 39.01773	 23.97507	  7.17164	  1.27365	 30.68321	 -1.06191	 42.19017	706.96997	 33.90	
 13.596	-50.360	 39.09142	 25.96308	  5.55034	  2.45511	 29.19901	 -1.05483	 42.19821	706.96997	 33.90	
 13.601	-43.175	 39.15160	 27.79699	  4.14715	  3.78733	 27.52309	 -1.01899	 42.20115	706.89001	 33.90	
 13.611	-36.001	 39.17602	 29.39105	  2.92727	  5.30056	 25.70654	 -0.98345	 42.19278	707.03003	 33.80	
 13.609	-28.790	 39.22377	 30.74490	  1.93719	  7.05916	 23.67032	 -0.97644	 42.19184	706.94000	 33.80	
 13.601	-21.647	 39.25764	 31.79981	  1.15199	  8.91259	 21.49709	 -0.96704	 42.19696	707.03998	 33.80	
 13.611	-14.417	 39.28591	 32.58146	  0.64224	 10.90877	 19.21213	 -0.97796	 42.21070	706.96997	 33.80	
 13.608	 -7.147	 39.31890	 33.04176	  0.37890	 13.13799	 16.75839	 -0.92241	 42.21446	706.96002	 33.80	
 13.600	  0.000	 39.28418	 33.13644	  0.29098	 15.34971	 14.37672	 -0.87267	 42.18429	706.95001	 33.80	
 13.608	  7.147	 39.28277	 32.95853	  0.45803	 17.62500	 12.33575	 -0.81169	 42.19844	706.96997	 33.80	
 13.611	 14.417	 39.24110	 32.43755	  0.74501	 19.99534	 10.19331	 -0.77369	 42.20758	707.03003	 33.80	
 13.601	 21.647	 39.22052	 31.55972	  1.29218	 22.26600	  8.15486	 -0.82059	 42.20503	706.98999	 33.80	
 13.609	 28.790	 39.18950	 30.42288	  2.03274	 24.37774	  6.29705	 -0.87659	 42.19443	706.90997	 33.80	
 13.611	 36.001	 39.14219	 28.94168	  2.95095	 26.44014	  4.53930	 -0.93834	 42.19328	706.92999	 33.80	
 13.601	 43.175	 39.08629	 27.30323	  4.11010	 28.31438	  2.98699	 -0.98313	 42.20078	706.90997	 33.80	
 13.596	 50.360	 39.03448	 25.45618	  5.48554	 29.94622	  1.71109	 -1.02673	 42.20458	706.96997	 33.80	
 13.611	 57.569	 38.97657	 23.41212	  7.05877	 31.35206	  0.61584	 -1.07974	 42.20935	706.90997	 33.80	
 13.604	 64.789	 38.89852	 21.20795	  8.82158	 32.49174	 -0.31953	 -1.16766	 42.20884	707.02002	 33.80	
 13.595	 71.958	 38.83849	 18.93979	 10.76766	 33.32773	 -0.97114	 -1.22542	 42.20776	706.92999	 33.80	
 13.607	 79.207	 38.74955	 16.54129	 12.85299	 33.86589	 -1.41811	 -1.24770	 42.19765	706.97998	 33.70	
 13.601	 86.383	 38.65386	 14.18506	 14.99939	 34.06437	 -1.63579	 -1.20891	 42.17619	706.88000	 33.70	
 13.601	 93.617	 38.59454	 11.95035	 17.20537	 33.97580	 -1.57766	 -1.20260	 42.18929	707.07001	 33.70	
 13.607	100.793	 38.50490	  9.81219	 19.38473	 33.57906	 -1.44283	 -1.23929	 42.20087	707.02002	 33.70	
 13.595	108.042	 38.43958	  7.78368	 21.64564	 32.84143	 -0.99115	 -1.26252	 42.20390	706.92999	 33.70	
 13.604	115.211	 38.38266	  5.83056	 23.82967	 31.83669	 -0.39694	 -1.31539	 42.21001	706.88000	 33.70	
 13.611	122.431	 38.31308	  4.04735	 25.93831	 30.53860	  0.48477	 -1.35989	 42.19453	706.92999	 33.70	
 13.596	129.640	 38.25298	  2.45139	 27.89210	 28.98321	  1.58612	 -1.33808	 42.20711	706.87000	 33.70	
 13.601	136.825	 38.21238	  1.07137	 29.66202	 27.24014	  2.89742	 -1.32646	 42.21771	706.87000	 33.70	
 13.611	143.999	 38.13345	 -0.07915	 31.16050	 25.25359	  4.38999	 -1.36660	 42.17964	706.89001	 33.70	
 13.609	151.210	 38.12812	 -0.99165	 32.49803	 23.13038	  6.13745	 -1.40441	 42.19584	706.95001	 33.70	
 13.601	158.353	 38.11427	 -1.68236	 33.52261	 20.96457	  7.93977	 -1.42912	 42.20768	706.90997	 33.70	
 13.611	165.583	 38.07822	 -2.16083	 34.28419	 18.63451	  9.91870	 -1.37909	 42.18898	706.88000	 33.70	
 13.608	172.853	 38.08896	 -2.38250	 34.72914	 16.19400	 11.96061	 -1.31524	 42.18672	706.89001	 33.70	
 15.298	173.587	 36.94650	 -4.82596	 36.11291	 15.23484	 11.04286	 -1.54042	 42.18490	706.96997	 33.70	
 15.291	167.167	 36.94781	 -4.62753	 35.71326	 17.50995	  8.98224	 -1.65025	 42.20454	706.90997	 33.60	
 15.307	160.676	 36.93214	 -4.33144	 35.05863	 19.93406	  7.06044	 -1.72253	 42.20709	706.96997	 33.70	
 15.300	154.261	 36.95467	 -3.75377	 34.12652	 22.18312	  5.25232	 -1.74434	 42.19982	706.96002	 33.60	
 15.288	147.854	 36.98338	 -2.93394	 32.93520	 24.34823	  3.49008	 -1.76111	 42.18716	706.98999	 33.60	
 15.293	141.428	 37.02923	 -1.92048	 31.52724	 26.37909	  1.87530	 -1.72261	 42.18925	706.98999	 33.60	
 15.299	134.985	 37.08971	 -0.73354	 29.93242	 28.34010	  0.43650	 -1.70576	 42.21719	706.92999	 33.60	
 15.305	128.583	 37.10670	  0.64293	 28.12696	 30.09660	 -0.81832	 -1.71656	 42.18812	706.94000	 33.60	
 15.309	122.142	 37.15895	  2.20415	 26.16176	 31.62261	 -1.89366	 -1.74323	 42.19204	706.95001	 33.60	
 15.304	115.711	 37.23707	  3.97323	 24.04412	 32.94501	 -2.72728	 -1.72888	 42.19907	706.95001	 33.60	
 15.297	109.291	 37.31759	  5.90097	 21.86400	 34.00706	 -3.35488	 -1.68702	 42.19881	706.92999	 33.60	
 15.293	102.897	 37.40281	  7.87407	 19.69082	 34.75959	 -3.77026	 -1.66068	 42.20536	706.90002	 33.60	
 15.293	 96.458	 37.50634	  9.98194	 17.48038	 35.29020	 -3.95231	 -1.66232	 42.20366	706.94000	 33.60	
 15.300	 90.000	 37.57130	 12.16159	 15.24914	 35.52353	 -4.08019	 -1.65499	 42.19793	706.90002	 33.50	
 15.293	 83.542	 37.66882	 14.44738	 13.07574	 35.48554	 -3.96741	 -1.69435	 42.20564	706.94000	 33.50	
 15.293	 77.103	 37.73237	 16.83577	 10.92680	 35.14699	 -3.65714	 -1.71537	 42.20600	706.87000	 33.60	
 15.297	 70.709	 37.81689	 19.18583	  8.94718	 34.54206	 -3.16438	 -1.67748	 42.20155	706.90997	 33.50	
 15.304	 64.289	 37.89602	 21.45551	  7.10710	 33.69016	 -2.52214	 -1.59435	 42.22899	706.92999	 33.50	
 15.309	 57.858	 37.92518	 23.63376	  5.34419	 32.54319	 -1.74526	 -1.50393	 42.18660	706.90002	 33.50	
 15.305	 51.417	 37.98819	 25.70297	  3.78290	 31.17058	 -0.69585	 -1.44434	 42.20385	706.85999	 33.50	
 15.299	 45.015	 38.04541	 27.54844	  2.41009	 29.55817	  0.56937	 -1.39236	 42.19710	706.83002	 33.50	
 15.293	 38.572	 38.08636	 29.29029	  1.21561	 27.75318	  2.00287	 -1.36178	 42.18148	706.89001	 33.50	
 15.288	 32.146	 38.16594	 30.88314	  0.21352	 25.74042	  3.66220	 -1.32316	 42.20504	706.84003	 33.50	
 15.300	 25.739	 38.16860	 32.19333	 -0.60094	 23.60256	  5.43792	 -1.23003	 42.18418	706.91998	 33.50	
 15.307	 19.324	 38.20689	 33.23595	 -1.20903	 21.43597	  7.31488	 -1.18034	 42.19232	706.84003	 33.50	
 15.291	 12.833	 38.25692	 34.02380	 -1.63188	 19.11972	  9.39412	 -1.16340	 42.19101	706.83002	 33.50	
 15.298	  6.413	 38.27063	 34.50259	 -1.90611	 16.79527	 11.50098	 -1.19571	 42.19025	706.83002	 33.50	
 15.300	  0.000	 38.30324	 34.68623	 -1.99777	 14.56142	 13.59997	 -1.23482	 42.19200	706.78003	 33.50	
 15.298	 -6.413	 38.28263	 34.54702	 -1.87692	 12.30632	 15.81863	 -1.24035	 42.16963	706.79999	 33.50	
 15.291	-12.833	 38.29621	 34.19492	 -1.73300	 10.13352	 18.26686	 -1.21914	 42.21375	706.82001	 33.50	
 15.307	-19.324	 38.24224	 33.50418	 -1.36611	  8.11348	 20.57207	 -1.20308	 42.18613	706.84003	 33.50	
 15.300	-25.739	 38.22020	 32.57053	 -0.74320	  6.23582	 22.82055	 -1.16264	 42.18993	706.69000	 33.50	
 15.288	-32.146	 38.20125	 31.33924	  0.11956	  4.45163	 24.97794	 -1.12303	 42.19637	706.76001	 33.50	
 15.293	-38.572	 38.16735	 29.86676	  1.17064	  2.84580	 26.92261	 -1.11608	 42.19856	706.90002	 33.50	
 15.299	-45.015	 38.12649	 28.18550	  2.38798	  1.33162	 28.80840	 -1.13090	 42.21879	706.88000	 33.50	
 15.305	-51.417	 38.04657	 26.29165	  3.82934	  0.01613	 30.47463	 -1.13344	 42.20335	706.67999	 33.50	
 15.309	-57.858	 37.95964	 24.22516	  5.40757	 -1.15202	 31.89837	 -1.12223	 42.19014	706.69000	 33.50	
 15.304	-64.289	 37.89522	 22.10296	  7.16883	 -2.09018	 33.11048	 -1.08242	 42.20059	706.78998	 33.50	
 15.297	-70.709	 37.83411	 19.85089	  9.04085	 -2.74824	 34.02338	 -1.02094	 42.20736	706.77002	 33.50	
 15.293	-77.103	 37.75551	 17.52466	 11.01633	 -3.23094	 34.65369	 -0.98698	 42.19885	706.78998	 33.50	
 15.293	-83.542	 37.67404	 15.14997	 13.12604	 -3.43924	 35.02040	 -0.94816	 42.16511	706.81000	 33.40	
 15.300	-90.000	 37.61621	 12.86891	 15.25079	 -3.58322	 35.14028	 -0.93330	 42.18429	706.78998	 33.50	
 15.293	-96.458	 37.52544	 10.65366	 17.47507	 -3.62116	 34.94718	 -0.93759	 42.16840	706.76001	 33.40	
 15.293	-102.897	 37.43402	  8.56959	 19.70187	 -3.42553	 34.47535	 -0.95040	 42.15886	706.79999	 33.40	
 15.297	-109.291	 37.37342	  6.61040	 21.89769	 -3.10639	 33.76234	 -0.94965	 42.17058	706.82001	 33.40	
 15.304	-115.711	 37.31840	  4.72246	 24.07334	 -2.58775	 32.77945	 -0.93922	 42.20081	706.84003	 33.40	
 15.309	-122.142	 37.25916	  2.93626	 26.18598	 -1.81632	 31.51064	 -0.95134	 42.19143	706.88000	 33.40	
 15.305	-128.583	 37.18556	  1.33409	 28.15653	 -0.75594	 29.98746	 -0.96967	 42.17186	706.73999	 33.40	
 15.299	-134.985	 37.17527	 -0.07886	 29.97305	  0.51156	 28.29458	 -1.03330	 42.20338	706.76001	 33.40	
 15.293	-141.428	 37.11030	 -1.32289	 31.57829	  1.94183	 26.36280	 -1.10027	 42.16782	706.71002	 33.40	
 15.288	-147.854	 37.09703	 -2.38860	 32.99990	  3.46506	 24.44078	 -1.16382	 42.20771	706.84003	 33.40	
 15.300	-154.261	 37.02366	 -3.25928	 34.14614	  5.13233	 22.27376	 -1.20478	 42.16689	706.78998	 33.40	
 15.307	-160.676	 37.00841	 -3.95954	 35.06855	  6.93362	 20.06666	 -1.25863	 42.18318	706.71997	 33.40	
 15.291	-167.167	 36.96819	 -4.47541	 35.72669	  8.87850	 17.69103	 -1.28813	 42.17378	706.83002	 33.40	
 15.298	-173.587	 36.94208	 -4.78471	 36.11048	 10.96222	 15.32463	 -1.34951	 42.16479	706.79999	 33.40	
 15.300	180.000	 36.93851	 -4.96806	 36.25219	 13.13545	 13.19464	 -1.42095	 42.18001	706.81000	 33.40	
 17.000	180.000	 35.66153	 -7.36296	 37.50267	 12.13419	 12.21018	 -1.51831	 42.19175	706.81000	 33.40	
 16.990	-174.179	 35.65939	 -7.25050	 37.37233	  9.95915	 14.42212	 -1.44883	 42.18099	706.73999	 33.40	
 17.009	-168.383	 35.70243	 -6.87999	 37.03962	  7.87619	 16.64755	 -1.35770	 42.19093	706.78003	 33.40	
 17.000	-162.596	 35.73430	 -6.41846	 36.45212	  5.96176	 18.89395	 -1.28906	 42.19852	706.78003	 33.40	
 16.990	-156.759	 35.75380	 -5.83841	 35.60683	  4.12221	 21.27157	 -1.22969	 42.17503	706.71002	 33.40	
 16.995	-150.919	 35.78469	 -5.07646	 34.54739	  2.39759	 23.49683	 -1.13432	 42.17717	706.71002	 33.40	
 16.988	-145.161	 35.83576	 -4.14504	 33.28643	  0.87553	 25.48115	 -1.07488	 42.17847	706.67999	 33.30	
 17.014	-139.343	 35.84304	 -3.12659	 31.80794	 -0.67234	 27.48161	 -1.01392	 42.17966	706.72998	 33.30	
 17.007	-133.546	 35.90556	 -1.86544	 30.12547	 -2.03099	 29.38560	 -0.93850	 42.19582	706.72998	 33.30	
 17.001	-127.699	 35.93768	 -0.41459	 28.22411	 -3.20549	 31.07328	 -0.92188	 42.17543	706.75000	 33.30	
 17.006	-121.937	 36.00124	  1.15319	 26.27612	 -4.10155	 32.53721	 -0.86198	 42.18621	706.69000	 33.30	
 17.002	-116.134	 36.08028	  2.93085	 24.17278	 -4.77130	 33.77417	 -0.84935	 42.18495	706.71997	 33.30	
 17.001	-110.310	 36.11829	  4.77015	 21.98982	 -5.30595	 34.80086	 -0.85235	 42.15949	706.70001	 33.30	
 16.988	-104.517	 36.21391	  6.69931	 19.83247	 -5.66823	 35.61700	 -0.85152	 42.18954	706.78003	 33.30	
 17.008	-98.662	 36.28499	  8.72142	 17.57897	 -5.94663	 36.19996	 -0.84820	 42.20744	706.73999	 33.30	
 16.996	-92.909	 36.36063	 10.83422	 15.39222	 -6.02576	 36.46864	 -0.86127	 42.19402	706.75000	 33.30	
 16.996	-87.091	 36.42626	 13.08148	 13.22804	 -5.89756	 36.49735	 -0.87325	 42.18792	706.76001	 33.30	
 17.012	-81.253	 36.48553	 15.36981	 11.12390	 -5.74994	 36.30306	 -0.90408	 42.18508	706.65997	 33.30	
 16.988	-75.483	 36.56894	 17.66736	  9.15226	 -5.42564	 35.82382	 -0.96089	 42.18059	706.76001	 33.30	
 17.001	-69.690	 36.63920	 19.94262	  7.22351	 -5.01833	 35.13007	 -1.00791	 42.19242	706.71997	 33.30	
 17.002	-63.866	 36.70380	 22.20964	  5.38233	 -4.38013	 34.16522	 -1.02221	 42.17504	706.67999	 33.30	
 17.006	-58.063	 36.79070	 24.43314	  3.64869	 -3.55013	 33.00977	 -1.05684	 42.20355	706.73999	 33.30	
 17.001	-52.301	 36.85588	 26.48606	  2.07837	 -2.51415	 31.61235	 -1.07405	 42.18951	706.84998	 33.30	
 17.007	-46.454	 36.90051	 28.44678	  0.56440	 -1.22300	 29.94463	 -1.08814	 42.18723	706.67999	 33.30	
 17.014	-40.657	 36.95961	 30.22569	 -0.66541	  0.26046	 28.10573	 -1.12086	 42.20225	706.71997	 33.30	
 16.988	-34.839	 37.03640	 31.79668	 -1.65318	  1.87584	 26.10500	 -1.14157	 42.19559	706.81000	 33.30	
 16.995	-29.081	 37.04763	 33.10326	 -2.51374	  3.53609	 24.09102	 -1.18584	 42.18894	706.81000	 33.30	
 16.990	-23.241	 37.08325	 34.19837	 -3.17591	  5.37147	 21.85663	 -1.23344	 42.16492	706.76001	 33.30	
 17.000	-17.404	 37.13953	 35.07405	 -3.70465	  7.31393	 19.60418	 -1.33098	 42.19263	706.76001	 33.30	
 17.009	-11.617	 37.14683	 35.65460	 -4.01685	  9.25814	 17.22753	 -1.38021	 42.18953	706.78003	 33.30	
 16.990	 -5.821	 37.18298	 35.99067	 -4.10830	 11.45218	 14.91124	 -1.41482	 42.17752	706.78003	 33.30	
 17.000	  0.000	 37.17639	 36.13211	 -4.28666	 13.68035	 12.73871	 -1.45911	 42.20504	706.79999	 33.30	
 16.990	  5.821	 37.14878	 35.93134	 -4.17165	 15.93112	 10.59860	 -1.46297	 42.18926	706.76001	 33.30	
 17.009	 11.617	 37.10979	 35.50764	 -3.96763	 18.20804	  8.48367	 -1.48916	 42.18991	706.81000	 33.30	
 17.000	 17.404	 37.05747	 34.79568	 -3.62451	 20.48948	  6.43776	 -1.52783	 42.16828	706.78998	 33.30	
 16.990	 23.241	 37.06322	 33.86443	 -3.10474	 22.72918	  4.54966	 -1.57003	 42.20731	706.77002	 33.30	
 16.995	 29.081	 37.00014	 32.64042	 -2.45859	 24.91122	  2.68708	 -1.66866	 42.18792	706.78998	 33.30	
 16.988	 34.839	 36.97006	 31.23320	 -1.62053	 26.97611	  0.99547	 -1.70646	 42.20362	706.78998	 33.20	
 17.014	 40.657	 36.90332	 29.59501	 -0.61198	 28.89426	 -0.55909	 -1.76449	 42.20408	706.77002	 33.20	
 17.007	 46.454	 36.86687	 27.76522	  0.65085	 30.67847	 -1.91911	 -1.77612	 42.19556	706.64001	 33.20	
 17.001	 52.301	 36.80208	 25.77662	  2.03011	 32.28426	 -3.16287	 -1.84194	 42.21168	706.73999	 33.20	
 17.006	 58.063	 36.75378	 23.82149	  3.54484	 33.61188	 -3.86294	 -1.93655	 42.20022	706.66998	 33.20	
 17.002	 63.866	 36.69698	 21.59649	  5.27650	 34.74434	 -4.62990	 -2.03082	 42.18644	706.78003	 33.20	
 17.001	 69.690	 36.63527	 19.31320	  7.10295	 35.63674	 -5.22870	 -2.11060	 42.18802	706.78003	 33.20	
 16.988	 75.483	 36.57328	 16.97001	  9.01276	 36.27487	 -5.67956	 -2.16545	 42.19403	706.78003	 33.20	
 17.012	 81.253	 36.47744	 14.65657	 10.99736	 36.70795	 -6.06913	 -2.12630	 42.19608	706.71997	 33.20	
 16.996	 87.091	 36.41515	 12.38513	 13.12583	 36.86895	 -6.25081	 -2.09453	 42.19706	706.71997	 33.20	
 16.996	 92.909	 36.32487	 10.17134	 15.34050	 36.78331	 -6.26692	 -2.08341	 42.20373	706.63000	 33.20	
 17.008	 98.662	 36.22172	  8.02207	 17.57119	 36.43329	 -6.07964	 -2.10541	 42.19722	706.65997	 33.20	
 16.988	104.517	 36.17745	  5.96481	 19.84239	 35.80927	 -5.74099	 -2.10723	 42.19109	706.66998	 33.20	
 17.001	110.310	 36.07571	  3.98435	 22.02991	 34.98624	 -5.33886	 -2.12446	 42.19318	706.78003	 33.20	
 17.002	116.134	 35.98063	  2.11054	 24.14732	 33.94041	 -4.94549	 -2.14710	 42.20147	706.77002	 33.20	
 17.006	121.937	 35.89067	  0.38938	 26.22324	 32.64618	 -4.26724	 -2.11586	 42.18487	706.78003	 33.20	
 17.001	127.699	 35.84482	 -1.14878	 28.19242	 31.08213	 -3.28790	 -2.07397	 42.18753	706.71002	 33.20	
 17.007	133.546	 35.80117	 -2.56320	 30.06721	 29.30730	 -2.07882	 -2.02167	 42.19326	706.71002	 33.10	
 17.014	139.343	 35.74255	 -3.77628	 31.77494	 27.38281	 -0.70598	 -2.00847	 42.21270	706.81000	 33.10	
 16.988	145.161	 35.71439	 -4.77992	 33.26213	 25.35354	  0.81659	 -2.01988	 42.20225	706.63000	 33.10	
 16.995	150.919	 35.70929	 -5.54474	 34.53035	 23.28373	  2.46092	 -2.02541	 42.20911	706.76001	 33.10	
 16.990	156.759	 35.71004	 -6.15402	 35.57874	 21.05251	  4.21943	 -1.97467	 42.21291	706.77002	 33.10	
 17.000	162.596	 35.67572	 -6.59694	 36.41071	 18.75216	  6.03449	 -1.88700	 42.20222	706.78003	 33.10	
 17.009	168.383	 35.65237	 -6.94441	 36.99403	 16.48423	  7.95891	 -1.76661	 42.17745	706.82001	 33.10	
 16.990	174.179	 35.66396	 -7.23116	 37.38932	 14.20192	 10.06845	 -1.63760	 42.20136	706.75000	 33.10	
 18.709	174.675	 34.22262	 -9.50380	 38.49934	 13.06590	  9.07841	 -1.66681	 42.18452	706.71002	 33.10	
 18.703	169.441	 34.24632	 -9.19686	 38.16978	 15.31098	  6.98294	 -1.82333	 42.20021	706.75000	 33.10	
 18.691	164.085	 34.24456	 -8.88012	 37.60534	 17.58189	  5.01480	 -1.97408	 42.17785	706.73999	 33.10	
 18.706	158.818	 34.26390	 -8.46924	 36.87155	 19.80770	  3.16272	 -2.09293	 42.19069	706.75000	 33.10	
 18.695	153.537	 34.28253	 -7.91784	 35.90751	 22.11214	  1.35043	 -2.15691	 42.18497	706.75000	 33.10	
 18.704	148.255	 34.30184	 -7.27320	 34.74816	 24.28081	 -0.31935	 -2.21623	 42.19098	706.84003	 33.10	
 18.698	142.952	 34.33392	 -6.49360	 33.36615	 26.29126	 -1.76952	 -2.35240	 42.20886	706.82001	 33.10	
 18.699	137.625	 34.39130	 -5.54621	 31.83032	 28.28518	 -3.09085	 -2.41075	 42.22314	706.82001	 33.10	
 18.705	132.343	 34.40897	 -4.37598	 30.08286	 30.14450	 -4.27503	 -2.45660	 42.20464	706.70001	 33.10	
 18.713	127.067	 34.46428	 -3.00912	 28.22348	 31.86344	 -5.22934	 -2.53344	 42.20962	706.62000	 33.10	
 18.700	121.794	 34.55141	 -1.46918	 26.27063	 33.38807	 -6.02116	 -2.58955	 42.20291	706.81000	 33.10	
 18.698	116.504	 34.60266	  0.22931	 24.15933	 34.75784	 -6.79842	 -2.58196	 42.22102	706.79999	 33.10	
 18.707	111.165	 34.66131	  2.04135	 21.94090	 35.89697	 -7.47631	 -2.57371	 42.22986	706.66998	 33.10	
 18.690	105.863	 34.72793	  3.96731	 19.71826	 36.76355	 -7.94994	 -2.55934	 42.22317	706.64001	 33.00	
 18.696	100.583	 34.80507	  5.98838	 17.53012	 37.42824	 -8.17552	 -2.58242	 42.21877	706.67999	 33.00	
 18.700	 95.309	 34.88451	  8.06677	 15.34552	 37.84295	 -8.31669	 -2.58484	 42.19936	706.67999	 33.00	
 18.700	 90.000	 34.98790	 10.19585	 13.19499	 38.05102	 -8.37048	 -2.61827	 42.22328	706.79999	 33.00	
 18.700	 84.691	 35.09295	 12.41044	 11.10151	 38.04150	 -8.29440	 -2.64018	 42.23205	706.73999	 33.00	
 18.696	 79.417	 35.17924	 14.66286	  9.05085	 37.77173	 -8.05017	 -2.64837	 42.22058	706.63000	 33.00	
 18.690	 74.137	 35.25934	 16.94382	  7.10620	 37.29045	 -7.69940	 -2.64968	 42.23099	706.76001	 33.00	
 18.707	 68.835	 35.35184	 19.35457	  5.25153	 36.59037	 -7.18609	 -2.61381	 42.22981	706.76001	 33.00	
 18.698	 63.496	 35.42387	 21.69344	  3.42157	 35.64211	 -6.55020	 -2.52956	 42.22670	706.71997	 33.00	
 18.700	 58.206	 35.47506	 23.91345	  1.73687	 34.48837	 -5.78859	 -2.44929	 42.23245	706.69000	 33.00	
 18.713	 52.933	 35.50688	 25.91006	  0.23101	 33.15837	 -5.00858	 -2.36725	 42.22282	706.75000	 33.00	
 18.705	 47.657	 35.57564	 27.90601	 -1.07974	 31.61296	 -3.95608	 -2.31480	 42.22997	706.84003	 33.00	
 18.699	 42.375	 35.61489	 29.75030	 -2.31363	 29.88396	 -2.97258	 -2.23187	 42.22866	706.71997	 33.00	
 18.698	 37.048	 35.66921	 31.45575	 -3.36599	 28.01208	 -1.53267	 -2.16407	 42.23686	706.81000	 33.00	
 18.704	 31.745	 35.71362	 32.92836	 -4.21070	 26.03395	  0.05547	 -2.11540	 42.24038	706.88000	 33.00	
 18.695	 26.463	 35.76663	 34.23933	 -4.87142	 23.92479	  1.81010	 -2.04079	 42.23663	706.69000	 33.00	
 18.706	 21.182	 35.78724	 35.33751	 -5.44905	 21.70243	  3.65809	 -1.97137	 42.21376	706.73999	 33.00	
 18.691	 15.915	 35.82538	 36.19929	 -5.91083	 19.47622	  5.59502	 -1.91638	 42.21855	706.65997	 33.00	
 18.703	 10.559	 35.84719	 36.84922	 -6.26012	 17.16044	  7.61807	 -1.82289	 42.22387	706.70001	 33.00	
 18.709	  5.325	 35.85673	 37.24411	 -6.47167	 14.92079	  9.66798	 -1.75547	 42.21523	706.70001	 33.00	
 18.700	  0.000	 35.87775	 37.37804	 -6.46856	 12.71350	 11.81977	 -1.68941	 42.19444	706.75000	 33.00	
 18.709	 -5.325	 35.90556	 37.31890	 -6.36366	 10.46207	 13.97004	 -1.64395	 42.22657	706.76001	 33.00	
 18.703	-10.559	 35.89704	 36.99792	 -6.23011	  8.36768	 16.24991	 -1.54513	 42.22072	706.76001	 33.00	
 18.691	-15.915	 35.88706	 36.43695	 -5.91597	  6.40449	 18.52310	 -1.46668	 42.22510	706.78998	 33.00	
 18.706	-21.182	 35.84391	 35.68439	 -5.52946	  4.46486	 20.76221	 -1.35872	 42.21738	706.73999	 33.00	
 18.695	-26.463	 35.81241	 34.67067	 -4.97570	  2.62171	 23.07649	 -1.29462	 42.21478	706.76001	 33.00	
 18.704	-31.745	 35.77687	 33.48652	 -4.29116	  0.87611	 25.14135	 -1.20582	 42.21625	706.71997	 33.00	
 18.698	-37.048	 35.71287	 32.04424	 -3.38236	 -0.77423	 27.21120	 -1.14501	 42.21280	706.76001	 33.00	
 18.699	-42.375	 35.65644	 30.41285	 -2.35718	 -2.31850	 29.17596	 -1.10951	 42.21909	706.69000	 33.00	
 18.705	-47.657	 35.57082	 28.55165	 -1.18293	 -3.67372	 30.96600	 -1.07762	 42.18354	706.65002	 33.00	
 18.713	-52.933	 35.54031	 26.59212	  0.23689	 -4.74407	 32.55992	 -1.08396	 42.18710	706.72998	 33.00	
 18.700	-58.206	 35.47777	 24.49413	  1.85669	 -5.72079	 33.97023	 -1.07373	 42.19651	706.56000	 33.00	
 18.698	-63.496	 35.39072	 22.29415	  3.54635	 -6.50296	 35.15075	 -1.03915	 42.17506	706.59998	 33.00	
 18.707	-68.835	 35.35159	 20.10283	  5.28645	 -6.86314	 36.11786	 -1.00225	 42.19774	706.70001	 33.00	
 18.690	-74.137	 35.28038	 17.84908	  7.15370	 -7.24434	 36.84549	 -0.96627	 42.18242	706.65002	 33.00	
 18.696	-79.417	 35.20116	 15.54632	  9.11292	 -7.61973	 37.38735	 -0.93354	 42.19432	706.53998	 33.00	
 18.700	-84.691	 35.12887	 13.24253	 11.18371	 -7.85249	 37.68785	 -0.92962	 42.19341	706.66998	 33.00	
 18.700	-90.000	 35.05026	 10.97449	 13.28668	 -8.01991	 37.76625	 -0.89462	 42.19590	706.64001	 33.00	
 18.700	-95.309	 34.95951	  8.79616	 15.44507	 -8.05411	 37.60420	 -0.87506	 42.17574	706.60999	 33.00	
 18.696	-100.583	 34.90579	  6.71738	 17.67956	 -7.90718	 37.23111	 -0.87213	 42.20023	706.65002	 33.00	
 18.690	-105.863	 34.85083	  4.72720	 19.88378	 -7.59837	 36.61318	 -0.87715	 42.20248	706.59998	 33.00	
 18.707	-111.165	 34.76689	  2.79285	 22.06466	 -7.22167	 35.80814	 -0.89094	 42.20065	706.59998	 33.00	
 18.698	-116.504	 34.72654	  0.96187	 24.26478	 -6.66292	 34.72718	 -0.88928	 42.20986	706.53003	 33.00	
 18.700	-121.794	 34.64421	 -0.71646	 26.29201	 -6.09379	 33.43233	 -0.89021	 42.19065	706.60999	 33.00	
 18.713	-127.067	 34.59572	 -2.25696	 28.28007	 -5.40205	 32.00042	 -0.90449	 42.22380	706.66998	 33.00	
 18.705	-132.343	 34.51650	 -3.63713	 30.11794	 -4.37099	 30.32296	 -0.91632	 42.19671	706.58002	 33.00	
 18.699	-137.625	 34.48133	 -4.84339	 31.84303	 -3.16796	 28.51600	 -0.99238	 42.21486	706.62000	 32.90	
 18.698	-142.952	 34.45281	 -5.89787	 33.41519	 -1.76661	 26.53044	 -1.02712	 42.22020	706.60999	 32.90	
 18.704	-148.255	 34.40956	 -6.83040	 34.76301	 -0.22645	 24.48692	 -1.10971	 42.18752	706.52002	 32.90	
 18.695	-153.537	 34.36004	 -7.62280	 35.90870	  1.36225	 22.39874	 -1.17454	 42.18349	706.60999	 32.90	
 18.706	-158.818	 34.32787	 -8.27119	 36.87987	  3.05686	 20.09307	 -1.23829	 42.18211	706.67999	 32.90	
 18.691	-164.085	 34.33817	 -8.75114	 37.62372	  4.94268	 17.84826	 -1.31753	 42.20070	706.62000	 32.90	
 18.703	-169.441	 34.28210	 -9.12448	 38.16925	  6.86458	 15.58127	 -1.41185	 42.18219	706.54999	 32.90	
 18.709	-174.675	 34.25135	 -9.51255	 38.49437	  8.89612	 13.42027	 -1.49785	 42.20995	706.48999	 32.90	
 18.700	180.000	 34.22606	 -9.57114	 38.56568	 11.01888	 11.20883	 -1.62814	 42.18700	706.58002	 32.90	
 20.400	180.000	 32.73761	-11.53222	 39.53100	  9.86359	 10.13323	 -1.55875	 42.22038	706.51001	 32.90	
 20.401	-175.153	 32.73380	-11.47990	 39.43297	  7.82058	 12.27589	 -1.47449	 42.19053	706.54999	 32.90	
 20.407	-170.264	 32.74741	-11.28937	 39.16379	  5.76964	 14.50054	 -1.37963	 42.20494	706.40002	 32.90	
 20.410	-165.423	 32.78665	-10.92087	 38.68104	  3.80703	 16.63600	 -1.28585	 42.20176	706.46997	 32.90	
 20.392	-160.496	 32.83304	-10.49989	 37.99516	  1.93761	 18.92901	 -1.22302	 42.20071	706.53003	 33.00	
 20.401	-155.705	 32.86492	 -9.94240	 37.14690	  0.23567	 21.13492	 -1.14239	 42.19106	706.46997	 32.90	
 20.405	-150.835	 32.92162	 -9.21351	 36.09846	 -1.41559	 23.30560	 -1.10854	 42.19864	706.46002	 32.90	
 20.397	-145.903	 32.98243	 -8.28065	 34.77687	 -2.86676	 25.44701	 -1.05780	 42.18159	706.62000	 32.90	
 20.392	-141.062	 33.01905	 -7.35462	 33.34552	 -4.19452	 27.48571	 -1.02983	 42.19950	706.51001	 32.90	
 20.396	-136.227	 33.06339	 -6.27373	 31.76743	 -5.34722	 29.38253	 -1.00822	 42.21095	706.57001	 32.90	
 20.408	-131.372	 33.09827	 -5.10173	 30.01514	 -6.42745	 31.13840	 -0.93463	 42.18423	706.65997	 32.90	
 20.410	-126.511	 33.13619	 -3.95367	 28.14112	 -7.34820	 32.77062	 -0.89053	 42.19894	706.53998	 32.90	
 20.400	-121.604	 33.19248	 -2.54106	 26.16406	 -8.07386	 34.23450	 -0.84652	 42.19914	706.58002	 32.90	
 20.403	-116.741	 33.20607	 -0.96178	 24.09365	 -8.74994	 35.48960	 -0.83640	 42.18800	706.63000	 32.90	
 20.413	-111.900	 33.26342	  0.82204	 21.96723	 -9.32739	 36.58052	 -0.85316	 42.19474	706.69000	 32.90	
 20.398	-107.004	 33.36320	  2.76131	 19.78655	 -9.65146	 37.44538	 -0.85899	 42.18438	706.67999	 32.90	
 20.394	-102.132	 33.44419	  4.74683	 17.60098	 -9.94198	 38.07507	 -0.84856	 42.21109	706.64001	 32.90	
 20.403	-97.332	 33.50466	  6.76413	 15.44195	-10.10508	 38.53458	 -0.83892	 42.20160	706.67999	 32.90	
 20.392	-92.440	 33.59271	  8.90030	 13.26908	-10.16801	 38.78292	 -0.85349	 42.20782	706.66998	 32.90	
 20.392	-87.560	 33.67160	 11.11682	 11.12375	-10.02544	 38.81879	 -0.87012	 42.20161	706.62000	 32.90	
 20.403	-82.668	 33.71151	 13.35796	  9.04931	 -9.87679	 38.65596	 -0.87512	 42.19329	706.69000	 32.90	
 20.394	-77.868	 33.79570	 15.63307	  7.07071	 -9.59199	 38.26962	 -0.88504	 42.18639	706.63000	 32.90	
 20.398	-72.996	 33.87732	 17.91628	  5.15040	 -9.23045	 37.71724	 -0.92181	 42.20264	706.75000	 32.90	
 20.413	-68.100	 33.91782	 20.16825	  3.30669	 -8.78302	 36.95750	 -0.93876	 42.19376	706.78003	 32.90	
 20.403	-63.259	 33.98710	 22.36400	  1.61811	 -8.26120	 35.98599	 -0.96982	 42.19959	706.77002	 32.90	
 20.400	-58.396	 34.07932	 24.51980	  0.01965	 -7.53755	 34.79854	 -0.96809	 42.20028	706.81000	 32.90	
 20.410	-53.489	 34.12928	 26.63666	 -1.63996	 -6.67790	 33.37264	 -1.01113	 42.20132	706.77002	 32.90	
 20.408	-48.628	 34.18338	 28.65158	 -2.98467	 -5.59491	 31.74604	 -1.00529	 42.19943	706.66998	 32.90	
 20.396	-43.773	 34.21417	 30.43888	 -4.10540	 -4.54942	 30.02463	 -1.02695	 42.18433	706.54999	 32.90	
 20.392	-38.938	 34.26981	 32.10783	 -5.07229	 -3.32307	 28.18712	 -1.06521	 42.20807	706.71002	 32.90	
 20.397	-34.097	 34.32250	 33.60139	 -5.90380	 -1.83933	 26.18993	 -1.15023	 42.19519	706.71997	 32.90	
 20.405	-29.165	 34.37797	 34.96824	 -6.65450	 -0.17171	 24.03814	 -1.20016	 42.20709	706.79999	 32.90	
 20.401	-24.295	 34.41533	 36.08504	 -7.27996	  1.59236	 21.87445	 -1.28724	 42.20552	706.60999	 32.90	
 20.392	-19.504	 34.47020	 36.98583	 -7.73842	  3.50496	 19.67959	 -1.36954	 42.22915	706.67999	 32.90	
 20.410	-14.577	 34.47894	 37.68421	 -8.13708	  5.50848	 17.37351	 -1.45708	 42.18348	706.70001	 32.90	
 20.407	 -9.736	 34.49969	 38.16780	 -8.39821	  7.47014	 15.15139	 -1.55340	 42.20396	706.66998	 32.90	
 20.401	 -4.847	 34.50521	 38.46764	 -8.64152	  9.53851	 12.89877	 -1.63451	 42.21374	706.70001	 32.80	
 20.400	  0.000	 34.49754	 38.52868	 -8.67176	 11.71511	 10.71780	 -1.74008	 42.20683	706.64001	 32.90	
 20.401	  4.847	 34.48754	 38.38549	 -8.59697	 13.89110	  8.65965	 -1.82969	 42.21050	706.66998	 32.90	
 20.407	  9.736	 34.45361	 38.03857	 -8.46944	 16.14888	  6.56296	 -1.97968	 42.22709	706.66998	 32.90	
 20.410	 14.577	 34.40722	 37.46164	 -8.22364	 18.37304	  4.54643	 -2.07933	 42.20834	706.71002	 32.90	
 20.392	 19.504	 34.38578	 36.64426	 -7.75638	 20.66703	  2.57704	 -2.17300	 42.22501	706.70001	 32.90	
 20.401	 24.295	 34.34656	 35.63370	 -7.23774	 22.86957	  0.70369	 -2.26663	 42.21976	706.75000	 32.90	
 20.405	 29.165	 34.30109	 34.41180	 -6.58441	 25.00620	 -1.07002	 -2.35458	 42.21375	706.57001	 32.90	
 20.397	 34.097	 34.27608	 33.03263	 -5.80342	 27.03165	 -2.57440	 -2.47337	 42.19377	706.71002	 32.90	
 20.392	 38.938	 34.25092	 31.48565	 -4.96988	 28.94370	 -3.91846	 -2.55923	 42.21220	706.71002	 32.90	
 20.396	 43.773	 34.17871	 29.72175	 -3.96470	 30.77074	 -5.19671	 -2.57501	 42.20911	706.71002	 32.90	
 20.408	 48.628	 34.09827	 27.82877	 -2.80676	 32.44393	 -6.22644	 -2.61479	 42.20978	706.65997	 32.80	
 20.410	 53.489	 34.03610	 25.78497	 -1.50164	 33.93597	 -7.14292	 -2.69664	 42.19881	706.71997	 32.80	
 20.400	 58.396	 33.95174	 23.63519	 -0.06259	 35.30640	 -8.01016	 -2.76817	 42.19196	706.59998	 32.80	
 20.403	 63.259	 33.87486	 21.50317	  1.51611	 36.45679	 -8.82302	 -2.84233	 42.19912	706.59003	 32.80	
 20.413	 68.100	 33.81807	 19.08695	  3.32963	 37.43089	 -9.32518	 -2.96267	 42.20906	706.58002	 32.80	
 20.398	 72.996	 33.76157	 16.77057	  5.16207	 38.14658	 -9.70926	 -3.00718	 42.21074	706.62000	 32.80	
 20.394	 77.868	 33.64898	 14.40165	  7.06251	 38.68302	-10.34684	 -2.98997	 42.19570	706.60999	 32.80	
 20.403	 82.668	 33.58212	 12.19823	  9.03754	 39.01605	-10.67877	 -3.03377	 42.22039	706.64001	 32.80	
 20.392	 87.560	 33.52004	 10.05929	 11.06865	 39.10679	-10.62974	 -3.00942	 42.20950	706.63000	 32.80	
 20.392	 92.440	 33.42663	  7.99559	 13.07802	 39.02794	-10.60312	 -2.96600	 42.20300	706.56000	 32.80	
 20.403	 97.332	 33.30597	  5.89438	 15.17774	 38.75951	-10.60638	 -2.93723	 42.21338	706.58002	 32.80	
 20.394	102.132	 33.23652	  3.89303	 17.34649	 38.25063	-10.41206	 -2.89525	 42.21884	706.60999	 32.80	
 20.398	107.004	 33.14761	  1.93367	 19.50713	 37.56086	-10.12856	 -2.87691	 42.20364	706.59003	 32.80	
 20.413	111.900	 33.08059	  0.04804	 21.75008	 36.63679	 -9.53527	 -2.83144	 42.20115	706.59003	 32.80	
 20.403	116.741	 33.05100	 -1.69241	 23.95924	 35.44210	 -8.75463	 -2.82736	 42.19586	706.48999	 32.80	
 20.400	121.604	 33.03153	 -3.30935	 26.08323	 34.09603	 -7.94756	 -2.80912	 42.21010	706.58002	 32.90	
 20.410	126.511	 32.97031	 -4.78958	 28.09732	 32.56393	 -7.12200	 -2.75400	 42.21054	706.60999	 32.80	
 20.408	131.372	 32.92299	 -6.05027	 30.00127	 30.91165	 -6.22710	 -2.67544	 42.23265	706.59003	 32.80	
 20.396	136.227	 32.87737	 -7.06407	 31.66857	 29.09709	 -5.23055	 -2.58454	 42.20190	706.67999	 32.80	
 20.392	141.062	 32.86120	 -7.94138	 33.28191	 27.14590	 -3.96091	 -2.56102	 42.20528	706.71002	 32.80	
 20.397	145.903	 32.83650	 -8.68418	 34.74263	 25.15893	 -2.66174	 -2.47541	 42.21883	706.53003	 32.80	
 20.405	150.835	 32.76407	 -9.43396	 36.03335	 23.04370	 -1.32967	 -2.33567	 42.20872	706.59003	 32.80	
 20.401	155.705	 32.72256	-10.07241	 37.10721	 20.84611	  0.32735	 -2.23211	 42.18908	706.67999	 32.80	
 20.392	160.496	 32.73898	-10.52950	 37.94918	 18.66229	  2.11173	 -2.10384	 42.20933	706.65002	 32.80	
 20.410	165.423	 32.72108	-10.94131	 38.65012	 16.34684	  4.00972	 -2.02165	 42.20998	706.57001	 32.80	
 20.407	170.264	 32.69785	-11.33501	 39.13323	 14.06370	  6.02508	 -1.88149	 42.20475	706.62000	 32.80	
 20.401	175.153	 32.71001	-11.53135	 39.42780	 11.88005	  8.09067	 -1.73665	 42.20424	706.47998	 32.80	
  0.141	 45.000	 42.25148	 17.04527	 19.60909	 18.48698	 17.80590	  1.03678	 42.22307	706.64001	 32.80	
  4.001	128.691	 42.01702	 13.09072	 22.84901	 22.15968	 13.31751	  0.80825	 42.22123	706.66998	 32.80	
  4.002	 76.995	 42.13731	 17.79660	 18.34769	 23.46096	 12.39042	  0.95552	 42.21964	706.63000	 32.80	
  4.002	 25.892	 42.20642	 21.69882	 14.83972	 20.58453	 15.16848	  1.02810	 42.20945	706.57001	 32.80	
  4.002	-25.892	 42.17629	 21.72538	 14.71222	 15.79091	 20.02435	  0.93751	 42.20399	706.71002	 32.80	
  4.002	-76.995	 42.11232	 17.90240	 18.21918	 12.77675	 23.07334	  0.78136	 42.22368	706.65997	 32.80	
  4.001	-128.691	 41.98254	 13.21000	 22.76360	 13.63900	 21.88929	  0.67870	 42.20753	706.51001	 32.80	
  4.000	180.000	 41.94986	 11.24835	 24.81351	 17.77110	 17.45486	  0.68813	 42.20904	706.60999	 32.80	
  8.000	180.000	 40.91772	  5.73625	 29.39534	 16.59102	 16.39770	 -0.18448	 42.21813	706.65002	 32.80	
  7.991	-152.370	 40.97165	  6.76930	 28.12313	 11.76241	 21.68953	 -0.19981	 42.22747	706.69000	 32.80	
  7.997	-124.550	 41.06210	  9.91077	 24.58039	  8.49057	 25.77843	 -0.18276	 42.21813	706.67999	 32.80	
  8.006	-96.837	 41.20415	 14.53486	 19.70848	  7.07571	 27.79955	 -0.13979	 42.21968	706.57001	 32.80	
  7.988	-69.228	 41.36115	 19.88635	 14.82833	  7.77856	 27.17572	  0.08840	 42.21801	706.51001	 32.80	
  7.997	-41.563	 41.52120	 24.29456	 11.00699	 10.44950	 24.16624	  0.08541	 42.23706	706.53998	 32.80	
  8.008	-13.821	 41.59771	 26.86719	  8.80320	 14.84850	 19.43347	  0.42185	 42.25856	706.58002	 32.80	
  8.008	 13.821	 41.55610	 26.77776	  8.85515	 20.06455	 14.08484	  0.57462	 42.21240	706.65002	 32.80	
  7.997	 41.563	 41.50361	 24.10975	 11.02733	 24.71259	  9.88131	  0.52940	 42.23423	706.62000	 32.80	
  7.988	 69.228	 41.39472	 19.52489	 14.84290	 27.67243	  7.37555	  0.42609	 42.24074	706.60999	 32.80	
  8.006	 96.837	 41.23076	 14.20879	 19.71335	 28.18096	  6.80831	  0.31183	 42.23378	706.59003	 32.80	
  7.997	124.550	 41.06811	  9.69625	 24.57942	 25.98724	  8.32362	  0.20568	 42.23616	706.70001	 32.80	
  7.991	152.370	 40.97158	  6.75249	 28.14298	 21.80016	 11.66540	 -0.13250	 42.21856	706.63000	 32.80	
 12.009	161.059	 39.07196	  0.42015	 32.51875	 20.25444	 10.03651	 -1.15700	 42.23262	706.66998	 32.80	
 12.013	142.081	 39.12088	  2.32048	 29.82441	 25.24317	  5.83043	 -1.03729	 42.19759	706.65997	 32.80	
 12.006	123.113	 39.26149	  5.62050	 25.72439	 29.31026	  2.78521	 -1.04891	 42.23998	706.70001	 32.80	
 12.007	104.200	 39.41560	 10.03575	 20.74812	 31.83597	  1.14120	 -0.92491	 42.21518	706.66998	 32.80	
 11.989	 85.301	 39.62510	 15.19804	 15.61361	 32.53123	  0.86100	 -0.85999	 42.21964	706.71997	 32.80	
 12.013	 66.294	 39.78358	 20.64792	 10.79393	 31.33802	  1.90499	 -0.83865	 42.23928	706.62000	 32.80	
 12.012	 47.388	 39.91231	 25.50420	  6.81955	 28.37118	  4.22882	 -0.68630	 42.21250	706.70001	 32.80	
 11.990	 28.440	 40.03281	 29.20412	  4.21768	 23.94105	  7.99232	 -0.57787	 42.22003	706.76001	 32.80	
 11.991	  9.464	 40.12323	 31.25881	  2.87655	 18.80252	 12.67435	 -0.49041	 42.23614	706.69000	 32.80	
 11.991	 -9.464	 40.12540	 31.32119	  2.77328	 13.42255	 18.01198	 -0.67938	 42.21733	706.71002	 32.80	
 11.990	-28.440	 40.05843	 29.46499	  4.13702	  8.70379	 23.27535	 -0.74454	 42.23185	706.62000	 32.80	
 12.012	-47.388	 39.95275	 25.94859	  6.85427	  4.92861	 27.64285	 -0.91102	 42.22545	706.60999	 32.80	
 12.013	-66.294	 39.79334	 21.27482	 10.83459	  2.42346	 30.78027	 -0.91960	 42.21562	706.73999	 32.80	
 11.989	-85.301	 39.63461	 15.75709	 15.67101	  1.26277	 32.16633	 -0.89767	 42.23341	706.63000	 32.80	
 12.007	-104.200	 39.43717	 10.56727	 20.77500	  1.39796	 31.58706	 -0.94152	 42.20279	706.65002	 32.80	
 12.006	-123.113	 39.32737	  6.20406	 25.76882	  2.95890	 29.09325	 -0.93372	 42.22250	706.56000	 32.80	
 12.013	-142.081	 39.18814	  2.75209	 29.88337	  5.87676	 25.21009	 -1.00599	 42.21870	706.56000	 32.80	
 12.009	-161.059	 39.12243	  0.64790	 32.55646	  9.96440	 20.28790	 -1.02768	 42.22923	706.59003	 32.80	
 16.000	180.000	 36.43596	 -5.98707	 36.79127	 12.73213	 12.84172	 -1.56102	 42.23125	706.59998	 32.80	
 15.990	-165.604	 36.49215	 -5.31871	 36.10474	  7.80239	 18.05196	 -1.37858	 42.23320	706.53003	 32.70	
 16.002	-151.165	 36.54789	 -3.83355	 34.06132	  3.54301	 23.42492	 -1.26573	 42.23302	706.52002	 32.80	
 16.002	-136.836	 36.63571	 -1.35592	 30.73887	 -0.00957	 28.02660	 -1.07422	 42.21133	706.65997	 32.70	
 15.995	-122.439	 36.75629	  2.09378	 26.36243	 -2.73073	 31.90803	 -0.98014	 42.20778	706.54999	 32.70	
 15.993	-107.966	 36.94624	  6.42593	 21.34266	 -4.10929	 34.50068	 -0.97959	 42.23338	706.46997	 32.70	
 16.005	-93.629	 37.08801	 11.14175	 16.17852	 -4.65302	 35.70676	 -0.96898	 42.22153	706.50000	 32.70	
 15.992	-79.234	 37.24858	 16.45329	 11.22421	 -4.32509	 35.41616	 -1.03761	 42.21760	706.46002	 32.70	
 16.009	-64.774	 37.42475	 21.92188	  6.64404	 -3.14828	 33.71475	 -1.14107	 42.21882	706.71002	 32.70	
 15.997	-50.364	 37.60086	 26.83693	  2.73817	 -0.76149	 30.61842	 -1.19158	 42.22087	706.70001	 32.70	
 15.997	-36.045	 37.70642	 30.90199	 -0.21091	  2.65477	 26.35378	 -1.22389	 42.22003	706.70001	 32.70	
 16.000	-21.597	 37.80070	 33.75620	 -2.07781	  6.80933	 21.37626	 -1.31731	 42.21647	706.60999	 32.70	
 16.003	 -7.169	 37.86068	 35.15168	 -2.79322	 11.61659	 15.87086	 -1.38894	 42.22691	706.60999	 32.70	
 16.003	  7.169	 37.84156	 35.06644	 -2.81696	 16.81771	 10.84776	 -1.39152	 42.23235	706.57001	 32.70	
 16.000	 21.597	 37.77047	 33.44662	 -1.96966	 22.17214	  6.04955	 -1.41583	 42.22882	706.56000	 32.70	
 15.997	 36.045	 37.65899	 30.35624	 -0.11841	 27.16182	  1.86298	 -1.55681	 42.21225	706.65002	 32.70	
 15.997	 50.364	 37.53586	 26.23471	  2.72892	 31.27491	 -1.37739	 -1.67071	 42.21463	706.52002	 32.70	
 16.009	 64.774	 37.38242	 21.24715	  6.51055	 34.24306	 -3.51274	 -1.87354	 42.20734	706.59003	 32.70	
 15.992	 79.234	 37.24151	 15.80379	 11.06348	 35.83936	 -4.65534	 -1.97402	 42.21775	706.59998	 32.70	
 16.005	 93.629	 37.03849	 10.49461	 16.13129	 35.98425	 -4.90817	 -1.92628	 42.21209	706.60999	 32.70	
 15.993	107.966	 36.83579	  5.63564	 21.34164	 34.65193	 -4.22928	 -1.96172	 42.21629	706.65997	 32.70	
 15.995	122.439	 36.65265	  1.34758	 26.31639	 31.95252	 -2.80684	 -1.99216	 42.21092	706.58002	 32.70	
 16.002	136.836	 36.54200	 -2.03424	 30.69645	 27.95949	 -0.01929	 -1.90636	 42.21524	706.56000	 32.70	
 16.002	151.165	 36.46324	 -4.31047	 34.01504	 23.21125	  3.65390	 -1.95029	 42.22572	706.62000	 32.80	
 15.990	165.604	 36.45167	 -5.48762	 36.08263	 17.86846	  7.93840	 -1.84293	 42.23306	706.53998	 32.70	
 20.003	168.362	 33.08187	-10.71161	 38.78391	 15.15772	  5.53493	 -1.92703	 42.22421	706.53003	 32.70	
 20.008	156.764	 33.08969	 -9.74605	 37.15197	 20.41628	  1.12312	 -2.23778	 42.21513	706.52002	 32.70	
 20.000	145.147	 33.17629	 -8.21023	 34.41693	 25.42102	 -2.48471	 -2.47850	 42.19153	706.54999	 32.70	
 19.995	133.545	 33.26508	 -6.12503	 30.73846	 30.01415	 -5.38065	 -2.61461	 42.21645	706.47998	 32.80	
 20.009	121.926	 33.37774	 -2.99748	 26.26192	 33.84947	 -7.44171	 -2.78434	 42.20136	706.51001	 32.70	
 20.005	110.327	 33.49890	  1.03895	 21.20539	 36.74361	 -9.17692	 -2.80184	 42.21505	706.50000	 32.70	
 19.989	 98.733	 33.68962	  5.64617	 16.08299	 38.38427	 -9.94059	 -2.85503	 42.22232	706.59003	 32.80	
 19.999	 87.075	 33.88838	 10.52322	 11.15697	 38.87233	-10.08917	 -2.94780	 42.21050	706.46997	 32.80	
 19.992	 75.457	 34.07383	 15.78154	  6.42011	 38.20103	 -9.42273	 -2.93186	 42.19648	706.42999	 32.80	
 20.009	 63.844	 34.24052	 21.30085	  2.15431	 36.41119	 -8.41837	 -2.80761	 42.21914	706.54999	 32.80	
 19.989	 52.269	 34.42756	 26.27586	 -1.36242	 33.43953	 -6.46605	 -2.61832	 42.20582	706.60999	 32.70	
 19.999	 40.602	 34.57993	 30.80211	 -4.20362	 29.51496	 -3.85383	 -2.52062	 42.23147	706.62000	 32.70	
 20.004	 29.051	 34.63377	 34.25563	 -6.12692	 24.97746	 -0.58095	 -2.28671	 42.20881	706.69000	 32.70	
 20.005	 17.433	 34.72354	 36.79050	 -7.47757	 19.81319	  3.76486	 -2.11237	 42.22539	706.54999	 32.70	
 20.006	  5.780	 34.79703	 38.08701	 -8.08942	 14.47264	  8.54867	 -1.85199	 42.21065	706.53003	 32.70	
 20.006	 -5.780	 34.84365	 38.17952	 -8.09640	  9.38357	 13.55693	 -1.64422	 42.21511	706.60999	 32.70	
 20.005	-17.433	 34.80564	 37.05721	 -7.40178	  4.70226	 18.83799	 -1.43718	 42.21521	706.51001	 32.70	
 20.004	-29.051	 34.73733	 34.83908	 -6.25688	  0.31159	 24.00765	 -1.23022	 42.25057	706.53998	 32.70	
 19.999	-40.602	 34.59499	 31.44668	 -4.34074	 -3.37215	 28.78048	 -1.09357	 42.21855	706.52002	 32.70	
 19.989	-52.269	 34.52750	 27.09452	 -1.49362	 -6.03699	 32.85289	 -1.00685	 42.21864	706.59003	 32.70	
 20.009	-63.844	 34.34929	 22.16221	  2.24987	 -7.78682	 35.93070	 -0.97480	 42.21983	706.65002	 32.70	
 19.992	-75.457	 34.20907	 16.89772	  6.50025	 -8.93825	 37.82423	 -0.91740	 42.22240	706.53998	 32.70	
 19.999	-87.075	 34.04396	 11.56052	 11.23291	 -9.51452	 38.58705	 -0.88870	 42.21452	706.54999	 32.70	
 19.989	-98.733	 33.85420	  6.47543	 16.30035	 -9.53792	 38.19171	 -0.85059	 42.21500	706.65997	 32.70	
 20.005	-110.327	 33.68970	  1.85926	 21.40014	 -8.87612	 36.70486	 -0.85446	 42.22678	706.57001	 32.70	
 20.009	-121.926	 33.56545	 -2.23140	 26.34308	 -7.51341	 33.99425	 -0.87154	 42.22952	706.65997	 32.70	
 19.995	-133.545	 33.46138	 -5.24757	 30.75373	 -5.49851	 30.28167	 -0.98138	 42.20796	706.70001	 32.70	
 20.000	-145.147	 33.36696	 -7.71685	 34.46688	 -2.61958	 25.78853	 -1.06457	 42.22487	706.71002	 32.70	
 20.008	-156.764	 33.21262	 -9.66494	 37.18858	  1.00326	 20.72759	 -1.16532	 42.21186	706.65997	 32.70	
 20.003	-168.362	 33.15065	-10.62438	 38.79557	  5.32137	 15.48689	 -1.35450	 42.21523	706.58002	 32.70	
 20.000	180.000	 33.09469	-11.09070	 39.31186	 10.12996	 10.40528	 -1.59840	 42.21901	706.62000	 32.70	
