FileType=PCF
NHL=14
Date=08/26/17	11:20:03
Facility=APL
Serial=16328-8
Customer=NASA
NP=6
Mach=0.250000
Calibration=1:1
CalPts=490
TstPts=95
PortNumbering=AP Standard
Units=Torr C m/s kg/m^3 deg mm 
Theta[deg]	Phi[deg]	P1[Torr]	P2[Torr]	P3[Torr]	P4[Torr]	P5[Torr]	P6[Torr]	Pt[Torr]	Ps[Abs,Torr]	Ts[C]	
  0.000	  0.000	 30.53527	 15.91770	 15.74025	 15.73573	 15.91784	  0.33980	 30.48927	710.07898	 23.90	
  1.691	128.401	 30.56391	 14.93802	 16.68955	 17.01652	 14.59807	  0.32269	 30.51755	710.06403	 23.90	
  1.692	 77.194	 30.53114	 16.24514	 15.32475	 17.38150	 14.11408	  0.32589	 30.48928	710.13202	 23.90	
  1.699	 26.182	 30.52322	 17.32662	 14.22816	 16.39360	 15.06755	  0.31709	 30.48001	710.10699	 23.90	
  1.699	-26.182	 30.52650	 17.31454	 14.24072	 14.95385	 16.55505	  0.32864	 30.48841	710.07001	 23.90	
  1.692	-77.194	 30.48714	 16.14938	 15.34688	 14.09887	 17.39911	  0.31742	 30.44544	710.04102	 23.90	
  1.691	-128.401	 30.50768	 14.85336	 16.69915	 14.43616	 17.14600	  0.32498	 30.46607	710.07599	 23.90	
  1.700	180.000	 30.52156	 14.26343	 17.30395	 15.69998	 15.92186	  0.33921	 30.47712	709.97998	 23.90	
  3.400	180.000	 30.46277	 12.33851	 18.84073	 15.58843	 15.81182	  0.28021	 30.46543	710.09802	 23.90	
  3.388	-152.325	 30.46008	 12.71385	 18.45845	 14.11079	 17.23423	  0.28139	 30.46797	710.14600	 23.90	
  3.397	-124.529	 30.45225	 13.87858	 17.40667	 12.71957	 18.39188	  0.24879	 30.46014	710.26099	 23.90	
  3.399	-96.763	 30.39959	 15.27632	 15.97415	 12.15300	 18.95337	  0.24185	 30.40933	710.21698	 24.00	
  3.394	-69.283	 30.43877	 16.78906	 14.47353	 12.31955	 18.72559	  0.21890	 30.45384	710.12701	 24.00	
  3.400	-41.398	 30.42839	 18.17681	 13.04736	 13.13352	 17.76868	  0.26037	 30.44477	709.95801	 23.90	
  3.401	-14.021	 30.45101	 18.95668	 12.29445	 14.69511	 16.47520	  0.27785	 30.45806	709.96600	 23.90	
  3.401	 14.021	 30.45066	 18.98859	 12.27309	 16.28834	 14.78330	  0.28714	 30.45637	709.94598	 23.90	
  3.400	 41.398	 30.41595	 18.26186	 12.96244	 17.76444	 13.35818	  0.28359	 30.44417	710.00598	 23.90	
  3.394	 69.283	 30.42265	 16.91832	 14.36871	 18.70647	 12.49699	  0.26633	 30.44360	709.92603	 23.90	
  3.399	 96.763	 30.39412	 15.43017	 15.86626	 18.88780	 12.33347	  0.27284	 30.41376	710.00800	 23.90	
  3.397	124.529	 30.43287	 13.97081	 17.32086	 18.35955	 12.94466	  0.27636	 30.44433	710.08600	 23.90	
  3.388	152.325	 30.43055	 12.75206	 18.40256	 17.15772	 14.14381	  0.28864	 30.43865	709.94897	 23.90	
  5.099	161.165	 30.29800	 10.83195	 20.02570	 17.04063	 13.91911	  0.19793	 30.45367	710.00800	 24.00	
  5.109	142.013	 30.30120	 11.60817	 19.21207	 18.52613	 12.46722	  0.18707	 30.46571	710.05603	 24.00	
  5.095	123.033	 30.30244	 12.81867	 17.91128	 19.57560	 11.43225	  0.16588	 30.45564	710.10901	 24.00	
  5.105	104.191	 30.28965	 14.46574	 16.48586	 20.17925	 10.76273	  0.14411	 30.44560	709.97998	 24.00	
  5.093	 85.207	 30.28730	 16.04239	 14.89775	 20.29834	 10.61154	  0.14930	 30.45898	710.16302	 24.00	
  5.104	 66.290	 30.23093	 17.59106	 13.22722	 19.87271	 10.90343	  0.16186	 30.41323	709.94897	 24.00	
  5.094	 47.331	 30.27091	 18.97841	 11.89507	 18.99866	 11.73740	  0.17473	 30.45528	709.99298	 24.00	
  5.089	 28.397	 30.24665	 19.92104	 10.91765	 17.67283	 12.96774	  0.20121	 30.42174	710.01398	 24.00	
  5.096	  9.576	 30.26467	 20.41098	 10.42613	 16.05479	 14.47588	  0.20011	 30.43251	709.99402	 24.00	
  5.096	 -9.576	 30.23401	 20.33958	 10.43200	 14.42147	 16.24718	  0.14647	 30.39776	709.96002	 24.00	
  5.089	-28.397	 30.21742	 19.81452	 10.98181	 12.73381	 17.68962	  0.17152	 30.39128	709.99103	 24.00	
  5.094	-47.331	 30.19857	 18.79872	 11.95343	 11.55977	 18.97667	  0.03100	 30.37650	709.85400	 24.00	
  5.104	-66.290	 30.23545	 17.40581	 13.31392	 10.74797	 19.99236	  0.11626	 30.41688	709.98199	 24.00	
  5.093	-85.207	 30.28737	 15.83884	 15.01523	 10.45179	 20.41637	  0.09781	 30.45285	710.09302	 24.00	
  5.105	-104.191	 30.27115	 14.27464	 16.57910	 10.60190	 20.29034	  0.02008	 30.42819	710.10999	 24.00	
  5.095	-123.033	 30.27127	 12.64704	 18.00387	 11.23848	 19.64532	  0.13244	 30.42294	710.11798	 24.00	
  5.109	-142.013	 30.23853	 11.49337	 19.22535	 12.22531	 18.50099	  0.12893	 30.38440	709.96503	 24.00	
  5.099	-161.165	 30.25948	 10.78010	 20.02785	 13.85572	 17.15279	  0.18624	 30.41055	710.00598	 24.00	
  5.100	180.000	 30.28116	 10.55144	 20.29490	 15.39102	 15.63443	  0.20157	 30.43339	709.98499	 24.00	
  6.800	180.000	 30.03052	  8.90474	 21.65483	 15.10937	 15.33708	  0.03241	 30.43995	709.99402	 24.00	
  6.796	-166.229	 30.03504	  9.05690	 21.48248	 13.37753	 16.85450	 -0.01783	 30.44208	710.02802	 24.00	
  6.808	-152.311	 29.98854	  9.46124	 20.90109	 11.97073	 18.25360	 -0.09853	 30.39282	709.97400	 24.00	
  6.795	-138.383	 29.98714	 10.24176	 19.98298	 10.76841	 19.59252	 -0.11977	 30.39461	710.05603	 24.00	
  6.792	-124.591	 30.01053	 11.29484	 18.79309	  9.77771	 20.65578	 -0.15113	 30.42466	710.11499	 24.00	
  6.787	-110.754	 29.99334	 12.64162	 17.38002	  9.08064	 21.34646	 -0.18572	 30.41208	710.18799	 24.00	
  6.800	-96.985	 29.97862	 14.30610	 15.90558	  8.69891	 21.70965	 -0.23886	 30.40497	710.14099	 24.00	
  6.800	-83.015	 29.96194	 15.85367	 14.18073	  8.66253	 21.69300	 -0.09969	 30.39368	709.92902	 24.00	
  6.787	-69.246	 29.91906	 17.39374	 12.63118	  8.93031	 21.28689	 -0.22347	 30.36603	710.16901	 24.00	
  6.792	-55.409	 29.94076	 18.84621	 11.27163	  9.57219	 20.50264	 -0.20346	 30.39176	710.04102	 24.00	
  6.795	-41.617	 29.96947	 20.08867	 10.15694	 10.58364	 19.45080	 -0.17335	 30.42097	710.02802	 24.00	
  6.808	-27.689	 29.96364	 21.01480	  9.36920	 11.77598	 18.12207	 -0.10814	 30.41915	709.99402	 24.00	
  6.796	-13.771	 29.92422	 21.51972	  8.92060	 13.10513	 16.67127	 -0.05540	 30.36940	709.82001	 24.00	
  6.800	  0.000	 29.95486	 21.67259	  8.71827	 14.87405	 14.98635	 -0.03187	 30.40611	710.00800	 24.00	
  6.796	 13.771	 29.93989	 21.51412	  8.82263	 16.38901	 13.43812	  0.05073	 30.39351	709.96899	 24.00	
  6.808	 27.689	 29.96246	 21.12010	  9.24760	 18.03611	 11.96907	 -0.04852	 30.43016	710.01001	 24.00	
  6.795	 41.617	 29.93279	 20.24438	 10.02257	 19.35943	 10.77553	  0.04363	 30.39393	710.01703	 24.00	
  6.792	 55.409	 29.95400	 19.08305	 11.17495	 20.42860	  9.82444	 -0.05894	 30.41821	710.10999	 24.00	
  6.787	 69.246	 29.95147	 17.67992	 12.54198	 21.15748	  9.16167	 -0.09262	 30.40058	710.06403	 24.00	
  6.800	 83.015	 29.98960	 16.16083	 14.12452	 21.52220	  8.88859	 -0.11897	 30.42146	710.00598	 24.00	
  6.800	 96.985	 29.98536	 14.60557	 15.72760	 21.56955	  8.92045	 -0.02748	 30.40416	710.09198	 24.00	
  6.787	110.754	 29.95243	 12.89699	 17.19394	 21.12918	  9.31291	 -0.11938	 30.35639	710.08600	 24.00	
  6.792	124.591	 30.01447	 11.57882	 18.63991	 20.52175	  9.98357	 -0.08303	 30.41711	710.13397	 24.00	
  6.795	138.383	 30.00082	 10.42391	 19.86198	 19.51987	 10.94553	 -0.04952	 30.39491	710.02802	 24.00	
  6.808	152.311	 30.00171	  9.57032	 20.84883	 18.23755	 12.18605	 -0.03959	 30.40762	710.12402	 24.00	
  6.796	166.229	 29.96452	  9.05838	 21.39593	 16.71127	 13.59217	 -0.00858	 30.37145	710.01001	 24.00	
  8.491	168.704	 29.60775	  7.31115	 22.60001	 16.34398	 13.13696	 -0.21316	 30.38483	709.96802	 24.00	
  8.502	157.493	 29.60185	  7.71308	 22.09399	 17.95200	 11.65288	 -0.22354	 30.37634	709.97998	 24.00	
  8.494	146.194	 29.61050	  8.37809	 21.38791	 19.37237	 10.34051	 -0.25103	 30.37088	710.03601	 24.00	
  8.495	135.039	 29.61993	  9.26364	 20.37349	 20.58310	  9.20764	 -0.29066	 30.39312	709.96100	 24.00	
  8.487	123.723	 29.60944	 10.37579	 19.06859	 21.52534	  8.30461	 -0.34669	 30.37492	709.98297	 24.00	
  8.492	112.575	 29.62791	 11.74720	 17.60507	 22.28804	  7.68172	 -0.37219	 30.40042	710.05298	 24.00	
  8.510	101.220	 29.61597	 13.23811	 16.11569	 22.73538	  7.22934	 -0.40453	 30.39381	710.06897	 24.00	
  8.500	 90.000	 29.59880	 15.01068	 14.50402	 22.85233	  7.10364	 -0.38887	 30.38782	710.09302	 24.00	
  8.510	 78.780	 29.60572	 16.57907	 12.83079	 22.70139	  7.17705	 -0.36421	 30.42093	709.99402	 24.00	
  8.492	 67.425	 29.58143	 18.18106	 11.27490	 22.17594	  7.58716	 -0.32177	 30.41793	710.02197	 24.00	
  8.487	 56.277	 29.55166	 19.56233	  9.92509	 21.34699	  8.19844	 -0.29315	 30.40547	710.01001	 24.00	
  8.495	 44.961	 29.52805	 20.76281	  8.85544	 20.37981	  9.03875	 -0.27551	 30.38998	710.03003	 24.00	
  8.494	 33.806	 29.50490	 21.70511	  8.00884	 19.10421	 10.14450	 -0.27217	 30.37079	709.92102	 24.00	
  8.502	 22.507	 29.49805	 22.40086	  7.35058	 17.62173	 11.41764	 -0.25479	 30.35729	709.98199	 24.00	
  8.491	 11.296	 29.56889	 22.87073	  7.00490	 16.03026	 12.96595	 -0.24560	 30.41743	709.90698	 24.00	
  8.500	  0.000	 29.55473	 22.98480	  6.88020	 14.37423	 14.59275	 -0.24398	 30.40897	710.09998	 24.00	
  8.491	-11.296	 29.55351	 22.77349	  7.07942	 12.67752	 16.27009	 -0.25341	 30.39328	710.09998	 24.00	
  8.502	-22.507	 29.52490	 22.27367	  7.43751	 11.25864	 17.76849	 -0.29994	 30.36752	709.95697	 24.00	
  8.494	-33.806	 29.57661	 21.48401	  8.11424	  9.91391	 19.30491	 -0.35457	 30.42925	709.87299	 24.00	
  8.495	-44.961	 29.53072	 20.56948	  8.95844	  8.76116	 20.56952	 -0.41900	 30.38965	709.91199	 24.00	
  8.487	-56.277	 29.51758	 19.26027	 10.07750	  7.91874	 21.52100	 -0.45475	 30.35775	710.02197	 24.00	
  8.492	-67.425	 29.54667	 17.82765	 11.43332	  7.31087	 22.28450	 -0.47842	 30.38467	710.13202	 24.00	
  8.510	-78.780	 29.57115	 16.21909	 12.97697	  6.93516	 22.81753	 -0.51916	 30.40554	710.16302	 24.00	
  8.500	-90.000	 29.57071	 14.65951	 14.60558	  6.82368	 22.97931	 -0.52351	 30.38454	709.96899	 24.00	
  8.510	-101.220	 29.56389	 12.88570	 16.28793	  6.98556	 22.81320	 -0.48440	 30.36805	710.04102	 24.00	
  8.492	-112.575	 29.55277	 11.40114	 17.77320	  7.41355	 22.32987	 -0.40950	 30.34636	709.99402	 24.00	
  8.487	-123.723	 29.61279	 10.26642	 19.26798	  8.06816	 21.67690	 -0.36413	 30.40029	710.16602	 24.00	
  8.495	-135.039	 29.61057	  9.18700	 20.55518	  8.99868	 20.68571	 -0.32871	 30.40279	710.09497	 24.00	
  8.494	-146.194	 29.63280	  8.34699	 21.57638	 10.18854	 19.44506	 -0.31299	 30.41055	710.09497	 24.00	
  8.502	-157.493	 29.60920	  7.72919	 22.28028	 11.52237	 17.95600	 -0.28930	 30.38009	710.15503	 24.00	
  8.491	-168.704	 29.59823	  7.36849	 22.62582	 12.91539	 16.46109	 -0.24402	 30.36537	710.11499	 24.00	
  8.500	180.000	 29.59027	  7.16696	 22.77051	 14.68978	 14.70472	 -0.20396	 30.36870	710.11700	 24.00	
 10.200	180.000	 29.16427	  5.32704	 24.01446	 14.11221	 14.27120	 -0.42133	 30.41360	710.09998	 24.00	
 10.191	-170.497	 29.14887	  5.45159	 23.86871	 12.50809	 15.92284	 -0.48704	 30.39123	710.18597	 24.00	
 10.210	-161.034	 29.15399	  5.71861	 23.50510	 11.06928	 17.63584	 -0.53478	 30.39434	710.14899	 24.00	
 10.194	-151.526	 29.12690	  6.19107	 22.83749	  9.62000	 19.16156	 -0.54678	 30.38084	710.12701	 24.00	
 10.190	-142.105	 29.09930	  6.84229	 22.00834	  8.32312	 20.48003	 -0.53509	 30.36864	710.16498	 24.00	
 10.215	-132.646	 29.12527	  7.73648	 20.96274	  7.25325	 21.59758	 -0.54119	 30.39797	710.19702	 24.00	
 10.203	-123.092	 29.11461	  8.89312	 19.67141	  6.37985	 22.62646	 -0.57431	 30.39008	710.10999	 24.00	
 10.192	-113.678	 29.06817	 10.26779	 18.07613	  5.68681	 23.38997	 -0.63171	 30.36302	710.04797	 24.00	
 10.208	-104.249	 29.07037	 11.56432	 16.65495	  5.22160	 23.95076	 -0.72072	 30.37508	710.12701	 24.00	
 10.210	-94.801	 29.04797	 13.09534	 14.96498	  4.91587	 24.22232	 -0.77232	 30.37690	710.08600	 24.00	
 10.210	-85.199	 29.00959	 14.88476	 13.25410	  4.88068	 24.18498	 -0.79724	 30.35845	710.09302	 24.00	
 10.208	-75.751	 29.01573	 16.48987	 11.62913	  5.11325	 23.90238	 -0.78417	 30.37071	710.08398	 24.00	
 10.192	-66.322	 29.03221	 18.12405	 10.23203	  5.56339	 23.34788	 -0.75277	 30.39588	710.03802	 24.00	
 10.203	-56.908	 28.98044	 19.59367	  8.93546	  6.10840	 22.50277	 -0.69822	 30.35789	709.89502	 24.00	
 10.215	-47.354	 29.01679	 20.94039	  7.76842	  6.96797	 21.56229	 -0.65693	 30.40536	710.07599	 24.00	
 10.190	-37.895	 29.00301	 22.00792	  6.78760	  8.02565	 20.37160	 -0.61452	 30.38848	710.09198	 24.00	
 10.194	-28.474	 29.02082	 22.88060	  6.02366	  9.28129	 18.97124	 -0.58605	 30.38707	710.07599	 24.00	
 10.210	-18.966	 29.01877	 23.57398	  5.43881	 10.69715	 17.41059	 -0.54342	 30.37671	709.99701	 24.00	
 10.191	 -9.503	 29.01366	 23.98226	  5.09508	 12.14605	 15.82623	 -0.49043	 30.36464	710.03101	 24.00	
 10.200	  0.000	 28.96851	 24.13413	  4.93476	 13.67709	 14.08015	 -0.47835	 30.32734	710.13800	 24.00	
 10.191	  9.503	 29.01124	 24.06499	  5.05769	 15.50033	 12.41118	 -0.49854	 30.38537	710.05499	 24.10	
 10.210	 18.966	 29.00576	 23.70987	  5.36042	 17.15513	 10.91457	 -0.52334	 30.38862	710.08398	 24.00	
 10.194	 28.474	 28.95752	 23.03713	  5.90908	 18.65989	  9.61543	 -0.52248	 30.33619	710.10303	 24.00	
 10.190	 37.895	 28.99586	 22.20758	  6.64169	 20.08427	  8.40755	 -0.52802	 30.39108	710.14301	 24.10	
 10.215	 47.354	 28.94785	 21.18123	  7.54498	 21.28334	  7.28551	 -0.51947	 30.34825	710.12701	 24.10	
 10.203	 56.908	 28.97345	 19.94033	  8.67559	 22.29958	  6.41491	 -0.54924	 30.35434	710.06097	 24.10	
 10.192	 66.322	 29.00145	 18.52149	  9.92334	 23.09017	  5.84137	 -0.57818	 30.34349	710.20300	 24.10	
 10.208	 75.751	 29.03382	 16.94807	 11.37962	 23.69666	  5.38410	 -0.63637	 30.35404	710.16199	 24.10	
 10.210	 85.199	 29.09639	 15.36822	 13.04592	 24.04892	  5.20510	 -0.69049	 30.39528	710.06097	 24.10	
 10.210	 94.801	 29.08952	 13.52749	 14.80260	 24.05188	  5.24530	 -0.73636	 30.36789	710.10602	 24.10	
 10.208	104.249	 29.07884	 11.97795	 16.40407	 23.77285	  5.49343	 -0.72328	 30.33982	710.01300	 24.10	
 10.192	113.678	 29.11061	 10.52597	 17.89894	 23.25429	  5.97234	 -0.69028	 30.35319	710.17700	 24.00	
 10.203	123.092	 29.10375	  9.37936	 19.39320	 22.53104	  6.63632	 -0.63737	 30.34808	710.04498	 24.10	
 10.215	132.646	 29.10508	  8.06954	 20.74052	 21.55311	  7.43515	 -0.56616	 30.37222	710.07599	 24.00	
 10.190	142.105	 29.13856	  7.10188	 21.86090	 20.43346	  8.51132	 -0.51705	 30.38718	710.15100	 24.10	
 10.194	151.526	 29.14992	  6.37864	 22.73463	 19.09807	  9.75305	 -0.48869	 30.40237	710.01001	 24.00	
 10.210	161.034	 29.10674	  5.78588	 23.39384	 17.56076	 11.12823	 -0.46905	 30.35857	710.03601	 24.00	
 10.191	170.497	 29.11340	  5.44168	 23.80354	 15.88913	 12.63208	 -0.43471	 30.35591	710.00800	 24.10	
 11.899	171.783	 28.53814	  3.55419	 24.99611	 15.31636	 12.11605	 -0.67472	 30.36333	710.07202	 24.00	
 11.890	163.610	 28.54270	  3.85719	 24.60868	 17.04756	 10.61342	 -0.69890	 30.36914	710.01300	 24.10	
 11.889	155.445	 28.55065	  4.35431	 23.99169	 18.62746	  9.20187	 -0.68896	 30.36704	710.03302	 24.10	
 11.909	147.299	 28.52787	  4.99591	 23.15710	 20.08455	  7.91422	 -0.72331	 30.37184	710.07898	 24.10	
 11.902	139.148	 28.53421	  5.84633	 22.11224	 21.28953	  6.78154	 -0.76386	 30.36518	710.08197	 24.10	
 11.894	130.867	 28.48107	  6.87594	 20.98248	 22.42564	  5.75451	 -0.81477	 30.31141	710.15698	 24.10	
 11.897	122.732	 28.53758	  8.05052	 19.68443	 23.44117	  4.94651	 -0.92136	 30.36262	709.96802	 24.10	
 11.903	114.597	 28.52321	  9.40849	 18.19634	 24.22551	  4.20910	 -0.99724	 30.35947	710.09497	 24.10	
 11.893	106.346	 28.54222	 10.75089	 16.67496	 24.80252	  3.75794	 -1.04710	 30.37848	710.16602	 24.10	
 11.892	 98.155	 28.51295	 12.28150	 14.98454	 25.11541	  3.41165	 -1.05544	 30.35996	710.10303	 24.10	
 11.900	 90.000	 28.46877	 13.86387	 13.31504	 25.18971	  3.31195	 -1.01919	 30.34409	710.04401	 24.10	
 11.892	 81.845	 28.48593	 15.53002	 11.64682	 25.05755	  3.39540	 -0.96490	 30.38059	710.07501	 24.10	
 11.893	 73.654	 28.42174	 17.23908	 10.08191	 24.62851	  3.59455	 -0.87332	 30.34289	710.17902	 24.10	
 11.903	 65.403	 28.41247	 18.85730	  8.73341	 24.02271	  4.03113	 -0.81661	 30.37417	710.15503	 24.10	
 11.897	 57.268	 28.35848	 20.26004	  7.44932	 23.13909	  4.65512	 -0.78997	 30.34349	710.00800	 24.10	
 11.894	 49.133	 28.32037	 21.46319	  6.29919	 22.08595	  5.57900	 -0.74765	 30.32436	710.06702	 24.10	
 11.902	 40.852	 28.32446	 22.58339	  5.29725	 20.95060	  6.61975	 -0.75001	 30.34389	709.98798	 24.10	
 11.909	 32.701	 28.31054	 23.52953	  4.47600	 19.64482	  7.74467	 -0.77338	 30.32984	710.10101	 24.10	
 11.889	 24.555	 28.37132	 24.33273	  3.85932	 18.19460	  9.06234	 -0.78180	 30.37656	710.20300	 24.10	
 11.890	 16.390	 28.34186	 24.84819	  3.40912	 16.52325	 10.38685	 -0.77453	 30.33950	709.92999	 24.10	
 11.899	  8.217	 28.35376	 25.17367	  3.14186	 14.80800	 11.85385	 -0.74827	 30.34038	710.00598	 24.10	
 11.900	  0.000	 28.35246	 25.26344	  3.01401	 13.13751	 13.49707	 -0.72399	 30.32969	710.21002	 24.10	
 11.899	 -8.217	 28.33576	 25.09719	  3.09646	 11.59204	 15.16920	 -0.74588	 30.31940	710.20203	 24.10	
 11.890	-16.390	 28.37382	 24.72707	  3.46438	 10.09605	 16.91779	 -0.78787	 30.34795	710.07001	 24.10	
 11.889	-24.555	 28.36931	 24.11462	  3.95016	  8.66797	 18.49949	 -0.82188	 30.35476	710.15399	 24.10	
 11.909	-32.701	 28.32699	 23.27234	  4.59512	  7.37164	 19.93947	 -0.84464	 30.32755	710.15802	 24.10	
 11.902	-40.852	 28.32163	 22.24471	  5.44629	  6.23713	 21.22319	 -0.84927	 30.32307	710.10303	 24.10	
 11.894	-49.133	 28.34942	 21.12640	  6.50339	  5.21120	 22.38604	 -0.88525	 30.35441	710.18597	 24.10	
 11.897	-57.268	 28.33288	 19.81367	  7.69346	  4.38238	 23.40129	 -0.90316	 30.33457	710.09198	 24.10	
 11.903	-65.403	 28.31605	 18.32755	  8.98396	  3.74103	 24.20760	 -0.95206	 30.31218	710.09802	 24.10	
 11.893	-73.654	 28.38400	 16.66795	 10.38482	  3.34686	 24.84001	 -0.99183	 30.35677	710.18500	 24.10	
 11.892	-81.845	 28.38566	 14.93705	 11.89288	  3.08302	 25.16624	 -1.01529	 30.32856	709.99902	 24.10	
 11.900	-90.000	 28.40357	 13.29633	 13.54921	  2.97799	 25.32510	 -1.02474	 30.34018	710.09497	 24.10	
 11.892	-98.155	 28.42490	 11.68569	 15.21455	  3.13531	 25.22622	 -0.99911	 30.33713	710.00000	 24.10	
 11.893	-106.346	 28.47247	 10.31388	 16.91808	  3.44946	 24.92810	 -0.93437	 30.38515	709.95697	 24.10	
 11.903	-114.597	 28.43988	  8.98646	 18.38900	  3.91877	 24.32715	 -0.84360	 30.34882	709.98901	 24.10	
 11.897	-122.732	 28.46472	  7.56921	 19.94202	  4.60937	 23.52670	 -0.77288	 30.35311	710.15399	 24.10	
 11.894	-130.867	 28.46037	  6.48281	 21.18447	  5.48603	 22.49441	 -0.74163	 30.33618	710.18597	 24.10	
 11.902	-139.148	 28.50220	  5.52255	 22.33058	  6.55283	 21.32041	 -0.75465	 30.36502	710.18500	 24.10	
 11.909	-147.299	 28.51633	  4.74441	 23.32009	  7.71995	 20.09312	 -0.79536	 30.37305	710.10303	 24.10	
 11.889	-155.445	 28.50444	  4.17039	 24.07527	  9.05617	 18.62509	 -0.82005	 30.32833	710.09802	 24.10	
 11.890	-163.610	 28.51863	  3.76381	 24.66265	 10.53814	 16.94860	 -0.80186	 30.33715	710.05902	 24.10	
 11.899	-171.783	 28.50071	  3.52049	 24.99385	 11.99055	 15.31251	 -0.74918	 30.32124	710.15399	 24.10	
 11.900	180.000	 28.48765	  3.45471	 25.08473	 13.58586	 13.71167	 -0.67689	 30.31273	710.11700	 24.10	
 13.600	180.000	 27.84368	  1.78406	 26.22921	 13.02295	 13.11231	 -0.89755	 30.36579	710.05499	 24.10	
 13.608	-172.853	 27.82348	  1.80752	 26.10162	 11.43367	 14.67993	 -0.98341	 30.35074	710.01599	 24.10	
 13.611	-165.583	 27.81287	  1.99108	 25.79282	  9.90529	 16.28176	 -1.04337	 30.33552	710.09302	 24.10	
 13.601	-158.353	 27.81869	  2.31651	 25.27850	  8.41156	 17.98856	 -1.06246	 30.34212	710.14099	 24.10	
 13.609	-151.210	 27.79083	  2.77821	 24.57008	  7.08913	 19.50563	 -1.04872	 30.33176	710.27301	 24.10	
 13.611	-143.999	 27.82527	  3.34218	 23.68974	  5.88965	 20.90896	 -0.97848	 30.37461	710.15802	 24.10	
 13.601	-136.825	 27.75106	  4.16586	 22.56041	  4.74657	 22.11378	 -0.93990	 30.30658	710.17700	 24.10	
 13.596	-129.640	 27.76708	  5.14130	 21.39111	  3.73885	 23.32223	 -0.92765	 30.34134	710.10303	 24.10	
 13.611	-122.431	 27.76713	  6.21628	 20.11505	  2.85567	 24.34049	 -0.95657	 30.36227	710.17999	 24.10	
 13.604	-115.211	 27.74003	  7.50840	 18.58196	  2.21510	 25.12229	 -1.00805	 30.34035	710.17700	 24.10	
 13.595	-108.042	 27.72581	  8.85419	 17.09774	  1.77226	 25.73641	 -1.09178	 30.34358	710.20203	 24.10	
 13.607	-100.793	 27.69526	 10.22416	 15.42382	  1.42997	 26.15244	 -1.16330	 30.32854	710.16602	 24.10	
 13.601	-93.617	 27.66669	 11.76882	 13.76461	  1.21643	 26.33873	 -1.16913	 30.32781	710.16602	 24.10	
 13.601	-86.383	 27.64850	 13.39310	 12.04139	  1.19228	 26.33142	 -1.15191	 30.32682	710.17401	 24.10	
 13.607	-79.207	 27.61515	 15.00973	 10.54010	  1.30901	 26.11383	 -1.11323	 30.32254	710.17902	 24.10	
 13.595	-71.958	 27.61982	 16.73937	  9.13211	  1.61179	 25.68589	 -1.07569	 30.34201	710.21698	 24.10	
 13.604	-64.789	 27.61740	 18.48973	  7.72353	  1.93754	 25.07204	 -1.04947	 30.35330	710.27502	 24.10	
 13.611	-57.569	 27.59185	 19.95527	  6.38907	  2.54096	 24.22560	 -1.03923	 30.32502	710.10602	 24.10	
 13.596	-50.360	 27.56121	 21.24482	  5.17616	  3.38158	 23.19487	 -1.02546	 30.29807	710.16498	 24.10	
 13.601	-43.175	 27.63881	 22.49879	  4.11669	  4.36219	 22.11772	 -1.01382	 30.38382	710.21600	 24.10	
 13.611	-36.001	 27.59702	 23.57076	  3.19087	  5.46433	 20.83941	 -1.01059	 30.33268	710.21899	 24.10	
 13.609	-28.790	 27.59505	 24.50136	  2.44723	  6.68906	 19.44153	 -1.02094	 30.32080	710.20801	 24.10	
 13.601	-21.647	 27.63028	 25.25970	  1.87899	  8.00338	 17.94523	 -1.00331	 30.35225	710.15399	 24.10	
 13.611	-14.417	 27.62593	 25.81899	  1.44897	  9.44462	 16.34953	 -0.95621	 30.33649	710.14001	 24.10	
 13.608	 -7.147	 27.63520	 26.18487	  1.33406	 10.98559	 14.56133	 -0.91803	 30.35098	710.21899	 24.10	
 13.600	  0.000	 27.60475	 26.29312	  1.30176	 12.48976	 12.89946	 -0.88993	 30.31390	710.12000	 24.10	
 13.608	  7.147	 27.62651	 26.24463	  1.38521	 14.12798	 11.30995	 -0.91808	 30.35194	710.16199	 24.10	
 13.611	 14.417	 27.62792	 25.96721	  1.59804	 15.84473	  9.80407	 -0.95330	 30.36506	710.17200	 24.10	
 13.601	 21.647	 27.59174	 25.44304	  1.80634	 17.46245	  8.39559	 -0.98308	 30.32831	710.18500	 24.10	
 13.609	 28.790	 27.57451	 24.76855	  2.35039	 19.07273	  7.09768	 -0.99101	 30.33084	710.26703	 24.10	
 13.611	 36.001	 27.55388	 23.91218	  3.05964	 20.41390	  5.88106	 -0.97356	 30.31246	710.17102	 24.10	
 13.601	 43.175	 27.59096	 22.89013	  3.94918	 21.68407	  4.79975	 -0.96279	 30.33536	710.16302	 24.10	
 13.596	 50.360	 27.54527	 21.64860	  4.94931	 22.84586	  3.75322	 -0.97132	 30.28494	710.10901	 24.10	
 13.611	 57.569	 27.61538	 20.49145	  6.10144	 23.95127	  2.85032	 -1.01117	 30.34630	710.23602	 24.10	
 13.604	 64.789	 27.63556	 19.04829	  7.39151	 24.82068	  2.21331	 -1.04880	 30.34807	710.25598	 24.10	
 13.595	 71.958	 27.65519	 17.44255	  8.75039	 25.45803	  1.78487	 -1.10558	 30.32287	710.14600	 24.10	
 13.607	 79.207	 27.72515	 15.73909	 10.16289	 25.94515	  1.50657	 -1.19582	 30.34259	710.02502	 24.10	
 13.601	 86.383	 27.73465	 14.13278	 11.75464	 26.15072	  1.36633	 -1.27397	 30.30956	710.03003	 24.10	
 13.601	 93.617	 27.77497	 12.52244	 13.46129	 26.21315	  1.44312	 -1.33037	 30.33197	710.14001	 24.20	
 13.607	100.793	 27.76704	 10.92809	 15.07972	 26.02728	  1.70507	 -1.33342	 30.30875	710.04498	 24.20	
 13.595	108.042	 27.81098	  9.47205	 16.82209	 25.64894	  1.98433	 -1.31617	 30.33851	710.12598	 24.10	
 13.604	115.211	 27.80875	  8.10655	 18.34492	 25.06006	  2.48904	 -1.26194	 30.33211	710.01703	 24.10	
 13.611	122.431	 27.83334	  6.84335	 19.84806	 24.29304	  3.15876	 -1.17670	 30.35578	710.03900	 24.10	
 13.596	129.640	 27.82007	  5.66797	 21.17688	 23.29545	  3.97131	 -1.07891	 30.34043	710.09198	 24.10	
 13.601	136.825	 27.82250	  4.62010	 22.31894	 22.13255	  4.98213	 -1.00092	 30.33105	710.12598	 24.10	
 13.611	143.999	 27.82842	  3.68384	 23.44974	 20.90500	  6.04866	 -0.97185	 30.34853	710.03003	 24.10	
 13.609	151.210	 27.79495	  2.89005	 24.37037	 19.54171	  7.22482	 -0.94329	 30.32276	710.11200	 24.20	
 13.601	158.353	 27.82634	  2.51541	 25.15753	 18.05244	  8.56129	 -0.91169	 30.34251	710.06201	 24.20	
 13.611	165.583	 27.77897	  2.09990	 25.67832	 16.36860	  9.95853	 -0.90851	 30.30649	710.12299	 24.20	
 13.608	172.853	 27.80670	  1.85249	 26.06469	 14.64734	 11.50324	 -0.89112	 30.34364	710.09998	 24.10	
 15.298	173.587	 27.04868	  0.04737	 27.04962	 14.02501	 10.83159	 -1.07915	 30.34946	710.10999	 24.10	
 15.291	167.167	 27.04258	  0.26661	 26.74298	 15.62968	  9.34959	 -1.07267	 30.34773	710.14600	 24.10	
 15.307	160.676	 27.04406	  0.60724	 26.21698	 17.32002	  7.91275	 -1.08843	 30.35541	710.15503	 24.10	
 15.300	154.261	 27.02730	  1.10221	 25.52155	 18.94000	  6.51457	 -1.10876	 30.33565	710.22101	 24.10	
 15.288	147.854	 27.02342	  1.73986	 24.66066	 20.32246	  5.26428	 -1.14540	 30.32944	710.02002	 24.10	
 15.293	141.428	 27.03647	  2.38233	 23.63464	 21.63885	  4.13612	 -1.18407	 30.32309	710.04498	 24.10	
 15.299	134.985	 27.01728	  3.31795	 22.45555	 22.90109	  3.10365	 -1.23258	 30.31093	710.14001	 24.10	
 15.305	128.583	 27.05425	  4.37995	 21.25463	 24.07570	  2.16830	 -1.30091	 30.36176	710.17902	 24.10	
 15.309	122.142	 27.03028	  5.54754	 19.93295	 25.01797	  1.38622	 -1.36408	 30.33121	710.28101	 24.10	
 15.304	115.711	 27.03133	  6.84163	 18.42691	 25.79692	  0.83294	 -1.42765	 30.33171	710.22498	 24.20	
 15.297	109.291	 27.02157	  8.17341	 16.83921	 26.39137	  0.29213	 -1.45943	 30.32329	710.00000	 24.20	
 15.293	102.897	 26.99616	  9.57579	 15.18568	 26.82702	 -0.14974	 -1.47612	 30.32061	710.20001	 24.20	
 15.293	 96.458	 27.00456	 11.11749	 13.54516	 27.09702	 -0.34490	 -1.48515	 30.35333	710.10602	 24.20	
 15.300	 90.000	 26.97211	 12.69962	 11.87987	 27.14661	 -0.43694	 -1.47088	 30.33344	710.17102	 24.10	
 15.293	 83.542	 26.93993	 14.31164	 10.27825	 26.99543	 -0.36062	 -1.43124	 30.32488	710.00800	 24.10	
 15.293	 77.103	 26.89096	 15.92124	  8.82335	 26.66912	 -0.19184	 -1.37091	 30.31619	710.24500	 24.10	
 15.297	 70.709	 26.87045	 17.59482	  7.44824	 26.19116	  0.11031	 -1.31811	 30.33831	710.25201	 24.10	
 15.304	 64.289	 26.81170	 19.17495	  6.05935	 25.48470	  0.57140	 -1.24334	 30.32724	710.18597	 24.10	
 15.309	 57.858	 26.79296	 20.61094	  4.76592	 24.64488	  1.20435	 -1.18613	 30.34578	710.13397	 24.10	
 15.305	 51.417	 26.71291	 21.77862	  3.59351	 23.56530	  1.96582	 -1.14343	 30.28107	710.01703	 24.20	
 15.299	 45.015	 26.75090	 23.04587	  2.56899	 22.42220	  2.94152	 -1.13413	 30.33267	710.23297	 24.20	
 15.293	 38.572	 26.76605	 24.16433	  1.67747	 21.17687	  4.03283	 -1.12024	 30.34071	710.17200	 24.20	
 15.288	 32.146	 26.74312	 25.09824	  1.03475	 19.79603	  5.14527	 -1.11529	 30.32445	710.31403	 24.10	
 15.300	 25.739	 26.76038	 25.88003	  0.35485	 18.33600	  6.35251	 -1.11140	 30.34016	710.16498	 24.10	
 15.307	 19.324	 26.74685	 26.46843	 -0.14896	 16.71897	  7.70530	 -1.08152	 30.32357	710.16602	 24.10	
 15.291	 12.833	 26.75859	 26.90943	 -0.45286	 15.02933	  9.16539	 -1.03414	 30.31835	710.14001	 24.20	
 15.298	  6.413	 26.78318	 27.19321	 -0.64431	 13.43654	 10.64871	 -1.00749	 30.34659	710.20001	 24.20	
 15.300	  0.000	 26.75310	 27.20315	 -0.66567	 11.78521	 12.23283	 -1.00410	 30.29430	710.28101	 24.20	
 15.298	 -6.413	 26.79088	 27.11753	 -0.64066	 10.25349	 13.86651	 -1.02136	 30.33129	710.20300	 24.20	
 15.291	-12.833	 26.78988	 26.81324	 -0.42472	  8.77188	 15.47942	 -1.06082	 30.32499	710.19598	 24.20	
 15.307	-19.324	 26.81160	 26.31355	 -0.06334	  7.34165	 17.34804	 -1.08931	 30.35762	710.12598	 24.20	
 15.300	-25.739	 26.78192	 25.61222	  0.51758	  5.99484	 18.82987	 -1.10243	 30.34019	710.16498	 24.20	
 15.288	-32.146	 26.77349	 24.76235	  1.21412	  4.75942	 20.29551	 -1.09061	 30.33518	710.25299	 24.20	
 15.293	-38.572	 26.78267	 23.76012	  1.83632	  3.56274	 21.64788	 -1.08720	 30.36044	710.09003	 24.20	
 15.299	-45.015	 26.75352	 22.57634	  2.74181	  2.53904	 22.85841	 -1.07789	 30.34531	710.06702	 24.20	
 15.305	-51.417	 26.73676	 21.29467	  3.84282	  1.72062	 23.96618	 -1.04634	 30.30969	710.21100	 24.20	
 15.309	-57.858	 26.78120	 20.03037	  5.05092	  0.95716	 24.99648	 -1.04859	 30.36452	710.13501	 24.20	
 15.304	-64.289	 26.72318	 18.46987	  6.36848	  0.31762	 25.74299	 -1.03646	 30.29929	710.21600	 24.20	
 15.297	-70.709	 26.77529	 16.73621	  7.78817	 -0.15526	 26.43353	 -1.03771	 30.35084	710.16901	 24.20	
 15.293	-77.103	 26.79980	 15.12965	  9.21549	 -0.47491	 26.91840	 -1.07264	 30.34167	710.07898	 24.20	
 15.293	-83.542	 26.83413	 13.50268	 10.67653	 -0.63307	 27.21277	 -1.08147	 30.34892	710.15100	 24.20	
 15.300	-90.000	 26.82199	 11.85368	 12.16879	 -0.68504	 27.30393	 -1.14936	 30.32712	709.99902	 24.20	
 15.293	-96.458	 26.87133	 10.28735	 13.89493	 -0.60688	 27.23087	 -1.19364	 30.35963	710.15399	 24.20	
 15.293	-102.897	 26.84414	  8.83553	 15.52586	 -0.36002	 26.92328	 -1.19653	 30.31360	710.14301	 24.20	
 15.297	-109.291	 26.87762	  7.45950	 17.09453	  0.01871	 26.48396	 -1.18091	 30.33060	710.16302	 24.20	
 15.304	-115.711	 26.88080	  6.13235	 18.64394	  0.52985	 25.81950	 -1.13143	 30.30509	710.16199	 24.20	
 15.309	-122.142	 26.92068	  4.88466	 20.15961	  1.16229	 25.00204	 -1.09339	 30.32183	710.20001	 24.20	
 15.305	-128.583	 26.96751	  3.77105	 21.53176	  1.87985	 24.03077	 -1.09174	 30.34037	710.13202	 24.20	
 15.299	-134.985	 26.96346	  2.80334	 22.71627	  2.87660	 22.89321	 -1.11947	 30.32224	710.01599	 24.20	
 15.293	-141.428	 26.98675	  2.13268	 23.89238	  3.93920	 21.61361	 -1.16842	 30.34089	710.21100	 24.20	
 15.288	-147.854	 27.01632	  1.41784	 24.89017	  5.16480	 20.31164	 -1.22732	 30.35817	710.06201	 24.20	
 15.300	-154.261	 27.01680	  0.83501	 25.68827	  6.43868	 18.81046	 -1.28550	 30.33784	710.27197	 24.20	
 15.307	-160.676	 27.01397	  0.41427	 26.29935	  7.76816	 17.19692	 -1.28678	 30.31804	710.17200	 24.20	
 15.291	-167.167	 27.03633	  0.16809	 26.78861	  9.25513	 15.58473	 -1.23441	 30.33548	710.15503	 24.20	
 15.298	-173.587	 26.98920	 -0.00427	 27.01957	 10.76982	 13.98902	 -1.16871	 30.28872	710.25598	 24.20	
 15.300	180.000	 27.04665	 -0.04792	 27.15192	 12.37509	 12.42986	 -1.10524	 30.34003	710.31201	 24.20	
 17.000	180.000	 26.13650	 -1.92111	 27.90668	 11.66371	 11.65528	 -1.23786	 30.32455	710.17999	 24.20	
 16.990	-174.179	 26.13453	 -1.85757	 27.83856	 10.08068	 13.22542	 -1.28047	 30.31223	710.24200	 24.20	
 17.009	-168.383	 26.10495	 -1.74115	 27.60950	  8.55609	 14.80321	 -1.33702	 30.30292	710.19000	 24.20	
 17.000	-162.596	 26.13684	 -1.48529	 27.24000	  7.16451	 16.40480	 -1.39110	 30.33584	710.25897	 24.20	
 16.990	-156.759	 26.10134	 -1.11933	 26.61573	  5.78883	 17.92929	 -1.41214	 30.29446	710.35400	 24.20	
 16.995	-150.919	 26.09119	 -0.62981	 25.89953	  4.46185	 19.56905	 -1.38263	 30.30806	710.21002	 24.20	
 16.988	-145.161	 26.10189	  0.01185	 25.02193	  3.22825	 21.01583	 -1.32882	 30.34025	710.28101	 24.20	
 17.014	-139.343	 26.06390	  0.72870	 23.97634	  1.95817	 22.27139	 -1.26849	 30.33573	710.34198	 24.20	
 17.007	-133.546	 26.06517	  1.58785	 22.80257	  1.13245	 23.50617	 -1.20952	 30.33905	710.29700	 24.20	
 17.001	-127.699	 26.07031	  2.37357	 21.59379	  0.24653	 24.65635	 -1.19292	 30.35602	710.27899	 24.20	
 17.006	-121.937	 26.00581	  3.48239	 20.19946	 -0.58884	 25.60518	 -1.18210	 30.32850	710.43298	 24.20	
 17.002	-116.134	 25.96465	  4.70837	 18.67267	 -1.28803	 26.42208	 -1.18749	 30.30623	710.37701	 24.20	
 17.001	-110.310	 25.97785	  6.01556	 17.15210	 -1.80796	 27.11317	 -1.19242	 30.35268	710.42200	 24.20	
 16.988	-104.517	 25.93800	  7.37796	 15.57378	 -2.15932	 27.55346	 -1.16111	 30.30557	710.28101	 24.20	
 17.008	-98.662	 25.92263	  8.80770	 13.94885	 -2.45220	 27.88801	 -1.09604	 30.31587	710.27502	 24.20	
 16.996	-92.909	 25.91917	 10.28858	 12.24852	 -2.56389	 28.03880	 -1.06658	 30.31579	710.20300	 24.20	
 16.996	-87.091	 25.87731	 11.89291	 10.73505	 -2.63039	 28.02966	 -1.00386	 30.31079	710.27301	 24.20	
 17.012	-81.253	 25.87819	 13.53277	  9.24257	 -2.57950	 27.91388	 -0.97438	 30.35368	710.07898	 24.20	
 16.988	-75.483	 25.82920	 15.12015	  7.80561	 -2.35682	 27.54052	 -0.95052	 30.31873	710.16901	 24.20	
 17.001	-69.690	 25.82959	 16.73314	  6.37792	 -2.01139	 27.07594	 -0.92997	 30.33853	710.22400	 24.20	
 17.002	-63.866	 25.82881	 18.37305	  5.00359	 -1.54375	 26.44344	 -0.92861	 30.34432	710.25598	 24.20	
 17.006	-58.063	 25.81187	 19.86544	  3.67721	 -0.90208	 25.62967	 -0.95531	 30.34820	710.20502	 24.20	
 17.001	-52.301	 25.81665	 21.27623	  2.50030	 -0.13457	 24.63755	 -0.98668	 30.34002	710.16901	 24.20	
 17.007	-46.454	 25.76398	 22.55481	  1.44344	  0.70191	 23.47567	 -0.99778	 30.28846	710.21002	 24.20	
 17.014	-40.657	 25.76494	 23.77485	  0.45122	  1.55089	 22.25879	 -1.03021	 30.30778	710.15503	 24.20	
 16.988	-34.839	 25.79831	 24.85934	 -0.30228	  2.63094	 21.02451	 -1.06471	 30.31093	710.34900	 24.20	
 16.995	-29.081	 25.84070	 25.79510	 -0.90872	  3.97428	 19.64114	 -1.08753	 30.32408	710.32001	 24.20	
 16.990	-23.241	 25.86420	 26.57545	 -1.44929	  5.25990	 18.12518	 -1.10578	 30.34037	710.34198	 24.20	
 17.000	-17.404	 25.87503	 27.20001	 -1.88639	  6.60334	 16.37796	 -1.08829	 30.34251	710.40198	 24.20	
 17.009	-11.617	 25.83471	 27.60176	 -2.23103	  8.00843	 14.75023	 -1.04198	 30.29109	710.27197	 24.20	
 16.990	 -5.821	 25.85245	 27.86858	 -2.39653	  9.46952	 13.13809	 -1.01626	 30.31103	710.39301	 24.20	
 17.000	  0.000	 25.84199	 27.99125	 -2.50724	 11.03464	 11.52643	 -0.99457	 30.31772	710.39899	 24.20	
 16.990	  5.821	 25.82413	 27.93567	 -2.46799	 12.65241	  9.94559	 -0.98122	 30.30960	710.34302	 24.20	
 17.009	 11.617	 25.83349	 27.76330	 -2.32714	 14.25472	  8.47760	 -1.00337	 30.34780	710.28302	 24.20	
 17.000	 17.404	 25.79435	 27.33641	 -2.01347	 15.82511	  7.03146	 -1.02735	 30.29856	710.27301	 24.20	
 16.990	 23.241	 25.79685	 26.79746	 -1.60718	 17.49729	  5.63459	 -1.09228	 30.30555	710.32098	 24.20	
 16.995	 29.081	 25.79024	 26.11264	 -1.10671	 19.02291	  4.35812	 -1.12837	 30.30549	710.34497	 24.20	
 16.988	 34.839	 25.78006	 25.24888	 -0.49663	 20.44166	  3.26021	 -1.16776	 30.28877	710.36902	 24.20	
 17.014	 40.657	 25.76482	 24.25421	  0.31923	 21.75882	  2.06678	 -1.20251	 30.30486	710.28998	 24.20	
 17.007	 46.454	 25.81887	 23.13277	  1.22570	 23.05861	  1.18637	 -1.27157	 30.33161	710.27197	 24.20	
 17.001	 52.301	 25.83489	 21.86708	  2.26811	 24.19623	  0.36995	 -1.31642	 30.32301	710.38702	 24.20	
 17.006	 58.063	 25.87234	 20.64688	  3.40365	 25.22550	 -0.37201	 -1.34405	 30.34339	710.25897	 24.20	
 17.002	 63.866	 25.84555	 19.18293	  4.62876	 26.05986	 -1.05134	 -1.39650	 30.29538	710.33502	 24.20	
 17.001	 69.690	 25.90637	 17.55742	  5.95442	 26.81010	 -1.59128	 -1.44326	 30.33463	710.35602	 24.20	
 16.988	 75.483	 25.92015	 15.97476	  7.34237	 27.32309	 -1.95853	 -1.50334	 30.29997	710.30701	 24.20	
 17.012	 81.253	 25.97635	 14.40590	  8.75449	 27.71637	 -2.13609	 -1.51109	 30.31680	710.31403	 24.20	
 16.996	 87.091	 26.00841	 12.79372	 10.25631	 27.88580	 -2.16817	 -1.51450	 30.29139	710.37402	 24.20	
 16.996	 92.909	 26.05103	 11.20094	 11.85418	 27.93404	 -2.13062	 -1.49270	 30.30239	710.36200	 24.20	
 17.008	 98.662	 26.04635	  9.67079	 13.49565	 27.80719	 -2.08037	 -1.46150	 30.29388	710.26099	 24.20	
 16.988	104.517	 26.11467	  8.26017	 15.14393	 27.52405	 -1.80850	 -1.46955	 30.33113	710.25000	 24.20	
 17.001	110.310	 26.11322	  6.86021	 16.75319	 27.05268	 -1.43473	 -1.47195	 30.31088	710.32800	 24.20	
 17.002	116.134	 26.11898	  5.46904	 18.31942	 26.39571	 -0.90834	 -1.48286	 30.28407	710.18500	 24.20	
 17.006	121.937	 26.13300	  4.20936	 19.81913	 25.59661	 -0.30942	 -1.47970	 30.29588	710.38300	 24.20	
 17.001	127.699	 26.12761	  3.04632	 21.18973	 24.66465	  0.37222	 -1.44116	 30.29766	710.22498	 24.20	
 17.007	133.546	 26.11193	  2.11227	 22.47708	 23.57657	  1.11774	 -1.39238	 30.29800	710.25000	 24.20	
 17.014	139.343	 26.13640	  1.22499	 23.71221	 22.36472	  2.13237	 -1.35466	 30.32527	710.29797	 24.20	
 16.988	145.161	 26.14210	  0.46166	 24.77654	 21.02672	  3.34462	 -1.33884	 30.31408	710.23798	 24.20	
 16.995	150.919	 26.14299	 -0.23568	 25.69738	 19.65357	  4.51975	 -1.30529	 30.31947	710.24402	 24.20	
 16.990	156.759	 26.15012	 -0.80820	 26.48504	 18.15754	  5.83090	 -1.27346	 30.32902	710.29700	 24.20	
 17.000	162.596	 26.13252	 -1.28245	 27.11449	 16.51294	  7.27709	 -1.24512	 30.32204	710.31403	 24.20	
 17.009	168.383	 26.11888	 -1.63134	 27.54987	 14.91161	  8.66414	 -1.21343	 30.31716	710.28400	 24.20	
 16.990	174.179	 26.12331	 -1.81384	 27.78831	 13.30049	 10.08742	 -1.22039	 30.30398	710.32098	 24.20	
 18.709	174.675	 25.12501	 -3.76896	 28.48687	 12.51445	  9.27622	 -1.29062	 30.28657	710.41803	 24.20	
 18.703	169.441	 25.15285	 -3.56922	 28.28250	 14.10739	  7.92568	 -1.29926	 30.32294	710.31403	 24.20	
 18.691	164.085	 25.13144	 -3.24972	 27.84543	 15.70453	  6.49350	 -1.33064	 30.28229	710.32898	 24.20	
 18.706	158.818	 25.13656	 -2.86760	 27.31166	 17.26550	  5.06739	 -1.37516	 30.29250	710.30402	 24.30	
 18.695	153.537	 25.17056	 -2.37141	 26.63495	 18.84717	  3.79091	 -1.40515	 30.31534	710.24103	 24.20	
 18.704	148.255	 25.20161	 -1.80645	 25.83204	 20.33146	  2.48377	 -1.44095	 30.36368	710.35199	 24.30	
 18.698	142.952	 25.15366	 -0.86979	 24.77567	 21.64691	  1.29354	 -1.43661	 30.29702	710.29797	 24.30	
 18.699	137.625	 25.15532	 -0.03251	 23.68119	 22.95296	  0.36163	 -1.45269	 30.29754	710.21899	 24.30	
 18.705	132.343	 25.16094	  0.85526	 22.46732	 24.12240	 -0.41971	 -1.45858	 30.29829	710.31201	 24.30	
 18.713	127.067	 25.15135	  1.79143	 21.14574	 25.20655	 -1.26920	 -1.45323	 30.30234	710.30402	 24.30	
 18.700	121.794	 25.16446	  2.83116	 19.74706	 26.12694	 -1.87138	 -1.44323	 30.28440	710.32800	 24.30	
 18.698	116.504	 25.17584	  4.10173	 18.25558	 26.94120	 -2.47542	 -1.41006	 30.30950	710.31097	 24.30	
 18.707	111.165	 25.12010	  5.44533	 16.61973	 27.57150	 -3.01067	 -1.37596	 30.29208	710.28302	 24.30	
 18.690	105.863	 25.14771	  6.86654	 15.13379	 28.09072	 -3.40192	 -1.34306	 30.33040	710.20801	 24.30	
 18.696	100.583	 25.08738	  8.27448	 13.49913	 28.38771	 -3.67224	 -1.34130	 30.28313	710.35999	 24.30	
 18.700	 95.309	 25.09773	  9.71175	 11.86692	 28.59477	 -3.78558	 -1.37571	 30.31369	710.31799	 24.30	
 18.700	 90.000	 25.07041	 11.27465	 10.29631	 28.62901	 -3.83749	 -1.43885	 30.30456	710.36603	 24.30	
 18.700	 84.691	 25.05101	 12.88088	  8.78494	 28.54605	 -3.82468	 -1.45754	 30.33837	710.28400	 24.30	
 18.696	 79.417	 24.97746	 14.43591	  7.33423	 28.25533	 -3.75996	 -1.50756	 30.30265	710.43903	 24.30	
 18.690	 74.137	 24.93303	 15.98983	  5.90851	 27.85196	 -3.55482	 -1.52584	 30.30809	710.42798	 24.30	
 18.707	 68.835	 24.88329	 17.54318	  4.53279	 27.28459	 -3.13689	 -1.53318	 30.30304	710.22101	 24.30	
 18.698	 63.496	 24.86261	 19.13647	  3.22153	 26.56643	 -2.58901	 -1.49141	 30.31333	710.29199	 24.30	
 18.700	 58.206	 24.84827	 20.59039	  2.04160	 25.70993	 -1.97343	 -1.40887	 30.30662	710.31500	 24.30	
 18.713	 52.933	 24.78045	 21.82977	  0.84688	 24.70476	 -1.33403	 -1.35106	 30.27279	710.25000	 24.30	
 18.705	 47.657	 24.82931	 23.11792	 -0.14909	 23.57927	 -0.50358	 -1.28911	 30.28707	710.31500	 24.30	
 18.699	 42.375	 24.84468	 24.23935	 -0.97019	 22.34916	  0.35987	 -1.22122	 30.27053	710.21002	 24.30	
 18.698	 37.048	 24.86582	 25.31640	 -1.69626	 21.06431	  1.28423	 -1.15672	 30.30974	710.25000	 24.30	
 18.704	 31.745	 24.85497	 26.25167	 -2.37861	 19.65973	  2.47682	 -1.07809	 30.31616	710.24200	 24.30	
 18.695	 26.463	 24.85139	 27.01695	 -2.91826	 18.16940	  3.60919	 -1.01168	 30.30722	710.25897	 24.30	
 18.706	 21.182	 24.81013	 27.61873	 -3.41132	 16.60601	  4.86346	 -0.93710	 30.28971	710.12598	 24.40	
 18.691	 15.915	 24.79312	 28.07594	 -3.77615	 15.01976	  6.26341	 -0.90777	 30.26368	710.29199	 24.40	
 18.703	 10.559	 24.78585	 28.42430	 -4.05765	 13.41047	  7.69606	 -0.89042	 30.27635	710.17102	 24.30	
 18.709	  5.325	 24.79363	 28.62555	 -4.22023	 11.84139	  9.17116	 -0.88315	 30.27805	710.11700	 24.30	
 18.700	  0.000	 24.83601	 28.69637	 -4.24722	 10.22408	 10.74763	 -0.89308	 30.31407	710.11798	 24.40	
 18.709	 -5.325	 24.79623	 28.56215	 -4.19991	  8.69611	 12.31738	 -0.89702	 30.26301	710.42401	 24.40	
 18.703	-10.559	 24.79778	 28.30734	 -3.97666	  7.24006	 13.89415	 -0.92575	 30.25779	710.35901	 24.40	
 18.691	-15.915	 24.83283	 27.93210	 -3.68702	  5.81029	 15.55113	 -0.97250	 30.29471	710.24500	 24.40	
 18.706	-21.182	 24.81521	 27.38495	 -3.30164	  4.46254	 17.09680	 -0.97364	 30.29619	710.40002	 24.40	
 18.695	-26.463	 24.80337	 26.70743	 -2.83618	  3.05261	 18.71818	 -0.96617	 30.30430	710.41602	 24.40	
 18.704	-31.745	 24.73565	 25.80844	 -2.25809	  1.85383	 20.24598	 -0.95743	 30.26183	710.24500	 24.40	
 18.698	-37.048	 24.75416	 24.83343	 -1.58310	  0.85260	 21.58067	 -0.93889	 30.29678	710.27502	 24.40	
 18.699	-42.375	 24.70394	 23.67443	 -0.80373	 -0.16759	 22.77473	 -0.89601	 30.23751	710.32898	 24.40	
 18.705	-47.657	 24.76399	 22.48790	  0.12479	 -1.13919	 24.03129	 -0.88335	 30.30421	710.33801	 24.40	
 18.713	-52.933	 24.73475	 21.15691	  1.14532	 -1.91675	 25.10125	 -0.85192	 30.28763	710.36200	 24.40	
 18.700	-58.206	 24.76227	 19.74689	  2.33822	 -2.52318	 26.05460	 -0.83147	 30.28211	710.43903	 24.40	
 18.698	-63.496	 24.77823	 18.21367	  3.59482	 -3.06433	 26.86211	 -0.80236	 30.27551	710.42999	 24.40	
 18.707	-68.835	 24.79416	 16.67181	  4.91290	 -3.56114	 27.51740	 -0.79766	 30.29991	710.41803	 24.40	
 18.690	-74.137	 24.79111	 15.06510	  6.33986	 -3.96547	 28.00123	 -0.78972	 30.25720	710.35199	 24.40	
 18.696	-79.417	 24.81798	 13.47783	  7.77110	 -4.24278	 28.39054	 -0.80371	 30.28757	710.46399	 24.40	
 18.700	-84.691	 24.84648	 11.86647	  9.24450	 -4.40721	 28.64537	 -0.82187	 30.31148	710.31403	 24.40	
 18.700	-90.000	 24.85312	 10.25786	 10.73598	 -4.43826	 28.70479	 -0.86964	 30.29538	710.37701	 24.40	
 18.700	-95.309	 24.87031	  8.72121	 12.26161	 -4.32907	 28.63877	 -0.89228	 30.30349	710.46698	 24.40	
 18.696	-100.583	 24.91163	  7.28497	 13.90147	 -4.14254	 28.44497	 -0.96308	 30.31913	710.38702	 24.40	
 18.690	-105.863	 24.92723	  5.89507	 15.52092	 -3.83359	 28.07154	 -1.04147	 30.30068	710.51202	 24.40	
 18.707	-111.165	 24.91974	  4.54597	 17.06719	 -3.43439	 27.52623	 -1.10805	 30.27315	710.39899	 24.40	
 18.698	-116.504	 24.96189	  3.29495	 18.62540	 -2.91057	 26.86062	 -1.17101	 30.28839	710.32001	 24.40	
 18.700	-121.794	 24.94270	  2.19696	 20.11115	 -2.37210	 26.03275	 -1.18352	 30.26143	710.40698	 24.40	
 18.713	-127.067	 24.95156	  1.18316	 21.46813	 -1.58598	 25.07833	 -1.19253	 30.26242	710.31799	 24.40	
 18.705	-132.343	 24.99469	  0.23403	 22.70818	 -0.69001	 23.98332	 -1.24069	 30.27481	710.42999	 24.40	
 18.699	-137.625	 25.02501	 -0.59561	 23.90931	  0.26106	 22.76130	 -1.27408	 30.26240	710.33801	 24.40	
 18.698	-142.952	 25.07293	 -1.36517	 25.03800	  1.16298	 21.48424	 -1.31810	 30.30268	710.39099	 24.40	
 18.704	-148.255	 25.05132	 -2.03688	 25.96032	  2.33784	 20.14762	 -1.36241	 30.25852	710.45203	 24.40	
 18.695	-153.537	 25.08692	 -2.56792	 26.78253	  3.77376	 18.56785	 -1.36560	 30.26563	710.41803	 24.40	
 18.706	-158.818	 25.09441	 -3.11674	 27.43295	  5.08867	 17.06506	 -1.34767	 30.25587	710.32599	 24.40	
 18.691	-164.085	 25.13233	 -3.42186	 27.95690	  6.44341	 15.55894	 -1.33313	 30.28751	710.43799	 24.40	
 18.703	-169.441	 25.08037	 -3.68143	 28.28379	  7.85427	 13.92219	 -1.26885	 30.23837	710.38702	 24.40	
 18.709	-174.675	 25.14162	 -3.80936	 28.55601	  9.32973	 12.38531	 -1.28132	 30.31593	710.34198	 24.40	
 18.700	180.000	 25.12555	 -3.83665	 28.58173	 10.89458	 10.80420	 -1.26249	 30.28366	710.28998	 24.50	
 20.400	180.000	 24.10020	 -5.50795	 29.14045	 10.08541	  9.97070	 -1.22712	 30.25700	710.34198	 24.50	
 20.401	-175.153	 24.09020	 -5.49099	 29.08908	  8.58178	 11.47245	 -1.19114	 30.25644	710.33398	 24.50	
 20.407	-170.264	 24.06860	 -5.36894	 28.93082	  7.11241	 13.03633	 -1.18783	 30.26991	710.45599	 24.50	
 20.410	-165.423	 24.05100	 -5.17019	 28.59862	  5.69153	 14.59676	 -1.16911	 30.25607	710.38300	 24.50	
 20.392	-160.496	 24.09047	 -4.84098	 28.16922	  4.33957	 16.17837	 -1.20462	 30.29102	710.42102	 24.50	
 20.401	-155.705	 24.06876	 -4.49881	 27.58961	  2.86830	 17.68730	 -1.23793	 30.30945	710.47498	 24.50	
 20.405	-150.835	 24.01949	 -4.03364	 26.82348	  1.54915	 19.16479	 -1.28681	 30.27860	710.43799	 24.50	
 20.397	-145.903	 24.02497	 -3.46602	 25.94970	  0.57781	 20.69045	 -1.30466	 30.30640	710.47498	 24.50	
 20.392	-141.062	 23.96179	 -2.83118	 24.91241	 -0.48004	 21.91680	 -1.28836	 30.25057	710.54602	 24.50	
 20.396	-136.227	 23.94134	 -2.09595	 23.79144	 -1.52610	 23.19708	 -1.25899	 30.25602	710.56201	 24.50	
 20.408	-131.372	 23.92404	 -1.14458	 22.59049	 -2.42952	 24.38218	 -1.23948	 30.27685	710.40997	 24.50	
 20.410	-126.511	 23.92950	 -0.20135	 21.39202	 -3.16021	 25.44924	 -1.23502	 30.28570	710.60400	 24.50	
 20.400	-121.604	 23.87125	  0.84525	 19.97838	 -3.84228	 26.35156	 -1.20040	 30.22751	710.60699	 24.50	
 20.403	-116.741	 23.90275	  1.90104	 18.48441	 -4.45099	 27.23375	 -1.13657	 30.30710	710.47601	 24.50	
 20.413	-111.900	 23.85252	  2.99312	 16.94485	 -4.98066	 27.90215	 -1.08082	 30.27753	710.47803	 24.50	
 20.398	-107.004	 23.82600	  4.32896	 15.41541	 -5.45157	 28.46679	 -0.97590	 30.29603	710.43799	 24.50	
 20.394	-102.132	 23.78493	  5.69230	 13.77792	 -5.72582	 28.84942	 -0.87997	 30.28607	710.54199	 24.50	
 20.403	-97.332	 23.76404	  7.09502	 12.20733	 -5.99366	 29.12833	 -0.83667	 30.30569	710.58002	 24.50	
 20.392	-92.440	 23.68875	  8.61741	 10.67162	 -6.17231	 29.18879	 -0.78835	 30.23302	710.43201	 24.50	
 20.392	-87.560	 23.69886	 10.12354	  9.16251	 -6.20566	 29.22898	 -0.80170	 30.27256	710.54199	 24.50	
 20.403	-82.668	 23.69648	 11.71764	  7.68149	 -6.13363	 29.11750	 -0.80656	 30.29015	710.53101	 24.50	
 20.394	-77.868	 23.65898	 13.26439	  6.24017	 -5.91645	 28.82279	 -0.78690	 30.24144	710.50800	 24.50	
 20.398	-72.996	 23.66378	 14.87116	  4.80885	 -5.61464	 28.44849	 -0.75671	 30.26034	710.50299	 24.50	
 20.413	-68.100	 23.65795	 16.45291	  3.39587	 -5.18647	 27.94314	 -0.75281	 30.26963	710.41302	 24.50	
 20.403	-63.259	 23.64677	 17.99105	  2.08827	 -4.74300	 27.25439	 -0.75391	 30.26264	710.50000	 24.50	
 20.400	-58.396	 23.69718	 19.49315	  1.02597	 -4.09553	 26.45513	 -0.79431	 30.27648	710.49701	 24.50	
 20.410	-53.489	 23.67017	 20.93572	 -0.07113	 -3.44129	 25.49992	 -0.81585	 30.26861	710.48700	 24.50	
 20.408	-48.628	 23.63605	 22.24937	 -1.04046	 -2.72239	 24.44073	 -0.83308	 30.25945	710.46100	 24.50	
 20.396	-43.773	 23.62790	 23.47916	 -1.92981	 -1.95260	 23.25608	 -0.85321	 30.23574	710.40503	 24.50	
 20.392	-38.938	 23.63147	 24.64409	 -2.75640	 -1.09404	 22.01269	 -0.88979	 30.25455	710.52600	 24.50	
 20.397	-34.097	 23.60264	 25.67431	 -3.53434	 -0.06660	 20.79958	 -0.87626	 30.24363	710.46899	 24.50	
 20.405	-29.165	 23.65316	 26.66436	 -4.23120	  1.03802	 19.41488	 -0.87707	 30.30535	710.64203	 24.50	
 20.401	-24.295	 23.65970	 27.41828	 -4.72459	  2.12059	 17.73158	 -0.90030	 30.26307	710.50299	 24.50	
 20.392	-19.504	 23.68575	 28.04342	 -5.11333	  3.58463	 16.19721	 -0.87577	 30.25452	710.52502	 24.50	
 20.410	-14.577	 23.66787	 28.53785	 -5.47643	  4.95872	 14.63258	 -0.87567	 30.24091	710.51202	 24.50	
 20.407	 -9.736	 23.70345	 28.92932	 -5.70740	  6.40449	 13.06882	 -0.86238	 30.27796	710.44501	 24.50	
 20.401	 -4.847	 23.70051	 29.14023	 -5.85111	  7.87912	 11.48475	 -0.85515	 30.27209	710.56500	 24.50	
 20.400	  0.000	 23.68685	 29.22826	 -5.94333	  9.40777	  9.95231	 -0.83342	 30.26654	710.55701	 24.50	
 20.401	  4.847	 23.66364	 29.17117	 -5.86348	 10.94507	  8.41083	 -0.83138	 30.24630	710.56201	 24.50	
 20.407	  9.736	 23.65153	 28.99537	 -5.72220	 12.51126	  6.93244	 -0.83234	 30.24467	710.57703	 24.50	
 20.410	 14.577	 23.68707	 28.72902	 -5.49190	 14.09579	  5.47654	 -0.83849	 30.27733	710.56500	 24.50	
 20.392	 19.504	 23.71937	 28.29195	 -5.11838	 15.68719	  4.10588	 -0.86286	 30.27478	710.53497	 24.50	
 20.401	 24.295	 23.69222	 27.69071	 -4.73896	 17.17237	  2.77404	 -0.88866	 30.23338	710.46698	 24.50	
 20.405	 29.165	 23.71779	 26.99379	 -4.18931	 18.67095	  1.72798	 -0.96081	 30.22323	710.64899	 24.50	
 20.397	 34.097	 23.73744	 26.15017	 -3.58746	 20.13887	  0.64301	 -1.06143	 30.23396	710.64099	 24.50	
 20.392	 38.938	 23.75919	 25.22061	 -2.90664	 21.49723	 -0.33215	 -1.16549	 30.22983	710.55701	 24.50	
 20.396	 43.773	 23.80113	 24.19195	 -2.15272	 22.80105	 -1.21782	 -1.29414	 30.26023	710.63501	 24.50	
 20.408	 48.628	 23.76849	 22.99458	 -1.35956	 23.97643	 -2.07897	 -1.36007	 30.21713	710.67401	 24.50	
 20.410	 53.489	 23.81499	 21.74848	 -0.45163	 25.12132	 -2.90120	 -1.42079	 30.27695	710.64600	 24.60	
 20.400	 58.396	 23.78784	 20.36753	  0.55078	 26.06557	 -3.64981	 -1.44171	 30.23347	710.65002	 24.60	
 20.403	 63.259	 23.83510	 18.92170	  1.85534	 26.90225	 -4.16181	 -1.47544	 30.23913	710.61499	 24.60	
 20.413	 68.100	 23.88036	 17.48090	  3.06602	 27.64185	 -4.68027	 -1.47449	 30.25819	710.52002	 24.60	
 20.398	 72.996	 23.91279	 15.93225	  4.39348	 28.23329	 -5.05250	 -1.46944	 30.26921	710.52002	 24.60	
 20.394	 77.868	 23.93283	 14.36997	  5.75828	 28.69760	 -5.46105	 -1.40094	 30.27725	710.50897	 24.60	
 20.403	 82.668	 23.96916	 12.85367	  7.18864	 29.00163	 -5.47690	 -1.35599	 30.28296	710.62903	 24.60	
 20.392	 87.560	 23.98345	 11.28105	  8.69651	 29.12988	 -5.50191	 -1.27922	 30.24564	710.68402	 24.60	
 20.392	 92.440	 24.01446	  9.71635	 10.24747	 29.17481	 -5.48445	 -1.24476	 30.25760	710.53198	 24.60	
 20.403	 97.332	 24.06701	  8.27300	 11.80856	 29.13541	 -5.39980	 -1.21013	 30.31712	710.56201	 24.60	
 20.394	102.132	 24.06979	  6.86179	 13.36274	 28.87471	 -5.19175	 -1.16709	 30.27904	710.63501	 24.60	
 20.398	107.004	 24.06040	  5.42795	 14.94631	 28.47086	 -4.91095	 -1.17524	 30.24707	710.53900	 24.60	
 20.413	111.900	 24.10203	  4.03117	 16.51562	 27.99925	 -4.53362	 -1.21160	 30.28106	710.66602	 24.60	
 20.403	116.741	 24.07388	  2.62557	 18.02300	 27.32589	 -4.09972	 -1.22382	 30.25111	710.80701	 24.60	
 20.400	121.604	 24.03293	  1.59167	 19.50300	 26.50532	 -3.59496	 -1.28881	 30.21399	710.80701	 24.60	
 20.410	126.511	 24.03692	  0.54044	 20.92408	 25.60719	 -2.90392	 -1.34476	 30.22883	710.71198	 24.60	
 20.408	131.372	 24.10043	 -0.39645	 22.29920	 24.58116	 -2.06845	 -1.39525	 30.26090	710.73602	 24.60	
 20.396	136.227	 24.12400	 -1.51781	 23.55270	 23.39418	 -1.20281	 -1.42296	 30.25259	710.68298	 24.60	
 20.392	141.062	 24.11420	 -2.28084	 24.65492	 22.14633	 -0.37639	 -1.41351	 30.23533	710.73999	 24.60	
 20.397	145.903	 24.14435	 -2.98302	 25.70457	 20.82616	  0.54087	 -1.41714	 30.26660	710.69202	 24.60	
 20.405	150.835	 24.17471	 -3.61220	 26.64177	 19.44750	  1.70856	 -1.41304	 30.28383	710.56598	 24.60	
 20.401	155.705	 24.09449	 -4.13430	 27.33249	 17.85724	  2.92979	 -1.38817	 30.21107	710.76202	 24.60	
 20.392	160.496	 24.09719	 -4.56102	 27.97007	 16.39727	  4.23261	 -1.36098	 30.23667	710.75897	 24.60	
 20.410	165.423	 24.10500	 -4.95361	 28.51129	 14.82736	  5.66003	 -1.33451	 30.27455	710.71997	 24.60	
 20.407	170.264	 24.06842	 -5.23440	 28.82280	 13.23879	  7.05620	 -1.30046	 30.24209	710.81000	 24.60	
 20.401	175.153	 24.07757	 -5.44259	 29.04599	 11.66291	  8.49063	 -1.26366	 30.24456	710.61102	 24.60	
  0.141	 45.000	 30.31744	 15.89325	 15.54982	 15.70030	 15.74551	  0.34954	 30.27123	710.63000	 24.60	
  4.001	128.691	 30.20357	 13.24497	 17.68208	 18.49411	 12.57409	  0.24571	 30.25690	710.69702	 24.60	
  4.002	 76.995	 30.19432	 16.49224	 14.49894	 19.19002	 11.75096	  0.23528	 30.25742	710.76300	 24.60	
  4.002	 25.892	 30.18887	 19.11357	 11.83105	 17.08470	 13.70807	  0.24847	 30.25062	710.65002	 24.60	
  4.002	-25.892	 30.16628	 19.04275	 11.88140	 13.67845	 17.13565	  0.23439	 30.23625	710.70502	 24.60	
  4.002	-76.995	 30.17179	 16.34171	 14.59131	 11.53929	 19.28248	  0.19196	 30.23173	710.67200	 24.60	
  4.001	-128.691	 30.18354	 13.20308	 17.75289	 12.28478	 18.54445	  0.22356	 30.23689	710.68298	 24.60	
  4.000	180.000	 30.22206	 11.66419	 19.25690	 15.43201	 15.68666	  0.25668	 30.27525	710.62201	 24.60	
  8.000	180.000	 29.60750	  7.61919	 22.38611	 14.75504	 14.95877	 -0.13758	 30.26472	710.71100	 24.60	
  7.991	-152.370	 29.60484	  8.28661	 21.58276	 11.18971	 18.46839	 -0.22985	 30.26816	710.70801	 24.70	
  7.997	-124.550	 29.56720	 10.34385	 19.09372	  8.58616	 21.21961	 -0.29597	 30.24136	710.71802	 24.70	
  8.006	-96.837	 29.54404	 13.78822	 15.68353	  7.36062	 22.46587	 -0.44252	 30.23394	710.69702	 24.70	
  7.988	-69.228	 29.51709	 17.46152	 11.90714	  7.65947	 21.96188	 -0.41077	 30.23149	710.61298	 24.70	
  7.997	-41.563	 29.50719	 20.57262	  9.03124	  9.48501	 19.89416	 -0.32770	 30.23404	710.51501	 24.70	
  8.008	-13.821	 29.51900	 22.22976	  7.61637	 12.49942	 16.57044	 -0.20097	 30.23528	710.64203	 24.70	
  8.008	 13.821	 29.53561	 22.34799	  7.52445	 16.31674	 12.81997	 -0.19565	 30.25950	710.77002	 24.70	
  7.997	 41.563	 29.52700	 20.73962	  8.93064	 19.72166	  9.77584	 -0.21558	 30.24478	710.67200	 24.70	
  7.988	 69.228	 29.57206	 17.78526	 11.72981	 21.84380	  7.92797	 -0.25599	 30.26774	710.55902	 24.70	
  8.006	 96.837	 29.58680	 14.14791	 15.45952	 22.37865	  7.61715	 -0.33246	 30.25345	710.56500	 24.70	
  7.997	124.550	 29.59786	 10.62996	 18.92317	 21.06711	  8.79875	 -0.27050	 30.24744	710.59302	 24.70	
  7.991	152.370	 29.62301	  8.43860	 21.47086	 18.44490	 11.35367	 -0.17660	 30.27472	710.56500	 24.70	
 12.009	161.059	 28.37629	  3.86511	 24.40356	 17.47145	 10.06101	 -0.71124	 30.23720	710.70801	 24.70	
 12.013	142.081	 28.37245	  5.39769	 22.46198	 20.78682	  7.06101	 -0.75807	 30.24784	710.56299	 24.70	
 12.006	123.113	 28.38431	  7.88200	 19.68563	 23.36621	  4.86071	 -0.91913	 30.25263	710.55902	 24.70	
 12.007	104.200	 28.37625	 11.04186	 16.17028	 24.87320	  3.53919	 -1.06861	 30.24184	710.69098	 24.70	
 11.989	 85.301	 28.33934	 14.72357	 12.25256	 25.08746	  3.25743	 -0.98742	 30.22718	710.53900	 24.70	
 12.013	 66.294	 28.32203	 18.62948	  8.76086	 24.06749	  3.88272	 -0.83261	 30.26843	710.73199	 24.70	
 12.012	 47.388	 28.26552	 21.67362	  5.96983	 21.82059	  5.72739	 -0.75127	 30.26432	710.65302	 24.70	
 11.990	 28.440	 28.23419	 23.94533	  4.04154	 18.84810	  8.34916	 -0.79462	 30.24799	710.63300	 24.70	
 11.991	  9.464	 28.21382	 25.10930	  3.06580	 15.02978	 11.54753	 -0.75767	 30.22672	710.67499	 24.70	
 11.991	 -9.464	 28.22400	 25.04044	  3.06118	 11.28066	 15.43242	 -0.74656	 30.22889	710.60400	 24.70	
 11.990	-28.440	 28.20622	 23.69848	  4.16215	  7.91840	 19.16135	 -0.83156	 30.23613	710.63300	 24.70	
 12.012	-47.388	 28.20483	 21.33937	  6.15653	  5.29171	 22.12880	 -0.87079	 30.25182	710.62500	 24.70	
 12.013	-66.294	 28.20582	 18.12075	  9.04103	  3.54744	 24.29847	 -0.96721	 30.24460	710.53198	 24.70	
 11.989	-85.301	 28.28843	 14.15963	 12.56056	  2.91446	 25.26835	 -1.02158	 30.25449	710.58801	 24.70	
 12.007	-104.200	 28.30384	 10.48142	 16.43961	  3.28158	 24.98316	 -0.95374	 30.24722	710.61102	 24.70	
 12.006	-123.113	 28.35694	  7.43277	 19.95544	  4.55222	 23.48162	 -0.77369	 30.28136	710.60400	 24.70	
 12.013	-142.081	 28.34107	  5.09112	 22.65643	  6.84856	 20.81937	 -0.76344	 30.23870	710.81000	 24.70	
 12.009	-161.059	 28.37595	  3.74154	 24.50068	  9.96619	 17.39251	 -0.81706	 30.23663	710.75299	 24.70	
 16.000	180.000	 26.58077	 -0.79971	 27.39216	 12.05210	 12.07975	 -1.15496	 30.23182	710.83002	 24.70	
 15.990	-165.604	 26.57442	 -0.53959	 26.93157	  8.44190	 15.76172	 -1.30384	 30.21572	710.73102	 24.70	
 16.002	-151.165	 26.55897	  0.35253	 25.53483	  5.27465	 19.49047	 -1.30108	 30.26085	710.69800	 24.70	
 16.002	-136.836	 26.53802	  1.86767	 23.19232	  2.54109	 22.61484	 -1.16993	 30.25563	710.82397	 24.70	
 15.995	-122.439	 26.45359	  4.23033	 20.20690	  0.54463	 25.11230	 -1.11483	 30.21710	710.73901	 24.70	
 15.993	-107.966	 26.40403	  7.22688	 16.60760	 -0.84385	 26.83470	 -1.18532	 30.24489	710.76001	 24.70	
 16.005	-93.629	 26.35129	 10.56935	 12.82603	 -1.45964	 27.52696	 -1.12281	 30.23020	710.76300	 24.70	
 15.992	-79.234	 26.33537	 14.32077	  9.28668	 -1.37717	 27.31600	 -0.98293	 30.26697	710.77600	 24.70	
 16.009	-64.774	 26.25949	 18.17401	  5.93547	 -0.55720	 26.07118	 -0.96168	 30.22943	710.91498	 24.70	
 15.997	-50.364	 26.29653	 21.54576	  3.02332	  1.09227	 23.94642	 -1.02151	 30.23659	710.74799	 24.70	
 15.997	-36.045	 26.28831	 24.31424	  0.91994	  3.35281	 21.14512	 -1.07892	 30.23092	710.73199	 24.70	
 16.000	-21.597	 26.33235	 26.28272	 -0.60140	  6.31153	 17.75366	 -1.09325	 30.23980	710.79303	 24.70	
 16.003	 -7.169	 26.34866	 27.35170	 -1.34869	  9.65823	 13.81045	 -1.01348	 30.23983	710.78400	 24.70	
 16.003	  7.169	 26.32422	 27.40189	 -1.39937	 13.34565	 10.08278	 -1.00028	 30.23245	710.71997	 24.70	
 16.000	 21.597	 26.31047	 26.49459	 -0.75012	 17.14245	  6.71011	 -1.08167	 30.22042	710.78699	 24.70	
 15.997	 36.045	 26.35802	 24.70961	  0.67357	 20.64120	  3.84296	 -1.14560	 30.23514	710.68903	 24.70	
 15.997	 50.364	 26.39663	 22.08840	  2.79675	 23.54014	  1.50336	 -1.20764	 30.24495	710.88397	 24.70	
 16.009	 64.774	 26.46502	 19.00693	  5.58581	 25.79416	 -0.18261	 -1.32221	 30.27451	710.68903	 24.80	
 15.992	 79.234	 26.50392	 15.17769	  8.81410	 27.08667	 -1.03910	 -1.44905	 30.23911	710.73999	 24.80	
 16.005	 93.629	 26.50646	 11.42968	 12.45221	 27.38029	 -1.18475	 -1.49678	 30.20390	710.77698	 24.80	
 15.993	107.966	 26.58736	  8.00746	 16.26027	 26.75136	 -0.57851	 -1.49280	 30.23252	710.67700	 24.80	
 15.995	122.439	 26.61445	  4.93345	 19.90794	 25.15006	  0.71584	 -1.42318	 30.24239	710.73700	 24.80	
 16.002	136.836	 26.57697	  2.38785	 22.88395	 22.63739	  2.72796	 -1.28370	 30.20716	710.70599	 24.80	
 16.002	151.165	 26.58969	  0.69695	 25.31538	 19.54086	  5.33513	 -1.20306	 30.23284	710.75403	 24.80	
 15.990	165.604	 26.60865	 -0.39512	 26.88466	 15.84817	  8.61683	 -1.12469	 30.25258	710.82098	 24.80	
 20.003	168.362	 24.29744	 -4.73243	 28.55467	 13.97244	  6.78889	 -1.31433	 30.22064	710.78497	 24.80	
 20.008	156.764	 24.33780	 -3.89383	 27.39350	 17.60415	  3.53650	 -1.39747	 30.23709	710.77100	 24.80	
 20.000	145.147	 24.35104	 -2.49775	 25.45860	 21.02827	  0.71222	 -1.44132	 30.23692	710.71100	 24.80	
 19.995	133.545	 24.34377	 -0.44597	 22.83881	 24.00159	 -1.30102	 -1.44788	 30.24375	710.75897	 24.80	
 20.009	121.926	 24.30466	  1.78616	 19.66047	 26.38294	 -3.15499	 -1.36684	 30.23580	710.80499	 24.80	
 20.005	110.327	 24.30436	  4.76700	 16.08361	 27.99846	 -4.25172	 -1.24435	 30.22239	710.86102	 24.80	
 19.989	 98.733	 24.27831	  8.06236	 12.39987	 28.86468	 -4.90599	 -1.22175	 30.23709	710.80200	 24.80	
 19.999	 87.075	 24.21648	 11.58858	  8.75899	 28.95357	 -5.08234	 -1.33923	 30.21542	710.74799	 24.80	
 19.992	 75.457	 24.17098	 15.23181	  5.36662	 28.31986	 -4.86282	 -1.48801	 30.23452	710.73901	 24.80	
 20.009	 63.844	 24.12675	 18.81891	  2.33907	 26.90551	 -3.77963	 -1.51071	 30.25131	710.80701	 24.80	
 19.989	 52.269	 24.05854	 22.04431	 -0.32085	 24.75315	 -2.29749	 -1.42310	 30.24459	710.79901	 24.80	
 19.999	 40.602	 24.02195	 24.79100	 -2.31481	 21.95802	 -0.36305	 -1.23605	 30.24813	710.71997	 24.80	
 20.004	 29.051	 23.92765	 26.87438	 -3.88503	 18.68856	  1.97716	 -1.00343	 30.19365	710.57300	 24.80	
 20.005	 17.433	 23.92523	 28.33203	 -4.92502	 15.12865	  4.95099	 -0.88095	 30.24729	710.84698	 24.80	
 20.006	  5.780	 23.91936	 29.01017	 -5.46587	 11.41886	  8.34511	 -0.85348	 30.24432	710.75403	 24.80	
 20.006	 -5.780	 23.93049	 28.94934	 -5.44742	  7.81927	 11.93680	 -0.89050	 30.23790	710.82202	 24.80	
 20.005	-17.433	 23.90609	 28.11460	 -4.88448	  4.43719	 15.64922	 -0.92528	 30.21812	710.72302	 24.80	
 20.004	-29.051	 23.85929	 26.52926	 -3.82849	  1.40680	 19.38316	 -0.92428	 30.22276	710.73999	 24.80	
 19.999	-40.602	 23.87115	 24.19557	 -2.13013	 -1.00749	 22.41238	 -0.90534	 30.21491	710.77899	 24.80	
 19.989	-52.269	 23.92096	 21.26952	 -0.02461	 -2.88306	 25.17408	 -0.84561	 30.25023	710.88098	 24.80	
 20.009	-63.844	 23.88947	 17.86826	  2.59519	 -4.32603	 27.21125	 -0.79693	 30.21961	710.80701	 24.80	
 19.992	-75.457	 23.93520	 14.21718	  5.81429	 -5.33456	 28.51297	 -0.79247	 30.23534	710.93298	 24.80	
 19.999	-87.075	 23.94647	 10.49851	  9.19978	 -5.74761	 29.05157	 -0.82228	 30.22581	710.89502	 24.80	
 19.989	-98.733	 23.97149	  6.93795	 12.76547	 -5.47843	 28.85268	 -0.88360	 30.19956	710.92798	 24.80	
 20.005	-110.327	 24.04220	  3.74517	 16.50141	 -4.75704	 27.93906	 -1.07940	 30.20996	710.87402	 24.80	
 20.009	-121.926	 24.11228	  1.14008	 20.06991	 -3.48055	 26.23876	 -1.22975	 30.22392	710.90802	 24.80	
 19.995	-133.545	 24.16020	 -1.16912	 23.07572	 -1.69222	 23.83524	 -1.26367	 30.23871	710.94202	 24.80	
 20.000	-145.147	 24.22209	 -3.00941	 25.66865	  0.64389	 20.89869	 -1.35997	 30.24582	710.86102	 24.80	
 20.008	-156.764	 24.28735	 -4.20485	 27.57830	  3.54296	 17.42516	 -1.29035	 30.26805	710.83197	 24.80	
 20.003	-168.362	 24.32297	 -4.89904	 28.69684	  6.80659	 13.82109	 -1.23676	 30.28641	710.79901	 24.80	
 20.000	180.000	 24.32076	 -5.10290	 28.97605	 10.26418	 10.18085	 -1.26766	 30.23270	710.85699	 24.80	
