FileType=PCF
NHL=14
Date=03/07/19	15:02:01
Facility=APL
Serial=16071-10
Customer=NASA
NP=6
Mach=0.230000
Calibration=1:1
CalPts=490
TstPts=95
PortNumbering=AP Standard
Units=Torr C m/s kg/m^3 deg mm 
Theta[deg]	Phi[deg]	P1[Torr]	P2[Torr]	P3[Torr]	P4[Torr]	P5[Torr]	P6[Torr]	Pt[Torr]	Ps[Abs,Torr]	Ts[C]	
  0.000	  0.000	 25.53339	 10.67764	 10.80158	 11.10927	 10.11740	  0.57259	 25.48327	710.70001	 37.50	
  1.691	128.401	 25.51802	  9.84813	 11.53596	 12.22834	  8.96258	  0.54017	 25.47496	710.58002	 37.50	
  1.692	 77.194	 25.52728	 11.02391	 10.36520	 12.42511	  8.81195	  0.58383	 25.48636	710.04999	 37.50	
  1.699	 26.182	 25.53988	 11.92737	  9.51457	 11.59764	  9.58562	  0.60973	 25.47992	710.73999	 37.50	
  1.699	-26.182	 25.53623	 11.83535	  9.62333	 10.39821	 10.79296	  0.58759	 25.48013	710.66998	 37.50	
  1.692	-77.194	 25.52734	 10.84794	 10.60437	  9.73235	 11.47928	  0.55391	 25.47903	710.16998	 37.40	
  1.691	-128.401	 25.51109	  9.73638	 11.73549	 10.07633	 11.10043	  0.52092	 25.46360	709.90002	 37.40	
  1.700	180.000	 25.50665	  9.27360	 12.18379	 11.16305	  9.97072	  0.51435	 25.45868	710.72998	 37.40	
  3.400	180.000	 25.45740	  7.87711	 13.52219	 11.18531	  9.76073	  0.40699	 25.46604	710.59998	 37.40	
  3.388	-152.325	 25.45485	  8.09904	 13.30431	  9.90733	 11.06491	  0.41253	 25.44341	710.85999	 37.40	
  3.397	-124.529	 25.48686	  8.86182	 12.49739	  8.91907	 12.19260	  0.42803	 25.47070	710.59998	 37.30	
  3.399	-96.763	 25.48261	 10.03782	 11.25548	  8.38131	 12.79870	  0.45656	 25.45695	710.75000	 37.30	
  3.394	-69.283	 25.47783	 11.36743	  9.93640	  8.43389	 12.73146	  0.48749	 25.45208	710.69000	 37.30	
  3.400	-41.398	 25.48226	 12.54054	  8.80300	  9.04366	 12.03773	  0.53810	 25.44871	710.69000	 37.30	
  3.401	-14.021	 25.49204	 13.25512	  8.14334	 10.09243	 10.87964	  0.57227	 25.45592	710.70001	 37.30	
  3.401	 14.021	 25.47488	 13.34242	  8.02984	 11.40253	  9.54496	  0.59048	 25.45658	710.85999	 37.20	
  3.400	 41.398	 25.44984	 12.78223	  8.50174	 12.63551	  8.39217	  0.58263	 25.44706	710.14001	 37.20	
  3.394	 69.283	 25.41842	 11.69183	  9.48000	 13.51818	  7.62173	  0.55142	 25.43643	710.65997	 37.20	
  3.399	 96.763	 25.42161	 10.41101	 10.74305	 13.80021	  7.38505	  0.50617	 25.44911	710.71997	 37.20	
  3.397	124.529	 25.41351	  9.17982	 12.01934	 13.40188	  7.73146	  0.46386	 25.44702	710.76001	 37.20	
  3.388	152.325	 25.41493	  8.27028	 13.01999	 12.41718	  8.58307	  0.41446	 25.43776	710.83002	 37.20	
  5.099	161.165	 25.27109	  6.82060	 14.40331	 12.41763	  8.27725	  0.23785	 25.43334	710.77002	 37.10	
  5.109	142.013	 25.25868	  7.44141	 13.57585	 13.64813	  7.19364	  0.25067	 25.43336	710.66998	 37.10	
  5.095	123.033	 25.25042	  8.40978	 12.43652	 14.55128	  6.44104	  0.35235	 25.43594	710.76001	 37.10	
  5.105	104.191	 25.26458	  9.64437	 11.10807	 15.03481	  6.01046	  0.38380	 25.44978	710.75000	 37.10	
  5.093	 85.207	 25.25179	 11.00394	  9.74686	 15.02717	  5.97077	  0.43323	 25.43404	710.69000	 37.10	
  5.104	 66.290	 25.27063	 12.32966	  8.51315	 14.56464	  6.33759	  0.40383	 25.43536	710.63000	 37.00	
  5.094	 47.331	 25.28346	 13.47715	  7.52365	 13.67167	  7.10843	  0.48718	 25.42343	710.59003	 37.00	
  5.089	 28.397	 25.29677	 14.29597	  6.86203	 12.47301	  8.20421	  0.51697	 25.42853	710.66998	 37.00	
  5.096	  9.576	 25.33305	 14.68133	  6.57918	 11.15531	  9.44112	  0.51242	 25.43714	710.73999	 37.00	
  5.096	 -9.576	 25.33118	 14.56243	  6.69702	  9.79869	 10.79234	  0.49439	 25.40710	710.71002	 37.00	
  5.089	-28.397	 25.35354	 14.01018	  7.20346	  8.67668	 12.10867	  0.44442	 25.42768	710.72998	 37.00	
  5.094	-47.331	 25.36350	 13.05132	  8.06911	  7.76496	 13.21421	  0.43411	 25.42668	710.71997	 37.00	
  5.104	-66.290	 25.36199	 11.82853	  9.20002	  7.19505	 13.92015	  0.39335	 25.42803	710.75000	 36.90	
  5.093	-85.207	 25.35881	 10.47922	 10.52047	  7.01073	 14.13088	  0.35688	 25.41799	710.83002	 36.90	
  5.105	-104.191	 25.33802	  9.16538	 11.86272	  7.16339	 13.90308	  0.32362	 25.40688	710.75000	 36.90	
  5.095	-123.033	 25.32572	  7.99756	 13.10572	  7.73709	 13.20154	  0.29316	 25.41205	710.71002	 36.90	
  5.109	-142.013	 25.30541	  7.11550	 14.08199	  8.60435	 12.13711	  0.27725	 25.39841	710.67999	 36.90	
  5.099	-161.165	 25.29780	  6.61700	 14.66757	  9.77481	 10.81152	  0.27419	 25.40989	710.59998	 36.90	
  5.100	180.000	 25.27511	  6.47936	 14.77094	 11.10089	  9.44711	  0.27380	 25.41235	710.70001	 36.80	
  6.800	180.000	 25.06115	  5.04732	 15.99369	 10.97704	  9.10614	  0.01208	 25.41755	710.78003	 36.80	
  6.796	-166.229	 25.07003	  5.08846	 15.95407	  9.67313	 10.40815	  0.04024	 25.39647	710.75000	 36.80	
  6.808	-152.311	 25.10527	  5.44222	 15.58207	  8.46623	 11.78496	  0.03193	 25.41307	710.77002	 36.80	
  6.795	-138.383	 25.10101	  6.08093	 14.86539	  7.44332	 13.01819	  0.09197	 25.38854	710.71997	 36.80	
  6.792	-124.591	 25.14430	  6.91398	 13.90548	  6.65091	 14.00806	  0.06628	 25.41233	710.72998	 36.80	
  6.787	-110.754	 25.14544	  7.97282	 12.69748	  6.01663	 14.79615	  0.09082	 25.40263	710.73999	 36.80	
  6.800	-96.985	 25.16924	  9.15401	 11.44186	  5.64607	 15.26792	  0.11261	 25.41078	710.81000	 36.80	
  6.800	-83.015	 25.15894	 10.47558	 10.07981	  5.55573	 15.38012	  0.11890	 25.39266	710.78998	 36.70	
  6.787	-69.246	 25.17691	 11.81393	  8.78872	  5.76036	 15.15543	  0.21474	 25.40939	710.87000	 36.70	
  6.792	-55.409	 25.16542	 13.03418	  7.69114	  6.16866	 14.61185	  0.26606	 25.40585	710.72998	 36.70	
  6.795	-41.617	 25.14615	 14.15265	  6.73714	  6.87739	 13.72861	  0.23346	 25.39017	710.78998	 36.70	
  6.808	-27.689	 25.13705	 15.07182	  5.94333	  7.81691	 12.58575	  0.27274	 25.38918	710.71997	 36.70	
  6.796	-13.771	 25.11517	 15.65519	  5.41674	  8.90075	 11.30790	  0.29799	 25.38999	710.77002	 36.70	
  6.800	  0.000	 25.10162	 15.92776	  5.15332	 10.08446	  9.98681	  0.36341	 25.40193	710.75000	 36.70	
  6.796	 13.771	 25.07937	 15.83849	  5.18029	 11.41346	  8.70280	  0.32007	 25.39897	710.70001	 36.70	
  6.808	 27.689	 25.04555	 15.42202	  5.49403	 12.74976	  7.46496	  0.30662	 25.38815	710.71002	 36.70	
  6.795	 41.617	 25.02335	 14.68364	  6.04340	 13.92658	  6.41056	  0.29319	 25.38542	710.71997	 36.70	
  6.792	 55.409	 25.00823	 13.66981	  6.86236	 14.94465	  5.55364	  0.26764	 25.38592	710.71997	 36.60	
  6.787	 69.246	 24.99847	 12.47763	  7.88035	 15.71696	  4.94428	  0.25791	 25.39771	710.76001	 36.60	
  6.800	 83.015	 24.97968	 11.17145	  9.07581	 16.17982	  4.57832	  0.18281	 25.39287	710.79999	 36.60	
  6.800	 96.985	 24.95005	  9.83808	 10.35992	 16.28652	  4.49683	  0.15770	 25.37160	710.77002	 36.60	
  6.787	110.754	 24.95745	  8.55972	 11.70854	 16.04310	  4.73395	  0.13712	 25.38172	710.66998	 36.60	
  6.792	124.591	 24.94824	  7.42424	 12.97825	 15.48509	  5.16881	  0.11115	 25.37193	710.63000	 36.60	
  6.795	138.383	 24.95096	  6.51344	 14.08767	 14.65737	  5.85694	  0.06370	 25.36076	710.66998	 36.60	
  6.808	152.311	 24.98076	  5.79681	 15.02595	 13.54695	  6.83057	  0.05123	 25.36453	710.71002	 36.60	
  6.796	166.229	 24.99524	  5.33056	 15.67581	 12.27539	  7.92692	  0.04426	 25.36370	710.70001	 36.50	
  8.491	168.704	 24.66910	  3.79615	 16.87599	 12.11980	  7.47514	 -0.20994	 25.36130	710.66998	 36.50	
  8.502	157.493	 24.64494	  4.17191	 16.30669	 13.43798	  6.24910	 -0.18549	 25.35737	710.66998	 36.50	
  8.494	146.194	 24.62389	  4.77262	 15.47636	 14.65348	  5.20929	 -0.17230	 25.35264	710.63000	 36.50	
  8.495	135.039	 24.62026	  5.54223	 14.46045	 15.68826	  4.38625	 -0.15403	 25.37841	710.64001	 36.50	
  8.487	123.723	 24.59737	  6.53309	 13.24206	 16.53003	  3.68624	 -0.12406	 25.35435	710.58002	 36.50	
  8.492	112.575	 24.58650	  7.64596	 11.95057	 17.10734	  3.26019	 -0.09075	 25.35885	710.60999	 36.50	
  8.510	101.220	 24.57209	  8.92583	 10.56225	 17.42535	  3.00021	 -0.09472	 25.34400	710.72998	 36.50	
  8.500	 90.000	 24.57870	 10.25839	  9.22175	 17.44453	  2.95111	 -0.06872	 25.33879	710.65002	 36.40	
  8.510	 78.780	 24.56961	 11.60097	  7.91162	 17.19569	  3.09300	 -0.02520	 25.33381	710.62000	 36.40	
  8.492	 67.425	 24.60517	 12.94897	  6.75761	 16.63692	  3.53885	  0.03571	 25.33549	710.62000	 36.40	
  8.487	 56.277	 24.63248	 14.17050	  5.77485	 15.84026	  4.16981	  0.05101	 25.34451	710.47998	 36.40	
  8.495	 44.961	 24.64080	 15.23350	  4.92762	 14.79643	  5.00906	  0.07227	 25.32428	710.56000	 36.40	
  8.494	 33.806	 24.67096	 16.09569	  4.29298	 13.64919	  6.00400	  0.10494	 25.34219	710.52002	 36.40	
  8.502	 22.507	 24.68566	 16.71718	  3.83952	 12.34941	  7.15861	  0.13316	 25.34370	710.47998	 36.40	
  8.491	 11.296	 24.70284	 17.03780	  3.62145	 10.98919	  8.43453	  0.12586	 25.31738	710.52002	 36.40	
  8.500	  0.000	 24.72977	 17.09163	  3.59882	  9.67169	  9.74569	  0.10154	 25.31974	710.59003	 36.40	
  8.491	-11.296	 24.76487	 16.86070	  3.85255	  8.46009	 11.10706	  0.09028	 25.33647	710.51001	 36.40	
  8.502	-22.507	 24.78129	 16.33837	  4.31097	  7.31062	 12.45044	  0.06342	 25.32746	710.60999	 36.40	
  8.494	-33.806	 24.81459	 15.54718	  4.98991	  6.31380	 13.69607	  0.03082	 25.35423	710.53998	 36.40	
  8.495	-44.961	 24.82776	 14.56145	  5.82289	  5.48085	 14.74492	  0.06801	 25.34804	710.51001	 36.30	
  8.487	-56.277	 24.82448	 13.37361	  6.80492	  4.79136	 15.59921	 -0.02993	 25.33036	710.59998	 36.30	
  8.492	-67.425	 24.82752	 12.10141	  7.93126	  4.36746	 16.20525	 -0.06207	 25.33072	710.54999	 36.30	
  8.510	-78.780	 24.82677	 10.72935	  9.22393	  4.11436	 16.54277	 -0.09121	 25.32477	710.59003	 36.30	
  8.500	-90.000	 24.83290	  9.40915	 10.55144	  4.09240	 16.56154	 -0.12037	 25.33949	710.53003	 36.30	
  8.510	-101.220	 24.81992	  8.08663	 11.90579	  4.25310	 16.30086	 -0.13472	 25.34846	710.66998	 36.30	
  8.492	-112.575	 24.80094	  6.90297	 13.24446	  4.69120	 15.71224	 -0.14596	 25.34223	710.67999	 36.30	
  8.487	-123.723	 24.78886	  5.91501	 14.40333	  5.29321	 14.92708	 -0.09289	 25.34187	710.63000	 36.30	
  8.495	-135.039	 24.77622	  5.04320	 15.45461	  6.10883	 13.88322	 -0.16273	 25.34468	710.63000	 36.30	
  8.494	-146.194	 24.74821	  4.36091	 16.26998	  7.06089	 12.70786	 -0.16552	 25.34534	710.65997	 36.30	
  8.502	-157.493	 24.72748	  3.87215	 16.86014	  8.17689	 11.39373	 -0.18677	 25.33992	710.65997	 36.30	
  8.491	-168.704	 24.70121	  3.59430	 17.15187	  9.41632	 10.03006	 -0.20153	 25.33805	710.67999	 36.30	
  8.500	180.000	 24.66906	  3.56484	 17.15516	 10.76674	  8.70931	 -0.21969	 25.32677	710.57001	 36.30	
 10.200	180.000	 24.26973	  2.02264	 18.27621	 10.48406	  8.25281	 -0.47507	 25.33228	710.58002	 36.30	
 10.191	-170.497	 24.29304	  1.99991	 18.28456	  9.13306	  9.53863	 -0.46262	 25.32593	710.46997	 36.20	
 10.210	-161.034	 24.31312	  2.24088	 18.05995	  7.86453	 10.92378	 -0.42278	 25.33061	710.53998	 36.20	
 10.194	-151.526	 24.33213	  2.62888	 17.57399	  6.66958	 12.28836	 -0.39413	 25.32511	710.52002	 36.20	
 10.190	-142.105	 24.36093	  3.18840	 16.87371	  5.61030	 13.56851	 -0.39843	 25.32569	710.56000	 36.20	
 10.215	-132.646	 24.36804	  3.90656	 15.97207	  4.66199	 14.76502	 -0.41714	 25.32636	710.65997	 36.20	
 10.203	-123.092	 24.37863	  4.78216	 14.86732	  3.86247	 15.79913	 -0.40381	 25.32008	710.56000	 36.20	
 10.192	-113.678	 24.40581	  5.80222	 13.65653	  3.25677	 16.62673	 -0.37511	 25.32180	710.51001	 36.20	
 10.208	-104.249	 24.41829	  6.96489	 12.34368	  2.82297	 17.24913	 -0.37212	 25.31847	710.63000	 36.20	
 10.210	-94.801	 24.43372	  8.24360	 10.97074	  2.55098	 17.63531	 -0.38077	 25.32602	710.58002	 36.20	
 10.210	-85.199	 24.45378	  9.60477	  9.58906	  2.51649	 17.75821	 -0.37077	 25.32448	710.65997	 36.20	
 10.208	-75.751	 24.46230	 10.97970	  8.26165	  2.63723	 17.63149	 -0.34021	 25.33240	710.65002	 36.20	
 10.192	-66.322	 24.44412	 12.33759	  7.01372	  2.86477	 17.23992	 -0.30957	 25.31801	710.58002	 36.10	
 10.203	-56.908	 24.45900	 13.63920	  5.92216	  3.31949	 16.62900	 -0.29815	 25.32953	710.59003	 36.10	
 10.215	-47.354	 24.44255	 14.86761	  4.88798	  3.97623	 15.77367	 -0.27554	 25.32639	710.53998	 36.10	
 10.190	-37.895	 24.42872	 15.95019	  4.01974	  4.78125	 14.72798	 -0.23010	 25.32415	710.59998	 36.10	
 10.194	-28.474	 24.42111	 16.86668	  3.26338	  5.70375	 13.54981	 -0.19933	 25.33281	710.59003	 36.10	
 10.210	-18.966	 24.39274	 17.56470	  2.68729	  6.77376	 12.22881	 -0.17047	 25.32903	710.70001	 36.10	
 10.191	 -9.503	 24.37321	 18.01576	  2.31611	  7.97698	 10.86179	 -0.14640	 25.32564	710.59003	 36.10	
 10.200	  0.000	 24.34099	 18.24135	  2.04336	  9.21842	  9.48750	 -0.12820	 25.32877	710.60999	 36.10	
 10.191	  9.503	 24.30610	 18.19790	  2.07283	 10.51893	  8.15896	 -0.10443	 25.30869	710.53998	 36.10	
 10.210	 18.966	 24.27750	 17.95096	  2.19296	 11.89560	  6.83625	 -0.07825	 25.32866	710.65997	 36.10	
 10.194	 28.474	 24.25027	 17.41414	  2.54878	 13.23728	  5.63199	 -0.09080	 25.32101	710.65002	 36.10	
 10.190	 37.895	 24.21391	 16.66969	  3.08644	 14.49270	  4.53158	 -0.14199	 25.32345	710.59998	 36.10	
 10.215	 47.354	 24.18711	 15.71622	  3.78024	 15.66153	  3.55858	 -0.18300	 25.31430	710.71002	 36.10	
 10.203	 56.908	 24.17059	 14.58562	  4.61977	 16.68717	  2.75284	 -0.19722	 25.31153	710.60999	 36.00	
 10.192	 66.322	 24.15977	 13.34522	  5.64646	 17.48756	  2.16643	 -0.20624	 25.32207	710.67999	 36.00	
 10.208	 75.751	 24.14450	 12.01568	  6.77536	 18.10120	  1.72971	 -0.24095	 25.32455	710.51001	 36.00	
 10.210	 85.199	 24.12671	 10.64643	  8.00536	 18.46199	  1.45875	 -0.29968	 25.30908	710.63000	 36.00	
 10.210	 94.801	 24.13027	  9.27532	  9.37655	 18.58307	  1.37191	 -0.33793	 25.31998	710.71002	 36.00	
 10.208	104.249	 24.11836	  7.94325	 10.75213	 18.45661	  1.50497	 -0.34299	 25.32138	710.65997	 36.00	
 10.192	113.678	 24.12037	  6.69888	 12.11735	 18.08383	  1.73872	 -0.31907	 25.31747	710.66998	 36.00	
 10.203	123.092	 24.11473	  5.56556	 13.42870	 17.48104	  2.20895	 -0.35482	 25.31256	710.65002	 36.00	
 10.215	132.646	 24.13540	  4.53622	 14.70200	 16.66552	  2.85673	 -0.39741	 25.32522	710.67999	 36.00	
 10.190	142.105	 24.15404	  3.71188	 15.80992	 15.63087	  3.63219	 -0.41077	 25.32253	710.65002	 36.00	
 10.194	151.526	 24.17281	  3.04787	 16.74537	 14.47947	  4.56927	 -0.40879	 25.32097	710.57001	 36.00	
 10.210	161.034	 24.19950	  2.52705	 17.49004	 13.22089	  5.67596	 -0.41292	 25.32496	710.67999	 36.00	
 10.191	170.497	 24.22621	  2.19931	 17.97896	 11.85947	  6.91879	 -0.44352	 25.30665	710.60999	 36.00	
 11.899	171.783	 23.73095	  0.59846	 19.05349	 11.52447	  6.35461	 -0.67731	 25.31122	710.62000	 36.00	
 11.890	163.610	 23.70575	  0.93175	 18.58834	 12.89925	  5.12983	 -0.64738	 25.31979	710.58002	 36.00	
 11.889	155.445	 23.68369	  1.38262	 17.91241	 14.20480	  4.01285	 -0.63645	 25.30691	710.63000	 36.00	
 11.909	147.299	 23.64215	  1.97437	 17.05292	 15.42497	  2.98961	 -0.65448	 25.30376	710.63000	 36.00	
 11.902	139.148	 23.61577	  2.67912	 16.03143	 16.55684	  2.13459	 -0.66329	 25.30048	710.64001	 36.00	
 11.894	130.867	 23.59714	  3.57049	 14.84351	 17.54819	  1.42921	 -0.62949	 25.29003	710.67999	 36.00	
 11.897	122.732	 23.60366	  4.57716	 13.59259	 18.34934	  0.82694	 -0.58896	 25.30381	710.76001	 36.00	
 11.903	114.597	 23.59339	  5.70412	 12.26470	 18.96266	  0.35228	 -0.56800	 25.30232	710.76001	 36.00	
 11.893	106.346	 23.58169	  6.94257	 10.87796	 19.37377	  0.01360	 -0.58393	 25.29995	710.67999	 36.00	
 11.892	 98.155	 23.58419	  8.25720	  9.47458	 19.57094	 -0.15079	 -0.58712	 25.29454	710.66998	 36.00	
 11.900	 90.000	 23.59447	  9.60428	  8.09793	 19.56051	 -0.16495	 -0.57684	 25.28854	710.59998	 36.00	
 11.892	 81.845	 23.61663	 10.97606	  6.84417	 19.35454	  0.01411	 -0.52390	 25.30338	710.67999	 36.00	
 11.893	 73.654	 23.61242	 12.34840	  5.60859	 18.89583	  0.33383	 -0.47993	 25.29297	710.69000	 35.90	
 11.903	 65.403	 23.63663	 13.69393	  4.49712	 18.25066	  0.80505	 -0.46193	 25.29346	710.60999	 35.90	
 11.897	 57.268	 23.66838	 14.95372	  3.52553	 17.43431	  1.42089	 -0.46002	 25.30540	710.64001	 35.90	
 11.894	 49.133	 23.67848	 16.10006	  2.65238	 16.44492	  2.16846	 -0.44168	 25.30980	710.62000	 35.90	
 11.902	 40.852	 23.68487	 17.12775	  1.92883	 15.28314	  3.08202	 -0.40028	 25.29886	710.64001	 35.90	
 11.909	 32.701	 23.71739	 17.97447	  1.33319	 14.03084	  4.11307	 -0.35190	 25.30595	710.70001	 35.90	
 11.889	 24.555	 23.74926	 18.60389	  0.92153	 12.71808	  5.24993	 -0.30400	 25.30308	710.67999	 35.90	
 11.890	 16.390	 23.77649	 19.04132	  0.65592	 11.36975	  6.48287	 -0.31070	 25.29981	710.76001	 35.90	
 11.899	  8.217	 23.80065	 19.26079	  0.52985	  9.97584	  7.80974	 -0.33668	 25.29642	710.66998	 35.90	
 11.900	  0.000	 23.84379	 19.28846	  0.52015	  8.68620	  9.17444	 -0.36117	 25.30766	710.65997	 35.90	
 11.899	 -8.217	 23.87295	 19.07569	  0.75394	  7.41010	 10.53781	 -0.38718	 25.31036	710.64001	 35.90	
 11.890	-16.390	 23.90455	 18.64986	  1.09803	  6.21554	 11.92195	 -0.40150	 25.30696	710.64001	 35.90	
 11.889	-24.555	 23.90092	 18.01760	  1.58260	  5.12255	 13.24460	 -0.42855	 25.28916	710.71997	 35.90	
 11.909	-32.701	 23.91199	 17.20674	  2.21255	  4.12665	 14.51348	 -0.46616	 25.27828	710.60999	 35.90	
 11.902	-40.852	 23.93270	 16.22283	  3.01397	  3.26431	 15.66603	 -0.50317	 25.29176	710.67999	 35.90	
 11.894	-49.133	 23.95824	 15.06888	  3.95628	  2.51309	 16.69586	 -0.52812	 25.30097	710.62000	 35.90	
 11.897	-57.268	 23.96613	 13.82197	  4.97649	  1.91350	 17.51957	 -0.52212	 25.29017	710.67999	 35.90	
 11.903	-65.403	 23.97741	 12.51968	  6.06866	  1.47333	 18.14595	 -0.52043	 25.28898	710.71002	 35.90	
 11.893	-73.654	 23.97520	 11.14590	  7.27085	  1.19694	 18.57367	 -0.53912	 25.28401	710.69000	 35.80	
 11.892	-81.845	 23.97550	  9.74202	  8.60351	  1.04506	 18.79399	 -0.56023	 25.28975	710.77002	 35.90	
 11.900	-90.000	 23.94801	  8.39528	  9.95907	  0.99950	 18.77433	 -0.56875	 25.28711	710.70001	 35.80	
 11.892	-98.155	 23.93673	  7.07710	 11.32318	  1.11071	 18.54027	 -0.56590	 25.29061	710.67999	 35.80	
 11.893	-106.346	 23.91768	  5.81934	 12.71190	  1.41844	 18.07248	 -0.55940	 25.28927	710.69000	 35.80	
 11.903	-114.597	 23.91070	  4.69827	 14.04179	  1.90400	 17.41405	 -0.56702	 25.29131	710.71002	 35.80	
 11.897	-122.732	 23.88488	  3.70125	 15.25729	  2.48796	 16.56607	 -0.59009	 25.28500	710.66998	 35.80	
 11.894	-130.867	 23.87402	  2.84063	 16.37320	  3.23258	 15.57787	 -0.60563	 25.30809	710.69000	 35.80	
 11.902	-139.148	 23.84699	  2.02896	 17.34797	  4.08384	 14.35867	 -0.59816	 25.28951	710.64001	 35.80	
 11.909	-147.299	 23.82894	  1.39671	 18.14317	  5.09506	 13.09034	 -0.60598	 25.28084	710.73999	 35.80	
 11.889	-155.445	 23.81662	  0.95320	 18.73542	  6.26230	 11.75887	 -0.59723	 25.29026	710.71002	 35.80	
 11.890	-163.610	 23.79269	  0.62798	 19.13450	  7.48445	 10.37985	 -0.61915	 25.29383	710.67999	 35.80	
 11.899	-171.783	 23.76531	  0.38059	 19.33754	  8.77463	  9.02530	 -0.66404	 25.29437	710.72998	 35.80	
 11.900	180.000	 23.72605	  0.35990	 19.28344	 10.11324	  7.66229	 -0.67849	 25.28508	710.75000	 35.80	
 13.600	180.000	 23.16506	 -1.06001	 20.27698	  9.72383	  7.05973	 -0.86825	 25.29549	710.60999	 35.80	
 13.608	-172.853	 23.17927	 -1.06954	 20.33309	  8.40470	  8.41009	 -0.84645	 25.29263	710.66998	 35.80	
 13.611	-165.583	 23.20514	 -0.89171	 20.18913	  7.06029	  9.77321	 -0.80654	 25.28870	710.59003	 35.80	
 13.601	-158.353	 23.24473	 -0.62204	 19.85676	  5.80922	 11.18295	 -0.77314	 25.30222	710.63000	 35.80	
 13.609	-151.210	 23.25873	 -0.21782	 19.32046	  4.65068	 12.54925	 -0.74537	 25.28923	710.64001	 35.80	
 13.611	-143.999	 23.27106	  0.30399	 18.60973	  3.55052	 13.88971	 -0.74994	 25.28782	710.66998	 35.80	
 13.601	-136.825	 23.29515	  0.93520	 17.74499	  2.65285	 15.12803	 -0.74736	 25.28333	710.63000	 35.80	
 13.596	-129.640	 23.31241	  1.68379	 16.74047	  1.86198	 16.25080	 -0.72688	 25.28743	710.65997	 35.80	
 13.611	-122.431	 23.33082	  2.56605	 15.60255	  1.13667	 17.28644	 -0.70023	 25.28675	710.60999	 35.80	
 13.604	-115.211	 23.34308	  3.54259	 14.34566	  0.51849	 18.17057	 -0.67180	 25.29111	710.62000	 35.80	
 13.595	-108.042	 23.35482	  4.62745	 13.03387	  0.02196	 18.85625	 -0.66308	 25.27879	710.54999	 35.80	
 13.607	-100.793	 23.37003	  5.82156	 11.67211	 -0.33074	 19.38579	 -0.69013	 25.28434	710.67999	 35.80	
 13.601	-93.617	 23.37825	  7.11482	 10.27010	 -0.53892	 19.70604	 -0.70514	 25.28017	710.78998	 35.80	
 13.601	-86.383	 23.39976	  8.47792	  8.89396	 -0.58514	 19.84431	 -0.69713	 25.28329	710.54999	 35.80	
 13.607	-79.207	 23.40901	  9.81754	  7.53974	 -0.51991	 19.78608	 -0.68400	 25.28386	710.63000	 35.80	
 13.595	-71.958	 23.41890	 11.25278	  6.25243	 -0.31190	 19.49506	 -0.67992	 25.27619	710.62000	 35.70	
 13.604	-64.789	 23.40357	 12.60331	  5.06390	 -0.03309	 19.02963	 -0.67788	 25.26863	710.48999	 35.70	
 13.611	-57.569	 23.40648	 13.93103	  3.95783	  0.40692	 18.37008	 -0.69338	 25.27267	710.67999	 35.70	
 13.596	-50.360	 23.39588	 15.20513	  2.94460	  0.99542	 17.54790	 -0.70825	 25.27610	710.65997	 35.70	
 13.601	-43.175	 23.38136	 16.36782	  2.03141	  1.66629	 16.58344	 -0.70413	 25.27231	710.72998	 35.70	
 13.611	-36.001	 23.35622	 17.43159	  1.13789	  2.48251	 15.46558	 -0.68293	 25.27486	710.64001	 35.70	
 13.609	-28.790	 23.34581	 18.35423	  0.47104	  3.43113	 14.22764	 -0.66243	 25.27404	710.77002	 35.70	
 13.601	-21.647	 23.32510	 19.09808	 -0.06331	  4.45372	 12.92277	 -0.64761	 25.26980	710.71997	 35.70	
 13.611	-14.417	 23.29025	 19.67710	 -0.47782	  5.57895	 11.53885	 -0.63605	 25.26349	710.64001	 35.80	
 13.608	 -7.147	 23.26874	 20.07489	 -0.77165	  6.80474	 10.11596	 -0.62149	 25.26593	710.67999	 35.70	
 13.600	  0.000	 23.24307	 20.25800	 -0.95223	  8.09231	  8.78689	 -0.60784	 25.28120	710.62000	 35.70	
 13.608	  7.147	 23.19549	 20.26153	 -1.01192	  9.37541	  7.40984	 -0.58693	 25.27005	710.63000	 35.70	
 13.611	 14.417	 23.16920	 20.08176	 -0.92233	 10.76436	  6.05741	 -0.55705	 25.27615	710.62000	 35.70	
 13.601	 21.647	 23.14902	 19.68800	 -0.68340	 12.13940	  4.81263	 -0.54423	 25.28187	710.67999	 35.70	
 13.609	 28.790	 23.10973	 19.12064	 -0.33465	 13.48633	  3.65059	 -0.55668	 25.27491	710.78998	 35.70	
 13.611	 36.001	 23.08270	 18.37347	  0.12708	 14.79303	  2.55705	 -0.61962	 25.27901	710.62000	 35.70	
 13.601	 43.175	 23.05685	 17.45851	  0.72265	 16.00564	  1.60172	 -0.67535	 25.27379	710.56000	 35.70	
 13.596	 50.360	 23.04904	 16.43477	  1.47109	 17.09265	  0.77001	 -0.70378	 25.26737	710.58002	 35.70	
 13.611	 57.569	 23.02125	 15.24498	  2.31962	 18.08594	 -0.01676	 -0.72288	 25.26677	710.58002	 35.70	
 13.604	 64.789	 23.02297	 13.97765	  3.31708	 18.95838	 -0.61301	 -0.73115	 25.28580	710.65002	 35.70	
 13.595	 71.958	 23.00483	 12.64794	  4.36826	 19.62186	 -1.06318	 -0.73950	 25.27883	710.54999	 35.70	
 13.607	 79.207	 22.98755	 11.26077	  5.55257	 20.13971	 -1.40100	 -0.77147	 25.27700	710.56000	 35.70	
 13.601	 86.383	 22.96080	  9.85089	  6.80761	 20.43915	 -1.62565	 -0.81291	 25.26341	710.59998	 35.70	
 13.601	 93.617	 22.95098	  8.49908	  8.14524	 20.55742	 -1.72803	 -0.84510	 25.27147	710.57001	 35.70	
 13.607	100.793	 22.93997	  7.14283	  9.53097	 20.48878	 -1.65892	 -0.85968	 25.26610	710.56000	 35.70	
 13.595	108.042	 22.95130	  5.86070	 10.93447	 20.21882	 -1.46174	 -0.83212	 25.27038	710.51001	 35.70	
 13.604	115.211	 22.94055	  4.64961	 12.30556	 19.76878	 -1.17425	 -0.81816	 25.26210	710.66998	 35.70	
 13.611	122.431	 22.96477	  3.54544	 13.65693	 19.15046	 -0.75168	 -0.82339	 25.27410	710.65997	 35.70	
 13.596	129.640	 22.98061	  2.55953	 14.93437	 18.33077	 -0.07195	 -0.86492	 25.27051	710.65997	 35.70	
 13.601	136.825	 22.99010	  1.67229	 16.11930	 17.39370	  0.62162	 -0.89823	 25.26553	710.69000	 35.70	
 13.611	143.999	 23.00491	  0.90331	 17.21083	 16.31753	  1.40700	 -0.90046	 25.27916	710.60999	 35.70	
 13.609	151.210	 23.02699	  0.26628	 18.16459	 15.10279	  2.34243	 -0.87938	 25.25830	710.63000	 35.70	
 13.601	158.353	 23.05019	 -0.26120	 18.95126	 13.83465	  3.34251	 -0.86392	 25.27251	710.52002	 35.70	
 13.611	165.583	 23.08582	 -0.67089	 19.58998	 12.50671	  4.45497	 -0.87000	 25.27781	710.53998	 35.70	
 13.608	172.853	 23.12283	 -0.91325	 20.03142	 11.12569	  5.72720	 -0.87808	 25.27993	710.53003	 35.70	
 15.298	173.587	 22.46411	 -2.30577	 20.91717	 10.64177	  5.11500	 -1.02888	 25.27810	710.65997	 35.70	
 15.291	167.167	 22.42707	 -2.07299	 20.49532	 12.01003	  3.88442	 -1.04403	 25.26338	710.60999	 35.70	
 15.307	160.676	 22.40221	 -1.72668	 19.93329	 13.35750	  2.78227	 -1.05883	 25.26992	710.53998	 35.70	
 15.300	154.261	 22.36825	 -1.28894	 19.19045	 14.67090	  1.70906	 -1.09442	 25.26511	710.58002	 35.70	
 15.288	147.854	 22.35584	 -0.75278	 18.31515	 15.91958	  0.73683	 -1.11797	 25.26838	710.54999	 35.70	
 15.293	141.428	 22.33749	 -0.09821	 17.29563	 17.08505	 -0.15926	 -1.14664	 25.27491	710.58002	 35.70	
 15.299	134.985	 22.31996	  0.65855	 16.17398	 18.14081	 -0.90057	 -1.14819	 25.27423	710.65002	 35.70	
 15.305	128.583	 22.30382	  1.52829	 14.95036	 19.08787	 -1.54654	 -1.11895	 25.28085	710.56000	 35.70	
 15.309	122.142	 22.28152	  2.50908	 13.65547	 19.87709	 -2.07000	 -1.08647	 25.27640	710.64001	 35.70	
 15.304	115.711	 22.27047	  3.59960	 12.29967	 20.51739	 -2.47642	 -1.07713	 25.26755	710.65997	 35.70	
 15.297	109.291	 22.26875	  4.77437	 10.92927	 20.99003	 -2.78025	 -1.08443	 25.27419	710.66998	 35.70	
 15.293	102.897	 22.28004	  6.01068	  9.57007	 21.29906	 -2.98290	 -1.11708	 25.27745	710.71997	 35.70	
 15.293	 96.458	 22.28239	  7.35265	  8.17157	 21.42786	 -3.08904	 -1.11685	 25.27862	710.65997	 35.70	
 15.300	 90.000	 22.30091	  8.71027	  6.84462	 21.40662	 -3.09471	 -1.10613	 25.29616	710.59003	 35.70	
 15.293	 83.542	 22.31353	 10.06495	  5.54546	 21.20534	 -2.91355	 -1.06943	 25.29247	710.71002	 35.70	
 15.293	 77.103	 22.32292	 11.46230	  4.31399	 20.83414	 -2.69036	 -1.02500	 25.29282	710.65002	 35.70	
 15.297	 70.709	 22.33805	 12.81678	  3.18740	 20.28624	 -2.36463	 -1.01159	 25.27765	710.71002	 35.70	
 15.304	 64.289	 22.36180	 14.16177	  2.13756	 19.60616	 -1.92345	 -1.01881	 25.30500	710.64001	 35.70	
 15.309	 57.858	 22.37732	 15.44869	  1.19040	 18.75823	 -1.38904	 -1.01573	 25.29775	710.69000	 35.70	
 15.305	 51.417	 22.36971	 16.66635	  0.33677	 17.75528	 -0.70626	 -0.99385	 25.28662	710.71002	 35.70	
 15.299	 45.015	 22.40811	 17.75780	 -0.39193	 16.66272	  0.11428	 -0.96225	 25.30163	710.71002	 35.70	
 15.293	 38.572	 22.42956	 18.71755	 -1.00935	 15.47765	  1.01985	 -0.89143	 25.30428	710.78998	 35.70	
 15.288	 32.146	 22.45720	 19.52946	 -1.51278	 14.21139	  2.02522	 -0.84585	 25.31441	710.63000	 35.70	
 15.300	 25.739	 22.47628	 20.20428	 -1.90332	 12.87459	  3.12633	 -0.80639	 25.30456	710.60999	 35.70	
 15.307	 19.324	 22.52058	 20.72187	 -2.18259	 11.50882	  4.34741	 -0.79925	 25.31760	710.53003	 35.70	
 15.291	 12.833	 22.55584	 21.04033	 -2.34380	 10.13364	  5.62204	 -0.80200	 25.31794	710.70001	 35.70	
 15.298	  6.413	 22.58575	 21.20616	 -2.43885	  8.76277	  6.96638	 -0.83403	 25.31870	710.63000	 35.70	
 15.300	  0.000	 22.61605	 21.19551	 -2.40803	  7.45404	  8.33283	 -0.83457	 25.32038	710.70001	 35.70	
 15.298	 -6.413	 22.67248	 21.04056	 -2.25153	  6.18929	  9.72632	 -0.84667	 25.33169	710.62000	 35.70	
 15.291	-12.833	 22.70683	 20.66143	 -1.96549	  4.96142	 11.12488	 -0.83167	 25.33774	710.72998	 35.70	
 15.307	-19.324	 22.72982	 20.13449	 -1.59315	  3.81127	 12.51704	 -0.82112	 25.32964	710.66998	 35.70	
 15.300	-25.739	 22.75299	 19.45375	 -1.14804	  2.76784	 13.85093	 -0.82909	 25.33827	710.75000	 35.70	
 15.288	-32.146	 22.77774	 18.59419	 -0.56237	  1.76781	 15.14339	 -0.83799	 25.33872	710.67999	 35.70	
 15.293	-38.572	 22.80386	 17.60161	  0.12401	  0.85964	 16.34690	 -0.84400	 25.33721	710.69000	 35.70	
 15.299	-45.015	 22.84136	 16.52646	  0.94228	  0.11647	 17.44275	 -0.85803	 25.36854	710.70001	 35.70	
 15.305	-51.417	 22.84784	 15.31591	  1.82974	 -0.52060	 18.39272	 -0.81506	 25.34839	710.66998	 35.70	
 15.309	-57.858	 22.84625	 14.03868	  2.82890	 -1.05732	 19.22980	 -0.78427	 25.36387	710.60999	 35.70	
 15.304	-64.289	 22.84895	 12.68206	  3.99866	 -1.45426	 19.87717	 -0.76668	 25.34932	710.84003	 35.70	
 15.297	-70.709	 22.86748	 11.31577	  5.16873	 -1.75298	 20.38746	 -0.74286	 25.35940	710.69000	 35.60	
 15.293	-77.103	 22.87172	  9.92456	  6.43209	 -1.97865	 20.69544	 -0.73529	 25.36411	710.72998	 35.70	
 15.293	-83.542	 22.85771	  8.57154	  7.78659	 -2.07092	 20.83196	 -0.74928	 25.36623	710.64001	 35.60	
 15.300	-90.000	 22.84103	  7.19505	  9.16515	 -2.06535	 20.80020	 -0.73748	 25.36667	710.66998	 35.60	
 15.293	-96.458	 22.83333	  5.87413	 10.57658	 -1.92244	 20.57387	 -0.73230	 25.37123	710.63000	 35.60	
 15.293	-102.897	 22.80970	  4.61951	 11.95860	 -1.70511	 20.18653	 -0.70971	 25.37562	710.67999	 35.60	
 15.297	-109.291	 22.80446	  3.47868	 13.31767	 -1.35047	 19.63554	 -0.71477	 25.37989	710.70001	 35.60	
 15.304	-115.711	 22.80334	  2.41943	 14.64204	 -0.87773	 18.91011	 -0.72378	 25.40199	710.71002	 35.60	
 15.309	-122.142	 22.76454	  1.44829	 15.89474	 -0.31992	 18.01153	 -0.75148	 25.38725	710.65997	 35.60	
 15.305	-128.583	 22.75686	  0.63532	 17.05970	  0.38240	 17.00180	 -0.78473	 25.37943	710.59998	 35.60	
 15.299	-134.985	 22.74246	 -0.10053	 18.09873	  1.18035	 15.86346	 -0.79801	 25.37774	710.60999	 35.60	
 15.293	-141.428	 22.74332	 -0.75088	 19.03927	  2.06573	 14.65621	 -0.81973	 25.38955	710.60999	 35.60	
 15.288	-147.854	 22.70558	 -1.33636	 19.82375	  3.02856	 13.33765	 -0.82269	 25.38412	710.56000	 35.60	
 15.300	-154.261	 22.69805	 -1.78078	 20.46334	  4.17658	 11.95650	 -0.84537	 25.39281	710.66998	 35.60	
 15.307	-160.676	 22.67545	 -2.13581	 20.92670	  5.34242	 10.56629	 -0.89140	 25.38622	710.65997	 35.60	
 15.291	-167.167	 22.65257	 -2.36611	 21.20302	  6.64544	  9.21071	 -0.94577	 25.39591	710.62000	 35.60	
 15.298	-173.587	 22.62552	 -2.48384	 21.32273	  7.98393	  7.82002	 -0.98596	 25.40518	710.57001	 35.60	
 15.300	180.000	 22.59917	 -2.48014	 21.25353	  9.28959	  6.46370	 -1.01461	 25.40256	710.53003	 35.60	
 17.000	180.000	 21.84647	 -3.84837	 22.06880	  8.76214	  5.80988	 -1.09756	 25.39566	710.52002	 35.60	
 16.990	-174.179	 21.88088	 -3.84901	 22.13474	  7.47850	  7.11997	 -1.05857	 25.40780	710.56000	 35.60	
 17.009	-168.383	 21.89175	 -3.75257	 22.05334	  6.16456	  8.49794	 -1.01162	 25.39672	710.56000	 35.60	
 17.000	-162.596	 21.94530	 -3.51439	 21.81105	  4.91719	  9.88626	 -0.94606	 25.40099	710.60999	 35.60	
 16.990	-156.759	 21.95393	 -3.22583	 21.39707	  3.70767	 11.28674	 -0.89393	 25.38066	710.64001	 35.50	
 16.995	-150.919	 21.97365	 -2.86265	 20.84213	  2.57736	 12.68129	 -0.84486	 25.38230	710.64001	 35.50	
 16.988	-145.161	 22.00324	 -2.39015	 20.13868	  1.59582	 14.00042	 -0.84044	 25.38372	710.50000	 35.50	
 17.014	-139.343	 22.00675	 -1.86395	 19.30077	  0.63879	 15.27225	 -0.82043	 25.37653	710.59998	 35.50	
 17.007	-133.546	 22.03748	 -1.19208	 18.32513	 -0.16567	 16.50042	 -0.80902	 25.38754	710.58002	 35.50	
 17.001	-127.699	 22.04441	 -0.45870	 17.23120	 -0.93004	 17.62401	 -0.76966	 25.37962	710.56000	 35.50	
 17.006	-121.937	 22.04957	  0.35244	 16.06401	 -1.59361	 18.59844	 -0.73329	 25.37802	710.69000	 35.50	
 17.002	-116.134	 22.08175	  1.26546	 14.82325	 -2.09937	 19.47961	 -0.70911	 25.39096	710.57001	 35.50	
 17.001	-110.310	 22.09248	  2.27634	 13.50069	 -2.55168	 20.22623	 -0.68039	 25.37771	710.52002	 35.50	
 16.988	-104.517	 22.09664	  3.39406	 12.15004	 -2.91885	 20.82345	 -0.68630	 25.36790	710.58002	 35.50	
 17.008	-98.662	 22.10821	  4.58258	 10.76140	 -3.22080	 21.29246	 -0.68957	 25.37670	710.60999	 35.50	
 16.996	-92.909	 22.12919	  5.84904	  9.37672	 -3.39066	 21.57147	 -0.70312	 25.37402	710.53998	 35.50	
 16.996	-87.091	 22.14046	  7.19096	  8.00947	 -3.47431	 21.71322	 -0.70637	 25.37424	710.57001	 35.40	
 17.012	-81.253	 22.15618	  8.56995	  6.64400	 -3.46374	 21.70583	 -0.71931	 25.38375	710.65002	 35.40	
 16.988	-75.483	 22.16049	  9.86555	  5.35773	 -3.33707	 21.48556	 -0.71680	 25.36773	710.59003	 35.40	
 17.001	-69.690	 22.15698	 11.26631	  4.12416	 -3.07985	 21.11799	 -0.73120	 25.36222	710.59003	 35.40	
 17.002	-63.866	 22.15019	 12.64701	  2.94627	 -2.79918	 20.60418	 -0.77026	 25.35342	710.64001	 35.40	
 17.006	-58.063	 22.12824	 13.98079	  1.83759	 -2.44397	 19.95063	 -0.79675	 25.36054	710.64001	 35.40	
 17.001	-52.301	 22.12237	 15.26469	  0.85300	 -1.96879	 19.14083	 -0.83349	 25.35529	710.54999	 35.40	
 17.007	-46.454	 22.11015	 16.49611	 -0.04752	 -1.36888	 18.18134	 -0.85399	 25.34516	710.59003	 35.40	
 17.014	-40.657	 22.08771	 17.65091	 -0.86232	 -0.69749	 17.12297	 -0.88038	 25.34941	710.63000	 35.40	
 16.988	-34.839	 22.07893	 18.68836	 -1.56160	  0.07817	 15.96581	 -0.90262	 25.35981	710.63000	 35.40	
 16.995	-29.081	 22.03456	 19.59266	 -2.15366	  0.95713	 14.70552	 -0.91829	 25.33720	710.66998	 35.40	
 16.990	-23.241	 22.03917	 20.39653	 -2.63543	  1.98877	 13.38601	 -0.92346	 25.34566	710.76001	 35.40	
 17.000	-17.404	 22.01699	 21.04122	 -3.03126	  3.09127	 12.01628	 -0.95503	 25.35231	710.58002	 35.40	
 17.009	-11.617	 21.97872	 21.52374	 -3.35816	  4.23733	 10.62959	 -0.98012	 25.33957	710.65002	 35.40	
 16.990	 -5.821	 21.92313	 21.84354	 -3.62853	  5.49522	  9.23301	 -1.01103	 25.32567	710.67999	 35.40	
 17.000	  0.000	 21.89464	 22.02205	 -3.77903	  6.75774	  7.86558	 -1.02747	 25.33141	710.66998	 35.40	
 16.990	  5.821	 21.85867	 22.03797	 -3.84535	  8.06660	  6.48364	 -1.03365	 25.32837	710.69000	 35.40	
 17.009	 11.617	 21.80678	 21.91082	 -3.79736	  9.39746	  5.14687	 -1.03845	 25.31964	710.65997	 35.40	
 17.000	 17.404	 21.78906	 21.61774	 -3.63779	 10.77314	  3.90113	 -1.02522	 25.32638	710.63000	 35.40	
 16.990	 23.241	 21.75422	 21.16193	 -3.39240	 12.15336	  2.68820	 -1.04880	 25.31238	710.73999	 35.40	
 16.995	 29.081	 21.71571	 20.55725	 -3.08612	 13.51781	  1.53815	 -1.08936	 25.30620	710.71997	 35.40	
 16.988	 34.839	 21.70107	 19.83175	 -2.67207	 14.81545	  0.54608	 -1.14184	 25.31413	710.65997	 35.40	
 17.014	 40.657	 21.66176	 18.93452	 -2.17088	 16.06572	 -0.41134	 -1.22390	 25.31275	710.72998	 35.40	
 17.007	 46.454	 21.63628	 17.91503	 -1.54883	 17.24148	 -1.27475	 -1.26070	 25.30931	710.64001	 35.40	
 17.001	 52.301	 21.63273	 16.79957	 -0.78646	 18.33158	 -2.01705	 -1.27557	 25.31149	710.65997	 35.40	
 17.006	 58.063	 21.61830	 15.60004	  0.04566	 19.30013	 -2.63452	 -1.30024	 25.30498	710.66998	 35.40	
 17.002	 63.866	 21.61381	 14.32121	  0.97831	 20.14136	 -3.14445	 -1.29345	 25.30432	710.58002	 35.40	
 17.001	 69.690	 21.61106	 12.98717	  1.98528	 20.86233	 -3.57290	 -1.29288	 25.31800	710.59998	 35.40	
 16.988	 75.483	 21.58910	 11.61998	  3.07325	 21.43263	 -3.91726	 -1.31464	 25.30646	710.67999	 35.40	
 17.012	 81.253	 21.55846	 10.23898	  4.18169	 21.86431	 -4.20993	 -1.35987	 25.30270	710.66998	 35.40	
 16.996	 87.091	 21.54272	  8.83844	  5.47862	 22.12882	 -4.37507	 -1.38462	 25.30068	710.65997	 35.40	
 16.996	 92.909	 21.54506	  7.49771	  6.78034	 22.26721	 -4.45536	 -1.40324	 25.31128	710.66998	 35.40	
 17.008	 98.662	 21.52337	  6.17425	  8.08220	 22.22910	 -4.42765	 -1.40118	 25.30692	710.71997	 35.40	
 16.988	104.517	 21.54175	  4.93809	  9.48378	 22.05041	 -4.28683	 -1.36177	 25.31217	710.62000	 35.40	
 17.001	110.310	 21.53595	  3.71699	 10.86289	 21.71234	 -4.07319	 -1.34320	 25.31365	710.58002	 35.40	
 17.002	116.134	 21.53736	  2.55454	 12.25556	 21.19483	 -3.77446	 -1.33553	 25.31320	710.71002	 35.40	
 17.006	121.937	 21.54339	  1.47762	 13.60261	 20.55989	 -3.41284	 -1.35690	 25.30831	710.65002	 35.40	
 17.001	127.699	 21.55340	  0.53120	 14.92646	 19.77205	 -2.94117	 -1.37739	 25.31171	710.64001	 35.40	
 17.007	133.546	 21.57456	 -0.33328	 16.18378	 18.85040	 -2.34877	 -1.39096	 25.32125	710.81000	 35.40	
 17.014	139.343	 21.57755	 -1.11409	 17.34933	 17.80183	 -1.65477	 -1.38942	 25.30816	710.65002	 35.30	
 16.988	145.161	 21.60810	 -1.76838	 18.39209	 16.66166	 -0.86209	 -1.36084	 25.30035	710.62000	 35.30	
 16.995	150.919	 21.63136	 -2.32623	 19.31809	 15.47972	 -0.04226	 -1.31747	 25.31390	710.66998	 35.30	
 16.990	156.759	 21.67472	 -2.78367	 20.15318	 14.18350	  0.97207	 -1.26725	 25.32034	710.73999	 35.30	
 17.000	162.596	 21.69536	 -3.16795	 20.83986	 12.84488	  2.10948	 -1.22743	 25.31202	710.72998	 35.30	
 17.009	168.383	 21.71941	 -3.46619	 21.38060	 11.51088	  3.22250	 -1.19506	 25.30903	710.67999	 35.30	
 16.990	174.179	 21.75702	 -3.67078	 21.75717	 10.13591	  4.45761	 -1.15216	 25.31224	710.70001	 35.30	
 18.709	174.675	 20.92031	 -4.99416	 22.49826	  9.52349	  3.75836	 -1.18327	 25.29910	710.67999	 35.30	
 18.703	169.441	 20.88424	 -4.82080	 22.12517	 10.87709	  2.50557	 -1.25210	 25.30251	710.58002	 35.30	
 18.691	164.085	 20.86492	 -4.53210	 21.61576	 12.23850	  1.39213	 -1.32440	 25.29655	710.62000	 35.30	
 18.706	158.818	 20.82924	 -4.21190	 20.98228	 13.56216	  0.34768	 -1.38811	 25.29879	710.70001	 35.40	
 18.695	153.537	 20.80195	 -3.79194	 20.21720	 14.87693	 -0.60471	 -1.45052	 25.29339	710.57001	 35.30	
 18.704	148.255	 20.78618	 -3.34282	 19.37766	 16.17658	 -1.48291	 -1.50996	 25.31164	710.64001	 35.30	
 18.698	142.952	 20.74902	 -2.77621	 18.36462	 17.29600	 -2.27979	 -1.55021	 25.30199	710.65002	 35.40	
 18.699	137.625	 20.73639	 -2.11704	 17.27040	 18.42070	 -3.01568	 -1.58345	 25.30577	710.66998	 35.40	
 18.705	132.343	 20.70790	 -1.35590	 16.07525	 19.42531	 -3.66868	 -1.60097	 25.29642	710.73999	 35.40	
 18.713	127.067	 20.71344	 -0.50327	 14.83193	 20.32879	 -4.20197	 -1.60159	 25.30561	710.59003	 35.40	
 18.700	121.794	 20.70124	  0.45883	 13.52282	 21.09717	 -4.63182	 -1.59367	 25.30815	710.53003	 35.40	
 18.698	116.504	 20.68244	  1.48212	 12.16968	 21.75400	 -4.99615	 -1.59698	 25.29535	710.69000	 35.40	
 18.707	111.165	 20.68534	  2.60428	 10.77146	 22.28593	 -5.29488	 -1.61856	 25.29770	710.72998	 35.40	
 18.690	105.863	 20.68710	  3.75979	  9.39112	 22.65687	 -5.49637	 -1.62928	 25.29790	710.71002	 35.40	
 18.696	100.583	 20.67939	  4.97517	  8.03481	 22.88631	 -5.62728	 -1.65022	 25.30066	710.78003	 35.40	
 18.700	 95.309	 20.68818	  6.26472	  6.67972	 22.97634	 -5.69017	 -1.66207	 25.30287	710.73999	 35.40	
 18.700	 90.000	 20.70301	  7.57061	  5.36380	 22.93811	 -5.68497	 -1.66197	 25.31058	710.78003	 35.40	
 18.700	 84.691	 20.70415	  8.93976	  4.11245	 22.74052	 -5.54688	 -1.63878	 25.29610	710.66998	 35.40	
 18.696	 79.417	 20.71971	 10.32604	  2.92069	 22.41047	 -5.37164	 -1.60876	 25.29562	710.65002	 35.40	
 18.690	 74.137	 20.74012	 11.68879	  1.83109	 21.94023	 -5.11187	 -1.59344	 25.30006	710.77002	 35.40	
 18.707	 68.835	 20.74322	 13.02833	  0.78638	 21.34709	 -4.79042	 -1.58006	 25.28710	710.69000	 35.40	
 18.698	 63.496	 20.77065	 14.39322	 -0.19802	 20.60479	 -4.35687	 -1.55033	 25.29426	710.66998	 35.40	
 18.700	 58.206	 20.77571	 15.67251	 -1.06077	 19.74327	 -3.85205	 -1.55224	 25.28915	710.62000	 35.40	
 18.713	 52.933	 20.79327	 16.88065	 -1.87820	 18.79541	 -3.28434	 -1.55265	 25.30084	710.71002	 35.40	
 18.705	 47.657	 20.78507	 17.99529	 -2.59601	 17.72003	 -2.62429	 -1.53212	 25.29050	710.71002	 35.40	
 18.699	 42.375	 20.80996	 19.04243	 -3.23582	 16.55671	 -1.82760	 -1.49062	 25.29216	710.67999	 35.40	
 18.698	 37.048	 20.82859	 19.96530	 -3.76949	 15.31272	 -0.93207	 -1.43724	 25.28702	710.67999	 35.40	
 18.704	 31.745	 20.86125	 20.78374	 -4.20734	 14.04395	  0.01663	 -1.37878	 25.30719	710.69000	 35.30	
 18.695	 26.463	 20.89395	 21.45113	 -4.54598	 12.71829	  1.07037	 -1.33242	 25.30473	710.59998	 35.40	
 18.706	 21.182	 20.90803	 21.98240	 -4.80945	 11.34142	  2.19100	 -1.28863	 25.28366	710.63000	 35.40	
 18.691	 15.915	 20.94893	 22.38877	 -4.97654	  9.98587	  3.38905	 -1.24265	 25.29614	710.59998	 35.30	
 18.703	 10.559	 20.96746	 22.65085	 -5.16139	  8.61794	  4.66585	 -1.22063	 25.29732	710.75000	 35.30	
 18.709	  5.325	 20.98922	 22.75854	 -5.17320	  7.30920	  5.95699	 -1.19113	 25.28784	710.62000	 35.40	
 18.700	  0.000	 21.02978	 22.72145	 -5.11830	  6.01847	  7.29782	 -1.15829	 25.29136	710.72998	 35.30	
 18.709	 -5.325	 21.07690	 22.57268	 -4.99574	  4.74499	  8.66745	 -1.14115	 25.30489	710.65997	 35.30	
 18.703	-10.559	 21.11235	 22.25308	 -4.77430	  3.51284	  9.98625	 -1.09495	 25.30157	710.62000	 35.30	
 18.691	-15.915	 21.16687	 21.79155	 -4.43730	  2.37700	 11.41224	 -1.03672	 25.30223	710.71002	 35.30	
 18.706	-21.182	 21.18667	 21.19097	 -4.09667	  1.30702	 12.76488	 -1.01285	 25.28465	710.64001	 35.30	
 18.695	-26.463	 21.20400	 20.44838	 -3.64509	  0.32839	 14.11575	 -0.98221	 25.28397	710.65002	 35.30	
 18.704	-31.745	 21.22614	 19.60075	 -3.13464	 -0.56977	 15.40821	 -0.94258	 25.29995	710.64001	 35.30	
 18.698	-37.048	 21.25218	 18.63170	 -2.53638	 -1.35753	 16.62603	 -0.91087	 25.30290	710.76001	 35.40	
 18.699	-42.375	 21.26731	 17.54197	 -1.82831	 -2.08869	 17.77708	 -0.88190	 25.29553	710.64001	 35.30	
 18.705	-47.657	 21.29224	 16.37870	 -1.03947	 -2.74371	 18.83619	 -0.83483	 25.30235	710.67999	 35.40	
 18.713	-52.933	 21.29122	 15.13845	 -0.16137	 -3.28592	 19.73958	 -0.79857	 25.29660	710.65997	 35.40	
 18.700	-58.206	 21.31024	 13.86113	  0.81919	 -3.70120	 20.51601	 -0.77280	 25.29209	710.65997	 35.40	
 18.698	-63.496	 21.31961	 12.52827	  1.87702	 -4.05177	 21.18279	 -0.75686	 25.30149	710.65997	 35.40	
 18.707	-68.835	 21.32803	 11.14236	  3.01590	 -4.35856	 21.74014	 -0.72757	 25.31541	710.52002	 35.40	
 18.690	-74.137	 21.32315	  9.73272	  4.22025	 -4.62146	 22.13083	 -0.70090	 25.31673	710.53998	 35.30	
 18.696	-79.417	 21.30674	  8.45223	  5.47049	 -4.76704	 22.36116	 -0.68696	 25.31092	710.73999	 35.30	
 18.700	-84.691	 21.29695	  7.11674	  6.82680	 -4.78956	 22.44537	 -0.67091	 25.30228	710.66998	 35.40	
 18.700	-90.000	 21.29432	  5.80423	  8.18159	 -4.74142	 22.39350	 -0.66856	 25.31187	710.56000	 35.30	
 18.700	-95.309	 21.27118	  4.51593	  9.55295	 -4.61344	 22.18365	 -0.64724	 25.30607	710.72998	 35.30	
 18.696	-100.583	 21.24612	  3.28680	 10.93136	 -4.41353	 21.83170	 -0.65090	 25.30259	710.66998	 35.30	
 18.690	-105.863	 21.26038	  2.17867	 12.29483	 -4.14103	 21.36067	 -0.66111	 25.32641	710.75000	 35.30	
 18.707	-111.165	 21.24820	  1.14573	 13.63777	 -3.79724	 20.73943	 -0.67386	 25.33216	710.66998	 35.30	
 18.698	-116.504	 21.23145	  0.16163	 14.96752	 -3.34718	 19.95647	 -0.68404	 25.33457	710.65997	 35.30	
 18.700	-121.794	 21.21480	 -0.70687	 16.20661	 -2.83350	 19.10028	 -0.70695	 25.33310	710.63000	 35.30	
 18.713	-127.067	 21.19204	 -1.52516	 17.36924	 -2.25291	 18.12444	 -0.71788	 25.34020	710.65997	 35.30	
 18.705	-132.343	 21.17623	 -2.25593	 18.46536	 -1.56385	 17.04106	 -0.74567	 25.34973	710.73999	 35.30	
 18.699	-137.625	 21.16800	 -2.89796	 19.45584	 -0.75773	 15.83970	 -0.78982	 25.33767	710.65997	 35.30	
 18.698	-142.952	 21.17303	 -3.45344	 20.32425	  0.12414	 14.58090	 -0.80956	 25.35991	710.59998	 35.30	
 18.704	-148.255	 21.15797	 -3.92825	 21.08960	  1.05715	 13.26428	 -0.84372	 25.35341	710.59003	 35.40	
 18.695	-153.537	 21.12997	 -4.30084	 21.71437	  2.05257	 11.92056	 -0.86758	 25.36328	710.69000	 35.30	
 18.706	-158.818	 21.11186	 -4.63251	 22.22833	  3.17884	 10.52106	 -0.94295	 25.36998	710.59998	 35.30	
 18.691	-164.085	 21.10463	 -4.92049	 22.58833	  4.39224	  9.11253	 -0.97410	 25.37922	710.60999	 35.30	
 18.703	-169.441	 21.05648	 -5.10896	 22.78328	  5.65172	  7.70602	 -1.02074	 25.37510	710.65997	 35.30	
 18.709	-174.675	 21.02777	 -5.17872	 22.85979	  6.91949	  6.36571	 -1.07239	 25.37535	710.63000	 35.30	
 18.700	180.000	 20.99638	 -5.15947	 22.77153	  8.21652	  5.09213	 -1.14966	 25.37513	710.64001	 35.30	
 20.400	180.000	 20.10686	 -6.41425	 23.40651	  7.58540	  4.34760	 -1.12949	 25.38261	710.65997	 35.30	
 20.401	-175.153	 20.12325	 -6.43082	 23.48585	  6.32137	  5.57365	 -1.04431	 25.37005	710.58002	 35.30	
 20.407	-170.264	 20.18073	 -6.38806	 23.46582	  5.05987	  6.90264	 -0.97460	 25.40899	710.60999	 35.30	
 20.410	-165.423	 20.19507	 -6.28366	 23.29506	  3.84175	  8.24160	 -0.94161	 25.38675	710.56000	 35.30	
 20.392	-160.496	 20.24352	 -5.99226	 22.98574	  2.66941	  9.69201	 -0.90626	 25.39345	710.58002	 35.30	
 20.401	-155.705	 20.25975	 -5.72972	 22.55041	  1.56981	 11.07249	 -0.88163	 25.39675	710.48999	 35.30	
 20.405	-150.835	 20.29132	 -5.38954	 21.98926	  0.55235	 12.42917	 -0.83602	 25.40373	710.65002	 35.30	
 20.397	-145.903	 20.31713	 -4.96873	 21.27645	 -0.41992	 13.77849	 -0.78755	 25.40018	710.50000	 35.30	
 20.392	-141.062	 20.32361	 -4.49887	 20.50529	 -1.32864	 15.08072	 -0.74463	 25.40310	710.58002	 35.30	
 20.396	-136.227	 20.32202	 -3.95308	 19.59046	 -2.14838	 16.30897	 -0.71672	 25.38220	710.64001	 35.30	
 20.408	-131.372	 20.35166	 -3.31635	 18.59382	 -2.87208	 17.48082	 -0.71132	 25.40133	710.51001	 35.30	
 20.410	-126.511	 20.36999	 -2.60241	 17.48134	 -3.50658	 18.58934	 -0.69081	 25.39542	710.60999	 35.30	
 20.400	-121.604	 20.38909	 -1.81498	 16.29092	 -4.07462	 19.60342	 -0.67985	 25.40817	710.62000	 35.30	
 20.403	-116.741	 20.39503	 -0.97935	 15.03902	 -4.57709	 20.47945	 -0.66531	 25.40563	710.59003	 35.30	
 20.413	-111.900	 20.42318	 -0.04237	 13.75581	 -5.02606	 21.26628	 -0.64868	 25.41734	710.50000	 35.30	
 20.398	-107.004	 20.43973	  1.02130	 12.40022	 -5.35336	 21.90676	 -0.64442	 25.40920	710.60999	 35.30	
 20.394	-102.132	 20.46519	  2.10193	 11.04220	 -5.61630	 22.41726	 -0.64068	 25.40251	710.47998	 35.30	
 20.403	-97.332	 20.49261	  3.17797	  9.70675	 -5.82719	 22.82406	 -0.62940	 25.42098	710.57001	 35.30	
 20.392	-92.440	 20.50166	  4.44505	  8.32229	 -5.95366	 23.07226	 -0.63179	 25.40650	710.60999	 35.30	
 20.392	-87.560	 20.51445	  5.69564	  6.98189	 -6.05067	 23.19879	 -0.63861	 25.40341	710.59998	 35.30	
 20.403	-82.668	 20.53518	  7.01065	  5.64682	 -6.11622	 23.23342	 -0.63810	 25.43326	710.65997	 35.30	
 20.394	-77.868	 20.52397	  8.32339	  4.36444	 -6.08095	 23.08253	 -0.63949	 25.41542	710.71002	 35.30	
 20.398	-72.996	 20.53120	  9.65860	  3.13590	 -5.94828	 22.81823	 -0.68239	 25.41414	710.58002	 35.30	
 20.413	-68.100	 20.54587	 11.02813	  1.91986	 -5.64617	 22.41220	 -0.69476	 25.42287	710.64001	 35.30	
 20.403	-63.259	 20.54225	 12.40039	  0.81603	 -5.35958	 21.86842	 -0.72177	 25.42092	710.57001	 35.30	
 20.400	-58.396	 20.54974	 13.78171	 -0.20247	 -5.00864	 21.20820	 -0.75587	 25.42926	710.57001	 35.30	
 20.410	-53.489	 20.53074	 15.08577	 -1.18323	 -4.61437	 20.40832	 -0.76819	 25.42317	710.64001	 35.30	
 20.408	-48.628	 20.52780	 16.35802	 -2.07135	 -4.11304	 19.48845	 -0.80401	 25.43876	710.65997	 35.20	
 20.396	-43.773	 20.50455	 17.52232	 -2.85172	 -3.52128	 18.47361	 -0.83687	 25.43063	710.65002	 35.20	
 20.392	-38.938	 20.51171	 18.63381	 -3.51934	 -2.84107	 17.37110	 -0.87385	 25.45274	710.60999	 35.20	
 20.397	-34.097	 20.49180	 19.61735	 -4.10591	 -2.09653	 16.17279	 -0.93374	 25.43270	710.65997	 35.20	
 20.405	-29.165	 20.45524	 20.56290	 -4.66921	 -1.27744	 14.88374	 -0.96479	 25.43523	710.58002	 35.20	
 20.401	-24.295	 20.44327	 21.37615	 -5.14261	 -0.39024	 13.57426	 -1.01046	 25.45100	710.54999	 35.20	
 20.392	-19.504	 20.41865	 22.05617	 -5.51382	  0.58950	 12.23173	 -1.05757	 25.44519	710.62000	 35.20	
 20.410	-14.577	 20.38250	 22.63877	 -5.85355	  1.66761	 10.82667	 -1.10313	 25.44698	710.56000	 35.30	
 20.407	 -9.736	 20.34200	 23.06657	 -6.17028	  2.80857	  9.47187	 -1.13852	 25.44841	710.58002	 35.30	
 20.401	 -4.847	 20.32097	 23.37109	 -6.34816	  4.02115	  8.06426	 -1.18874	 25.45561	710.63000	 35.20	
 20.400	  0.000	 20.28189	 23.51459	 -6.42438	  5.27173	  6.72337	 -1.23011	 25.44278	710.59003	 35.20	
 20.401	  4.847	 20.24974	 23.55275	 -6.47283	  6.55953	  5.40316	 -1.28390	 25.46150	710.58002	 35.20	
 20.407	  9.736	 20.18801	 23.44375	 -6.48918	  7.83616	  4.08142	 -1.36871	 25.43889	710.58002	 35.20	
 20.410	 14.577	 20.15623	 23.23572	 -6.41050	  9.14563	  2.85809	 -1.43903	 25.44441	710.63000	 35.20	
 20.392	 19.504	 20.14961	 22.87427	 -6.21249	 10.57374	  1.65631	 -1.49044	 25.45265	710.59003	 35.20	
 20.401	 24.295	 20.10416	 22.39104	 -6.01507	 11.92662	  0.51265	 -1.53982	 25.46206	710.66998	 35.20	
 20.405	 29.165	 20.06327	 21.76680	 -5.73296	 13.25395	 -0.52583	 -1.58085	 25.44316	710.60999	 35.20	
 20.397	 34.097	 20.05073	 21.01719	 -5.32894	 14.59482	 -1.50792	 -1.62326	 25.44842	710.46997	 35.20	
 20.392	 38.938	 20.02725	 20.16667	 -4.87302	 15.87503	 -2.41385	 -1.69084	 25.45404	710.54999	 35.20	
 20.396	 43.773	 20.00486	 19.20029	 -4.33901	 17.09544	 -3.19989	 -1.72162	 25.45485	710.46002	 35.20	
 20.408	 48.628	 20.00895	 18.15308	 -3.70177	 18.23093	 -3.86143	 -1.75002	 25.45791	710.47998	 35.20	
 20.410	 53.489	 19.99968	 16.99383	 -3.01158	 19.30163	 -4.44938	 -1.79150	 25.45749	710.51001	 35.20	
 20.400	 58.396	 19.99452	 15.78449	 -2.24620	 20.26406	 -4.93869	 -1.82498	 25.45803	710.41998	 35.20	
 20.403	 63.259	 19.96569	 14.50900	 -1.42823	 21.11585	 -5.41001	 -1.83596	 25.45126	710.50000	 35.20	
 20.413	 68.100	 19.95017	 13.19760	 -0.52117	 21.86988	 -5.84060	 -1.86892	 25.46727	710.52002	 35.20	
 20.398	 72.996	 19.94768	 11.83107	  0.51562	 22.48812	 -6.17042	 -1.86414	 25.44946	710.51001	 35.20	
 20.394	 77.868	 19.94989	 10.47675	  1.61173	 22.98711	 -6.43027	 -1.88036	 25.46119	710.58002	 35.20	
 20.403	 82.668	 19.94189	  9.10580	  2.74801	 23.37646	 -6.65779	 -1.89048	 25.47499	710.54999	 35.20	
 20.392	 87.560	 19.92260	  7.72020	  3.98258	 23.60909	 -6.79307	 -1.89333	 25.45910	710.63000	 35.10	
 20.392	 92.440	 19.90877	  6.38709	  5.24016	 23.72675	 -6.88477	 -1.89398	 25.45790	710.45001	 35.10	
 20.403	 97.332	 19.89102	  5.05962	  6.58852	 23.71952	 -6.89079	 -1.89129	 25.46135	710.41998	 35.10	
 20.394	102.132	 19.88800	  3.83085	  7.92023	 23.60069	 -6.81311	 -1.88522	 25.46384	710.42999	 35.10	
 20.398	107.004	 19.88035	  2.62272	  9.28303	 23.33886	 -6.69449	 -1.87306	 25.46719	710.46997	 35.10	
 20.413	111.900	 19.87151	  1.46763	 10.67174	 22.94619	 -6.50810	 -1.85226	 25.47371	710.46002	 35.10	
 20.403	116.741	 19.87819	  0.39360	 12.05680	 22.40659	 -6.22005	 -1.84416	 25.47742	710.46997	 35.10	
 20.400	121.604	 19.89422	 -0.61008	 13.39388	 21.74083	 -5.89651	 -1.82644	 25.47111	710.54999	 35.10	
 20.410	126.511	 19.91193	 -1.54595	 14.73291	 20.96276	 -5.48994	 -1.79783	 25.47589	710.53003	 35.10	
 20.408	131.372	 19.91445	 -2.38181	 16.00590	 20.11001	 -4.99545	 -1.77881	 25.47424	710.59998	 35.10	
 20.396	136.227	 19.93293	 -3.13604	 17.21212	 19.14090	 -4.41108	 -1.74879	 25.47638	710.41998	 35.10	
 20.392	141.062	 19.96435	 -3.77803	 18.34511	 18.07409	 -3.72858	 -1.71654	 25.48228	710.47998	 35.10	
 20.397	145.903	 19.99160	 -4.35177	 19.38558	 16.91633	 -3.02188	 -1.65969	 25.48448	710.57001	 35.10	
 20.405	150.835	 20.01653	 -4.86049	 20.35349	 15.66656	 -2.17024	 -1.60280	 25.48568	710.53998	 35.10	
 20.401	155.705	 20.03411	 -5.27857	 21.18195	 14.38763	 -1.28391	 -1.52154	 25.49012	710.53998	 35.10	
 20.392	160.496	 20.07811	 -5.61522	 21.87216	 13.08129	 -0.33088	 -1.46844	 25.47530	710.58002	 35.10	
 20.410	165.423	 20.11369	 -5.93865	 22.49554	 11.70220	  0.74798	 -1.37982	 25.49755	710.57001	 35.10	
 20.407	170.264	 20.14276	 -6.16053	 22.96535	 10.35930	  1.87360	 -1.29556	 25.49323	710.53998	 35.00	
 20.401	175.153	 20.17072	 -6.29651	 23.29958	  8.97076	  3.09456	 -1.20302	 25.48270	710.52002	 35.00	
  0.141	 45.000	 25.55451	 10.77960	 10.72945	 11.24341	 10.03459	  0.57175	 25.48618	710.58002	 35.00	
  4.001	128.691	 25.42919	  8.70141	 12.43781	 13.74101	  7.41386	  0.41029	 25.49772	710.47998	 35.00	
  4.002	 76.995	 25.43930	 11.46929	  9.60402	 14.18183	  7.01910	  0.49742	 25.49723	710.53003	 35.00	
  4.002	 25.892	 25.46666	 13.64341	  7.71035	 12.16554	  8.81258	  0.55466	 25.50156	710.51001	 35.00	
  4.002	-25.892	 25.50889	 13.45979	  7.95927	  9.40613	 11.62826	  0.53282	 25.50922	710.48999	 35.00	
  4.002	-76.995	 25.51220	 11.06467	 10.20818	  7.96634	 13.30937	  0.45240	 25.51091	710.53998	 35.00	
  4.001	-128.691	 25.49721	  8.37941	 12.96465	  8.72311	 12.36114	  0.37922	 25.50029	710.52002	 35.00	
  4.000	180.000	 25.45633	  7.41869	 13.98639	 11.21134	  9.68031	  0.36096	 25.49665	710.41998	 35.00	
  8.000	180.000	 24.93246	  4.04038	 16.89400	 10.93401	  8.88446	 -0.18410	 25.50567	710.48999	 35.00	
  7.991	-152.370	 24.99725	  4.53111	 16.38661	  7.99833	 12.00140	 -0.12820	 25.51550	710.62000	 35.00	
  7.997	-124.550	 25.02554	  6.19589	 14.38886	  5.80934	 14.66603	 -0.11099	 25.49152	710.60999	 35.00	
  8.006	-96.837	 25.08510	  8.85943	 11.44522	  4.66762	 16.19482	 -0.07113	 25.51935	710.57001	 35.00	
  7.988	-69.228	 25.09542	 11.96752	  8.37257	  4.81139	 16.05108	 -0.02399	 25.51343	710.54999	 35.00	
  7.997	-41.563	 25.08289	 14.76888	  5.96657	  6.13654	 14.33531	  0.08084	 25.52558	710.58002	 35.00	
  8.008	-13.821	 25.03546	 16.54144	  4.43064	  8.48971	 11.46767	  0.12594	 25.50701	710.56000	 35.00	
  8.008	 13.821	 24.98689	 16.76894	  4.14368	 11.45519	  8.37451	  0.16094	 25.52650	710.59003	 35.00	
  7.997	 41.563	 24.92712	 15.37097	  5.14659	 14.43397	  5.67845	  0.10890	 25.51185	710.67999	 35.00	
  7.988	 69.228	 24.86736	 12.74069	  7.25711	 16.56966	  3.92843	  0.05416	 25.51310	710.71002	 34.90	
  8.006	 96.837	 24.83908	  9.61677	 10.18313	 17.26235	  3.41836	 -0.06054	 25.52068	710.70001	 34.90	
  7.997	124.550	 24.84940	  6.79824	 13.30473	 16.30736	  4.18893	 -0.09281	 25.51620	710.57001	 34.90	
  7.991	152.370	 24.91438	  4.86802	 15.78438	 14.00367	  6.10438	 -0.13511	 25.53478	710.65002	 34.90	
 12.009	161.059	 23.83854	  0.96047	 18.58571	 13.43483	  4.74561	 -0.69836	 25.51505	710.63000	 34.90	
 12.013	142.081	 23.78113	  2.31386	 16.57516	 16.34631	  2.38727	 -0.71816	 25.51340	710.69000	 34.90	
 12.006	123.113	 23.76221	  4.48802	 13.76899	 18.54483	  0.74689	 -0.64953	 25.53451	710.60999	 34.90	
 12.007	104.200	 23.73408	  7.29634	 10.56652	 19.69802	 -0.20472	 -0.65844	 25.52315	710.57001	 34.90	
 11.989	 85.301	 23.76917	 10.44481	  7.38188	 19.70665	 -0.20717	 -0.60988	 25.52661	710.65002	 34.90	
 12.013	 66.294	 23.79337	 13.68937	  4.55930	 18.55285	  0.62922	 -0.52577	 25.52532	710.60999	 34.90	
 12.012	 47.388	 23.83293	 16.49295	  2.40242	 16.40041	  2.28411	 -0.50014	 25.53163	710.63000	 34.90	
 11.990	 28.440	 23.88979	 18.51727	  1.01247	 13.46733	  4.69270	 -0.37787	 25.53445	710.59003	 34.90	
 11.991	  9.464	 23.96805	 19.45603	  0.47274	 10.27822	  7.65671	 -0.40701	 25.52787	710.59003	 34.90	
 11.991	 -9.464	 24.04076	 19.22116	  0.72061	  7.27242	 10.83049	 -0.44919	 25.51859	710.59998	 34.90	
 11.990	-28.440	 24.09697	 17.85216	  1.80564	  4.63113	 14.00923	 -0.50223	 25.52325	710.63000	 34.90	
 12.012	-47.388	 24.13542	 15.48337	  3.69500	  2.59617	 16.70276	 -0.57669	 25.52656	710.66998	 34.90	
 12.013	-66.294	 24.16570	 12.48243	  6.21861	  1.36365	 18.44681	 -0.57974	 25.53083	710.71997	 34.90	
 11.989	-85.301	 24.16482	  9.23248	  9.23955	  0.96647	 19.05558	 -0.62715	 25.52970	710.65002	 34.90	
 12.007	-104.200	 24.11971	  6.14087	 12.47023	  1.27774	 18.46203	 -0.62248	 25.53700	710.71002	 34.90	
 12.006	-123.113	 24.08347	  3.60684	 15.47740	  2.50176	 16.74383	 -0.64694	 25.54101	710.58002	 34.90	
 12.013	-142.081	 24.03484	  1.71800	 17.86724	  4.44759	 14.07674	 -0.65813	 25.53201	710.69000	 34.80	
 12.009	-161.059	 23.99209	  0.62353	 19.28117	  7.12033	 10.90385	 -0.68774	 25.53917	710.67999	 34.80	
 16.000	180.000	 22.39718	 -3.06381	 21.69769	  9.16136	  6.20721	 -1.10165	 25.52997	710.69000	 34.80	
 15.990	-165.604	 22.47575	 -2.87658	 21.58058	  6.06834	  9.46126	 -0.99672	 25.52033	710.65997	 34.80	
 16.002	-151.165	 22.52905	 -2.12340	 20.57295	  3.24509	 12.73375	 -0.88933	 25.53258	710.64001	 34.80	
 16.002	-136.836	 22.58208	 -0.83120	 18.69284	  0.96763	 15.73195	 -0.86423	 25.52581	710.58002	 34.80	
 15.995	-122.439	 22.61576	  0.97091	 16.14165	 -0.76377	 18.31693	 -0.79799	 25.53337	710.65002	 34.80	
 15.993	-107.966	 22.67456	  3.30043	 13.10606	 -1.92943	 20.21148	 -0.73264	 25.54965	710.66998	 34.80	
 16.005	-93.629	 22.70062	  6.18465	  9.86213	 -2.56463	 21.19960	 -0.75979	 25.53053	710.70001	 34.80	
 15.992	-79.234	 22.73348	  9.39277	  6.64979	 -2.57797	 21.27385	 -0.78277	 25.52982	710.71002	 34.80	
 16.009	-64.774	 22.72241	 12.59846	  3.70298	 -2.06962	 20.41233	 -0.80013	 25.53043	710.62000	 34.80	
 15.997	-50.364	 22.72797	 15.71006	  1.22154	 -0.95913	 18.63364	 -0.87678	 25.54545	710.59003	 34.80	
 15.997	-36.045	 22.66864	 18.34848	 -0.68643	  0.67042	 16.14889	 -0.91505	 25.53281	710.53998	 34.80	
 16.000	-21.597	 22.63894	 20.36898	 -2.00545	  3.00918	 13.11924	 -0.92229	 25.55136	710.54999	 34.80	
 16.003	 -7.169	 22.55626	 21.49613	 -2.80322	  5.75022	  9.86186	 -0.95369	 25.54211	710.63000	 34.70	
 16.003	  7.169	 22.47766	 21.71993	 -3.03964	  8.79354	  6.61857	 -0.96944	 25.53720	710.54999	 34.80	
 16.000	 21.597	 22.40767	 21.04826	 -2.68960	 12.02591	  3.59251	 -0.94109	 25.54977	710.65002	 34.70	
 15.997	 36.045	 22.33677	 19.48211	 -1.79219	 15.17815	  0.99207	 -1.03935	 25.54581	710.69000	 34.80	
 15.997	 50.364	 22.31141	 17.13742	 -0.30991	 17.93740	 -1.04388	 -1.16039	 25.55725	710.78003	 34.70	
 16.009	 64.774	 22.25871	 14.20446	  1.78055	 20.10224	 -2.48442	 -1.18516	 25.54190	710.71002	 34.70	
 15.992	 79.234	 22.23894	 11.00446	  4.37954	 21.48903	 -3.31085	 -1.21120	 25.54657	710.51001	 34.70	
 16.005	 93.629	 22.19286	  7.75907	  7.38223	 22.00830	 -3.70124	 -1.28974	 25.54528	710.51001	 34.70	
 15.993	107.966	 22.19530	  4.72504	 10.61362	 21.62415	 -3.40647	 -1.25409	 25.55116	710.69000	 34.70	
 15.995	122.439	 22.20954	  2.03238	 13.84100	 20.33845	 -2.60071	 -1.25549	 25.55381	710.54999	 34.70	
 16.002	136.836	 22.25085	 -0.07907	 16.79677	 18.22739	 -1.22287	 -1.29960	 25.55608	710.67999	 34.70	
 16.002	151.165	 22.29092	 -1.61373	 19.22291	 15.51216	  0.71714	 -1.25090	 25.55110	710.63000	 34.70	
 15.990	165.604	 22.36741	 -2.57658	 20.89373	 12.41898	  3.28587	 -1.17017	 25.54905	710.69000	 34.70	
 20.003	168.362	 20.39578	 -5.81124	 22.70420	 10.99588	  1.59929	 -1.34705	 25.55413	710.78003	 34.70	
 20.008	156.764	 20.32394	 -5.08916	 21.29426	 14.18075	 -0.84901	 -1.52356	 25.55424	710.59998	 34.70	
 20.000	145.147	 20.28424	 -4.00067	 19.22648	 17.12951	 -2.83353	 -1.65504	 25.57201	710.59998	 34.70	
 19.995	133.545	 20.22017	 -2.44928	 16.58427	 19.68627	 -4.47895	 -1.75699	 25.55770	710.70001	 34.70	
 20.009	121.926	 20.18860	 -0.42497	 13.56840	 21.65957	 -5.58087	 -1.80351	 25.55578	710.73999	 34.60	
 20.005	110.327	 20.17403	  2.06262	 10.35603	 23.03400	 -6.26867	 -1.84260	 25.55472	710.81000	 34.60	
 19.989	 98.733	 20.19118	  4.88835	  7.15370	 23.64668	 -6.60116	 -1.86914	 25.55895	710.70001	 34.60	
 19.999	 87.075	 20.20900	  8.00262	  4.05246	 23.54429	 -6.53378	 -1.85830	 25.56361	710.64001	 34.60	
 19.992	 75.457	 20.24119	 11.24607	  1.30389	 22.71612	 -6.04737	 -1.85146	 25.54580	710.65997	 34.60	
 20.009	 63.844	 20.26367	 14.42369	 -1.07235	 21.20016	 -5.21846	 -1.81017	 25.55972	710.60999	 34.60	
 19.989	 52.269	 20.31195	 17.32257	 -2.90831	 19.06103	 -4.03886	 -1.75506	 25.56331	710.63000	 34.60	
 19.999	 40.602	 20.32098	 19.83808	 -4.42769	 16.37235	 -2.44590	 -1.67820	 25.54851	710.64001	 34.60	
 20.004	 29.051	 20.39573	 21.76605	 -5.44677	 13.35693	 -0.24806	 -1.55031	 25.57281	710.73999	 34.60	
 20.005	 17.433	 20.44538	 23.00647	 -6.04597	 10.13266	  2.34711	 -1.45415	 25.55321	710.66998	 34.60	
 20.006	  5.780	 20.53208	 23.50196	 -6.22876	  6.98609	  5.35843	 -1.31378	 25.56239	710.69000	 34.60	
 20.006	 -5.780	 20.63086	 23.28428	 -6.04785	  4.01292	  8.48723	 -1.18283	 25.57180	710.65002	 34.60	
 20.005	-17.433	 20.71280	 22.30482	 -5.44681	  1.29051	 11.73343	 -1.09839	 25.57445	710.65997	 34.60	
 20.004	-29.051	 20.76782	 20.59062	 -4.43909	 -0.99525	 14.92394	 -0.99500	 25.56178	710.71997	 34.60	
 19.999	-40.602	 20.81702	 18.27321	 -3.05557	 -2.80471	 17.77581	 -0.87700	 25.56130	710.73999	 34.60	
 19.989	-52.269	 20.87782	 15.47584	 -1.15307	 -4.19478	 20.18785	 -0.78300	 25.58078	710.63000	 34.60	
 20.009	-63.844	 20.86338	 12.37519	  1.15973	 -5.13200	 21.92529	 -0.74099	 25.56860	710.59003	 34.60	
 19.992	-75.457	 20.87115	  9.17548	  3.91526	 -5.76993	 22.95841	 -0.67019	 25.57017	710.65002	 34.50	
 19.999	-87.075	 20.84064	  6.03366	  7.01885	 -5.83422	 23.20372	 -0.64988	 25.56562	710.65002	 34.50	
 19.989	-98.733	 20.81621	  3.06539	 10.26180	 -5.50837	 22.71849	 -0.66461	 25.57283	710.67999	 34.50	
 20.005	-110.327	 20.78894	  0.53758	 13.45239	 -4.88107	 21.49025	 -0.66020	 25.57861	710.64001	 34.50	
 20.009	-121.926	 20.73966	 -1.62895	 16.46817	 -3.79712	 19.59789	 -0.69590	 25.57778	710.67999	 34.50	
 19.995	-133.545	 20.68911	 -3.36405	 19.10968	 -2.30721	 17.06647	 -0.74691	 25.56234	710.73999	 34.50	
 20.000	-145.147	 20.67395	 -4.65303	 21.21977	 -0.31950	 14.12593	 -0.81518	 25.57801	710.70001	 34.50	
 20.008	-156.764	 20.61134	 -5.55365	 22.68466	  2.04699	 10.91766	 -0.91152	 25.57547	710.69000	 34.50	
 20.003	-168.362	 20.55246	 -6.12878	 23.43206	  4.79977	  7.62311	 -0.98711	 25.58549	710.70001	 34.50	
 20.000	180.000	 20.48445	 -6.19398	 23.44853	  7.81036	  4.54066	 -1.13855	 25.58651	710.70001	 34.50	
