FileType=PCF
NHL=14
Date=03/07/19	13:48:38
Facility=APL
Serial=16071-10
Customer=NASA
NP=6
Mach=0.380000
Calibration=1:1
CalPts=490
TstPts=95
PortNumbering=AP Standard
Units=Torr C m/s kg/m^3 deg mm 
Theta[deg]	Phi[deg]	P1[Torr]	P2[Torr]	P3[Torr]	P4[Torr]	P5[Torr]	P6[Torr]	Pt[Torr]	Ps[Abs,Torr]	Ts[C]	
  0.000	  0.000	 66.82693	 28.72340	 29.05708	 30.04150	 27.14687	  1.30765	 66.68235	710.72998	 43.40	
  1.691	128.401	 66.79527	 26.51604	 30.97770	 32.88831	 23.80958	  1.21609	 66.68768	710.90997	 43.40	
  1.692	 77.194	 66.78208	 29.66756	 27.78672	 33.46009	 23.34755	  1.32080	 66.66108	710.89001	 43.30	
  1.699	 26.182	 66.84996	 32.02221	 25.49951	 31.38827	 25.52841	  1.37721	 66.70787	710.81000	 43.30	
  1.699	-26.182	 66.83153	 31.75573	 25.79528	 28.15028	 28.98245	  1.32447	 66.67478	710.77002	 43.20	
  1.692	-77.194	 66.81819	 29.11539	 28.52864	 26.20934	 30.90052	  1.23693	 66.67197	710.79999	 43.20	
  1.691	-128.401	 66.78869	 26.07000	 31.57410	 27.10406	 29.92553	  1.16759	 66.63455	710.78998	 43.20	
  1.700	180.000	 66.76576	 24.84424	 32.69862	 30.03378	 26.79742	  1.15085	 66.64239	710.76001	 43.20	
  3.400	180.000	 66.64052	 21.05192	 36.11644	 30.02688	 26.20057	  0.89668	 66.66373	710.82001	 43.10	
  3.388	-152.325	 66.67727	 21.63459	 35.59057	 26.55638	 29.87006	  0.91115	 66.65790	710.87000	 43.10	
  3.397	-124.529	 66.73071	 23.66480	 33.56047	 23.88673	 32.81925	  0.94540	 66.66248	710.79999	 43.00	
  3.399	-96.763	 66.73544	 26.87603	 30.34419	 22.45949	 34.34468	  1.01419	 66.64196	710.83002	 43.00	
  3.394	-69.283	 66.70998	 30.36517	 26.76332	 22.60056	 34.16454	  1.10046	 66.59676	710.85999	 43.00	
  3.400	-41.398	 66.71885	 33.40137	 23.62394	 24.37498	 32.32344	  1.19944	 66.61945	710.83002	 42.90	
  3.401	-14.021	 66.67561	 35.22241	 21.89388	 27.33940	 29.21309	  1.27619	 66.60432	710.90997	 42.90	
  3.401	 14.021	 66.66571	 35.55877	 21.60955	 30.92142	 25.35711	  1.31074	 66.63039	710.79999	 42.90	
  3.400	 41.398	 66.59070	 34.12867	 22.76587	 34.11279	 22.21201	  1.28676	 66.60858	710.91998	 42.80	
  3.394	 69.283	 66.54038	 31.36246	 25.30349	 36.28315	 20.03772	  1.21990	 66.60582	710.87000	 42.80	
  3.399	 96.763	 66.48283	 27.83727	 28.78723	 36.80651	 19.34254	  1.11902	 66.57088	710.90002	 42.80	
  3.397	124.529	 66.51646	 24.35895	 32.26693	 35.77229	 20.29871	  1.01406	 66.58260	710.78998	 42.70	
  3.388	152.325	 66.52570	 22.02153	 34.81294	 33.29161	 22.65705	  0.92984	 66.58298	710.90002	 42.70	
  5.099	161.165	 66.17488	 17.94294	 38.43968	 33.30384	 21.80198	  0.52874	 66.60031	710.87000	 42.70	
  5.109	142.013	 66.09597	 19.68212	 36.29736	 36.42374	 18.79848	  0.60355	 66.57131	710.71997	 42.60	
  5.095	123.033	 66.08688	 22.36735	 33.33695	 38.71877	 16.72453	  0.69150	 66.59309	710.73999	 42.60	
  5.105	104.191	 66.07521	 25.67047	 29.80210	 40.06640	 15.64054	  0.79431	 66.58020	710.76001	 42.60	
  5.093	 85.207	 66.05410	 29.46087	 26.03980	 40.05328	 15.69552	  0.89710	 66.54184	710.66998	 42.50	
  5.104	 66.290	 66.13887	 32.96673	 22.81059	 38.96704	 16.79277	  1.00385	 66.59596	710.78003	 42.50	
  5.094	 47.331	 66.15228	 35.87754	 20.17406	 36.68752	 18.82738	  1.06398	 66.55727	710.69000	 42.50	
  5.089	 28.397	 66.21450	 37.99568	 18.47916	 33.69345	 21.73306	  1.12836	 66.55771	710.66998	 42.40	
  5.096	  9.576	 66.28099	 38.94998	 17.76099	 30.18817	 25.09890	  1.12622	 66.55996	710.70001	 42.40	
  5.096	 -9.576	 66.36057	 38.70191	 18.07127	 26.51233	 29.04191	  1.09142	 66.58080	710.71002	 42.40	
  5.089	-28.397	 66.41096	 37.17828	 19.41903	 23.41221	 32.52639	  1.02484	 66.57392	710.75000	 42.40	
  5.094	-47.331	 66.38345	 34.72586	 21.65295	 20.68515	 35.32937	  0.91886	 66.53626	710.78003	 42.30	
  5.104	-66.290	 66.41134	 31.54237	 24.64256	 19.02764	 37.14266	  0.82927	 66.54680	710.78003	 42.30	
  5.093	-85.207	 66.41198	 27.96506	 28.37602	 18.51850	 37.72118	  0.73894	 66.55053	710.79999	 42.30	
  5.105	-104.191	 66.36987	 24.29093	 32.02928	 19.01644	 37.17470	  0.66117	 66.53329	710.84003	 42.30	
  5.095	-123.033	 66.31918	 21.30658	 35.20341	 20.61272	 35.39207	  0.58878	 66.52065	710.71997	 42.20	
  5.109	-142.013	 66.25945	 18.95916	 37.64267	 23.05940	 32.66073	  0.54774	 66.49283	710.85999	 41.90	
  5.099	-161.165	 66.19402	 17.56389	 39.08542	 26.21325	 29.16243	  0.52976	 66.49885	710.78003	 41.90	
  5.100	180.000	 66.14008	 17.25434	 39.32218	 29.81889	 25.26729	  0.50611	 66.50269	710.83002	 41.80	
  6.800	180.000	 65.55743	 13.44694	 42.32966	 29.51215	 24.28503	  0.05596	 66.48450	710.84998	 41.80	
  6.796	-166.229	 65.64090	 13.61758	 42.26138	 26.02219	 28.10399	  0.07959	 66.51620	710.71997	 41.80	
  6.808	-152.311	 65.67267	 14.53963	 41.32965	 22.73981	 31.72831	  0.10169	 66.48914	710.76001	 41.70	
  6.795	-138.383	 65.73579	 16.17730	 39.65697	 19.90639	 34.90694	  0.12705	 66.48737	710.67999	 41.70	
  6.792	-124.591	 65.77299	 18.39109	 37.20718	 17.64854	 37.45040	  0.14757	 66.46283	710.78998	 41.70	
  6.787	-110.754	 65.81402	 21.21278	 34.18589	 15.97289	 39.41733	  0.20793	 66.46623	710.78998	 41.70	
  6.800	-96.985	 65.84175	 24.38823	 30.79250	 14.94083	 40.56888	  0.24192	 66.46197	710.81000	 41.70	
  6.800	-83.015	 65.87509	 27.95351	 27.14724	 14.69636	 40.81635	  0.28223	 66.46268	710.79999	 41.60	
  6.787	-69.246	 65.88231	 31.48928	 23.75452	 15.31044	 40.24826	  0.38407	 66.47240	710.85999	 41.60	
  6.792	-55.409	 65.88493	 34.77116	 20.63694	 16.54500	 38.86204	  0.46680	 66.47092	710.84003	 41.60	
  6.795	-41.617	 65.85414	 37.59384	 18.04646	 18.42959	 36.65060	  0.55630	 66.48713	710.78998	 41.60	
  6.808	-27.689	 65.79265	 39.91476	 15.99265	 21.00539	 33.73677	  0.65473	 66.46456	710.90997	 41.60	
  6.796	-13.771	 65.79317	 41.31311	 14.64214	 24.11221	 30.37345	  0.72168	 66.48677	710.84003	 41.60	
  6.800	  0.000	 65.71731	 42.00990	 13.99872	 27.33570	 26.67440	  0.77853	 66.47259	710.88000	 41.50	
  6.796	 13.771	 65.61254	 41.78213	 14.04481	 30.92452	 23.15546	  0.80836	 66.44325	710.83002	 41.50	
  6.808	 27.689	 65.53396	 40.70705	 14.76919	 34.34435	 19.89006	  0.79627	 66.44831	710.72998	 41.50	
  6.795	 41.617	 65.49917	 38.94361	 16.24811	 37.39014	 16.98372	  0.75907	 66.47874	710.82001	 41.50	
  6.792	 55.409	 65.40438	 36.31366	 18.41840	 39.92271	 14.71970	  0.69747	 66.43393	710.79999	 41.50	
  6.787	 69.246	 65.33356	 33.26053	 21.13714	 41.73400	 13.00512	  0.62778	 66.43364	710.82001	 41.50	
  6.800	 83.015	 65.28375	 29.83093	 24.20465	 42.94753	 11.94105	  0.53994	 66.41546	710.76001	 41.40	
  6.800	 96.985	 65.27512	 26.11726	 27.71511	 43.19641	 11.70165	  0.43856	 66.43147	710.85999	 41.40	
  6.787	110.754	 65.23763	 22.77846	 31.32582	 42.48782	 12.21762	  0.35829	 66.38558	710.88000	 41.40	
  6.792	124.591	 65.28274	 19.75056	 34.68857	 41.14454	 13.44035	  0.28488	 66.43868	710.78998	 41.40	
  6.795	138.383	 65.29684	 17.19785	 37.59166	 38.92932	 15.31725	  0.18986	 66.41071	710.87000	 41.40	
  6.808	152.311	 65.32722	 15.19811	 39.99881	 36.11725	 17.83204	 -0.08527	 66.39843	710.90002	 41.40	
  6.796	166.229	 65.38196	 13.94478	 41.46029	 32.85136	 20.94848	  0.07446	 66.39082	710.91998	 41.40	
  8.491	168.704	 64.57775	 10.02236	 44.64891	 32.53878	 19.86223	 -0.44679	 66.39796	710.88000	 41.30	
  8.502	157.493	 64.47036	 11.06632	 43.08698	 35.80844	 16.70060	 -0.73223	 66.35748	710.82001	 41.30	
  8.494	146.194	 64.46043	 12.75548	 41.05172	 38.94715	 13.96594	 -0.68754	 66.39200	710.89001	 41.30	
  8.495	135.039	 64.40729	 14.90393	 38.47056	 41.59138	 11.69475	 -0.26128	 66.38692	710.97998	 41.30	
  8.487	123.723	 64.40010	 17.50394	 35.44463	 43.73518	  9.85328	 -0.50547	 66.41132	710.91998	 41.30	
  8.492	112.575	 64.32127	 20.43446	 32.07879	 45.27072	  8.53117	 -0.13439	 66.38587	710.87000	 41.30	
  8.510	101.220	 64.34342	 23.84977	 28.32913	 46.16807	  7.92054	 -0.07258	 66.40469	710.90997	 41.20	
  8.500	 90.000	 64.36970	 27.35854	 24.75182	 46.26885	  7.91994	  0.00778	 66.39716	711.00000	 41.20	
  8.510	 78.780	 64.37190	 31.04642	 21.44027	 45.63008	  8.39097	  0.08168	 66.38490	710.96002	 41.20	
  8.492	 67.425	 64.44605	 34.55571	 18.38142	 44.15023	  9.60400	  0.12226	 66.38767	710.98999	 41.20	
  8.487	 56.277	 64.48076	 37.59198	 15.76187	 42.00478	 11.29913	  0.08281	 66.36420	711.09998	 41.20	
  8.495	 44.961	 64.58903	 40.39003	 13.50738	 39.57371	 13.55604	  0.30010	 66.42975	710.88000	 41.20	
  8.494	 33.806	 64.60415	 42.41207	 11.79506	 36.64871	 16.15103	  0.36795	 66.38899	710.96997	 41.20	
  8.502	 22.507	 64.66965	 44.11014	 10.58994	 33.42455	 19.19313	  0.39747	 66.36919	710.95001	 41.20	
  8.491	 11.296	 64.79768	 45.03495	 10.07977	 29.83718	 22.62168	  0.36099	 66.41154	711.00000	 41.10	
  8.500	  0.000	 64.86129	 45.12608	 10.18840	 26.17492	 26.05668	  0.35435	 66.38953	711.02002	 41.10	
  8.491	-11.296	 64.91718	 44.43956	 10.72878	 22.99067	 29.87036	  0.25462	 66.37420	710.92999	 41.10	
  8.502	-22.507	 64.95484	 43.12924	 11.85972	 19.83009	 33.39404	  0.22283	 66.35641	710.92999	 41.10	
  8.494	-33.806	 65.02219	 41.08467	 13.67059	 17.11601	 36.55456	  0.05010	 66.36559	711.02002	 41.10	
  8.495	-44.961	 65.04732	 38.63892	 15.83882	 14.85366	 39.25455	  0.01914	 66.36285	710.91998	 41.10	
  8.487	-56.277	 65.05887	 35.58881	 18.51881	 12.98621	 41.32194	 -0.04128	 66.34229	710.91998	 41.10	
  8.492	-67.425	 65.08794	 32.36324	 21.55259	 11.69443	 42.82935	 -0.11506	 66.37052	710.90002	 41.00	
  8.510	-78.780	 65.07888	 28.74154	 24.85553	 10.95634	 43.71936	 -0.21043	 66.37786	710.98999	 41.00	
  8.500	-90.000	 65.04742	 25.14578	 28.45333	 10.90833	 43.74520	 -0.27020	 66.36202	710.89001	 41.00	
  8.510	-101.220	 64.97921	 21.73222	 32.04653	 11.35580	 43.10663	 -0.30472	 66.33738	710.90002	 41.00	
  8.492	-112.575	 64.97987	 18.61758	 35.46031	 12.58919	 41.56756	 -0.40232	 66.36681	710.91998	 41.10	
  8.487	-123.723	 64.92027	 15.83620	 38.51039	 14.22045	 39.76829	 -0.42613	 66.35981	710.88000	 41.10	
  8.495	-135.039	 64.86372	 13.48826	 41.08300	 16.40784	 37.13036	 -0.40722	 66.33746	710.97998	 41.10	
  8.494	-146.194	 64.81297	 11.68015	 43.07597	 19.01598	 34.15142	 -0.38344	 66.33727	711.09998	 41.00	
  8.502	-157.493	 64.74081	 10.34415	 44.62911	 22.05171	 30.69092	 -0.40407	 66.34322	711.03003	 41.00	
  8.491	-168.704	 64.66092	  9.72164	 45.35660	 25.42527	 26.92327	 -0.44076	 66.30914	710.91998	 41.00	
  8.500	180.000	 64.57348	  9.61360	 45.35437	 28.95428	 23.22207	 -0.60635	 66.31143	710.92999	 41.00	
 10.200	180.000	 63.58430	  5.79113	 48.22876	 28.21327	 22.07827	 -1.47810	 66.33486	710.97998	 41.00	
 10.191	-170.497	 63.64624	  5.88564	 48.28039	 24.80020	 25.55002	 -1.01658	 66.32745	710.91998	 41.00	
 10.210	-161.034	 63.70003	  6.36445	 47.74031	 21.31820	 29.44756	 -0.98487	 66.31122	711.01001	 41.00	
 10.194	-151.526	 63.77012	  7.41063	 46.48903	 18.17546	 33.07603	 -1.28869	 66.31570	710.97998	 41.00	
 10.190	-142.105	 63.85418	  8.96613	 44.65506	 15.40115	 36.33086	 -1.20097	 66.33340	710.94000	 41.00	
 10.215	-132.646	 63.86824	 10.82615	 42.27715	 12.83575	 39.37432	 -0.96875	 66.30692	710.91998	 41.00	
 10.203	-123.092	 63.89100	 13.18921	 39.64355	 10.71303	 41.74181	 -1.22253	 66.30109	710.96002	 40.90	
 10.192	-113.678	 63.90535	 15.83716	 36.55944	  9.07902	 43.92455	 -1.18075	 66.25548	710.97998	 40.90	
 10.208	-104.249	 63.95275	 18.85774	 33.25156	  7.88972	 45.55581	 -1.03462	 66.26603	710.90002	 40.90	
 10.210	-94.801	 63.99403	 22.22430	 29.61057	  7.17776	 46.50704	 -0.88343	 66.25394	710.91998	 40.90	
 10.210	-85.199	 64.04854	 25.77654	 25.87289	  7.06626	 46.77835	 -0.83662	 66.27335	710.96002	 40.90	
 10.208	-75.751	 64.07094	 29.44988	 22.53789	  7.33445	 46.46704	 -0.96794	 66.26575	711.02002	 40.90	
 10.192	-66.322	 64.11089	 33.06256	 19.27878	  8.08200	 45.50300	 -0.88396	 66.30811	710.88000	 40.90	
 10.203	-56.908	 64.06928	 36.35719	 16.24966	  9.28821	 43.83145	 -0.80200	 66.29951	711.08002	 40.90	
 10.215	-47.354	 64.02148	 39.41957	 13.54858	 10.98009	 41.73257	 -0.61867	 66.26382	710.97998	 40.90	
 10.190	-37.895	 63.99471	 42.03480	 11.21689	 13.20805	 39.13206	 -0.76160	 66.25286	711.00000	 40.90	
 10.194	-28.474	 63.93613	 44.36413	  9.31630	 15.66461	 36.17384	 -0.49403	 66.24905	710.92999	 40.90	
 10.210	-18.966	 63.87408	 46.19991	  7.73575	 18.50767	 32.80548	 -0.30471	 66.24104	711.03003	 40.90	
 10.191	 -9.503	 63.83424	 47.34954	  6.77208	 21.68427	 29.12529	 -0.55523	 66.27509	710.90997	 40.90	
 10.200	  0.000	 63.74068	 47.96999	  6.18255	 25.03891	 25.34006	 -0.16583	 66.29502	711.00000	 40.90	
 10.191	  9.503	 63.61861	 47.88459	  6.13257	 28.51281	 21.80584	 -0.20299	 66.24339	710.95001	 40.90	
 10.210	 18.966	 63.51611	 47.19872	  6.49033	 32.19511	 18.35488	 -0.28301	 66.24558	710.98999	 40.90	
 10.194	 28.474	 63.44495	 45.76865	  7.49928	 35.61632	 15.23427	 -0.24006	 66.23643	711.06000	 40.90	
 10.190	 37.895	 63.35934	 43.80270	  8.85354	 38.70803	 12.46223	 -0.17389	 66.23489	711.07001	 40.80	
 10.215	 47.354	 63.30482	 41.45208	 10.60629	 41.58588	  9.90415	 -0.28098	 66.23232	711.06000	 40.80	
 10.203	 56.908	 63.26637	 38.65310	 12.88306	 44.16344	  7.76557	 -0.77326	 66.26606	710.96997	 40.80	
 10.192	 66.322	 63.20247	 35.54118	 15.47344	 46.27633	  6.09648	 -0.48931	 66.23817	710.90002	 40.80	
 10.208	 75.751	 63.11628	 32.11448	 18.41031	 47.85421	  4.83698	 -1.01982	 66.22572	710.98999	 40.80	
 10.210	 85.199	 63.12104	 28.40098	 21.67191	 48.79171	  4.11511	 -0.79178	 66.24673	711.02002	 40.80	
 10.210	 94.801	 63.09790	 24.83757	 25.16890	 49.10564	  3.85412	 -0.58648	 66.25636	711.01001	 40.80	
 10.208	104.249	 63.04613	 21.35074	 28.78185	 48.75274	  4.16691	 -1.20740	 66.21418	711.02002	 40.80	
 10.192	113.678	 63.05045	 18.10282	 32.45687	 47.70375	  4.91662	 -0.78962	 66.22324	711.01001	 40.80	
 10.203	123.092	 63.07055	 15.10123	 35.83877	 46.16202	  6.07750	 -1.24248	 66.19892	710.95001	 40.80	
 10.215	132.646	 63.11028	 12.41079	 39.03770	 44.00786	  7.78179	 -0.86733	 66.21000	710.94000	 40.80	
 10.190	142.105	 63.13633	 10.17563	 41.70490	 41.37659	 10.01949	 -1.32278	 66.15192	710.96002	 40.80	
 10.194	151.526	 63.21632	  8.37243	 44.10804	 38.49055	 12.50883	 -1.34612	 66.18678	711.02002	 40.80	
 10.210	161.034	 63.26724	  7.00130	 46.10867	 35.30188	 15.33575	 -1.27180	 66.18324	711.15997	 40.80	
 10.191	170.497	 63.35391	  6.12497	 47.45169	 31.81218	 18.59127	 -1.11868	 66.18096	711.00000	 40.80	
 11.899	171.783	 62.10297	  2.29411	 50.13345	 30.88902	 17.27465	 -2.00944	 66.18684	710.91998	 40.80	
 11.890	163.610	 62.03096	  3.14477	 48.91245	 34.46406	 14.06716	 -2.01241	 66.18534	710.98999	 40.80	
 11.889	155.445	 61.96754	  4.26373	 47.18873	 37.75964	 11.10790	 -1.94607	 66.19395	710.96997	 40.80	
 11.909	147.299	 61.85648	  5.65958	 44.92463	 40.88307	  8.41858	 -1.95543	 66.16023	711.03998	 40.80	
 11.902	139.148	 61.79278	  7.58447	 42.26099	 43.65444	  6.08960	 -1.97060	 66.15999	711.01001	 40.70	
 11.894	130.867	 61.74335	  9.92590	 39.41275	 46.28787	  4.08321	 -1.90368	 66.16130	711.07001	 40.70	
 11.897	122.732	 61.72807	 12.59318	 36.21973	 48.37349	  2.62045	 -1.80388	 66.17217	710.96997	 40.70	
 11.903	114.597	 61.70153	 15.59645	 32.78857	 49.94923	  1.25837	 -1.77952	 66.16837	710.89001	 40.70	
 11.893	106.346	 61.66667	 18.79058	 29.06117	 50.99363	  0.43752	 -1.79882	 66.14407	710.78998	 40.70	
 11.892	 98.155	 61.68268	 22.20535	 25.42123	 51.51865	 -0.01993	 -1.82510	 66.14543	711.03003	 40.70	
 11.900	 90.000	 61.71674	 25.67953	 21.90844	 51.51160	 -0.01899	 -1.80031	 66.16726	710.96002	 40.70	
 11.892	 81.845	 61.72724	 29.18882	 18.59401	 50.94300	  0.51934	 -1.69451	 66.16091	710.88000	 40.70	
 11.893	 73.654	 61.74354	 32.92588	 15.43524	 49.80912	  1.34727	 -1.58611	 66.12608	710.87000	 40.70	
 11.903	 65.403	 61.83164	 36.40463	 12.53103	 48.17072	  2.60758	 -1.50028	 66.14844	710.85999	 40.70	
 11.897	 57.268	 61.85718	 39.51102	  9.95203	 46.02385	  4.23140	 -1.50227	 66.12933	710.89001	 40.70	
 11.894	 49.133	 61.91978	 42.32371	  7.70005	 43.43030	  6.21763	 -1.50839	 66.16042	710.82001	 40.70	
 11.902	 40.852	 61.95715	 44.98186	  5.85987	 40.65649	  8.56031	 -1.39975	 66.15090	710.90002	 40.70	
 11.909	 32.701	 62.01529	 47.18035	  4.53807	 37.51979	 11.26306	 -1.22937	 66.14174	710.84003	 40.70	
 11.889	 24.555	 62.08598	 48.79828	  3.40024	 34.19623	 14.26925	 -1.13064	 66.12732	710.87000	 40.70	
 11.890	 16.390	 62.15636	 49.92172	  2.56269	 30.64956	 17.48838	 -1.16269	 66.12035	710.87000	 40.70	
 11.899	  8.217	 62.23001	 50.49039	  2.25564	 26.92453	 20.93136	 -1.22815	 66.10300	710.83002	 40.70	
 11.900	  0.000	 62.31807	 50.48938	  2.37691	 23.52865	 24.44209	 -0.86234	 66.08714	710.84998	 40.70	
 11.899	 -8.217	 62.45315	 50.00151	  3.03153	 20.25978	 28.02610	 -1.30885	 66.12708	710.84003	 40.70	
 11.890	-16.390	 62.51367	 48.93077	  3.97897	 17.07362	 31.94498	 -1.30129	 66.08523	710.81000	 40.70	
 11.889	-24.555	 62.64161	 47.37383	  5.14443	 14.18099	 35.46334	 -1.34116	 66.14613	710.89001	 40.70	
 11.909	-32.701	 62.61898	 45.27063	  6.65288	 11.50479	 38.59835	 -1.43233	 66.09637	710.98999	 40.70	
 11.902	-40.852	 62.67769	 42.69536	  8.62781	  9.16671	 41.47509	 -1.31201	 66.11394	710.79999	 40.70	
 11.894	-49.133	 62.71360	 39.92271	 11.06403	  7.18271	 43.90770	 -1.36175	 66.08797	710.73999	 40.70	
 11.897	-57.268	 62.76833	 36.78984	 13.82071	  5.59448	 46.14737	 -1.58250	 66.11376	710.84998	 40.70	
 11.903	-65.403	 62.77347	 33.46571	 16.79486	  4.51462	 47.77443	 -1.54934	 66.10337	710.78998	 40.70	
 11.893	-73.654	 62.75273	 29.81717	 19.97987	  3.67548	 48.87226	 -1.53447	 66.07791	710.82001	 40.70	
 11.892	-81.845	 62.75465	 26.14984	 23.41329	  3.15079	 49.38647	 -1.39638	 66.09569	710.84003	 40.70	
 11.900	-90.000	 62.71434	 22.63885	 26.74899	  3.22508	 49.32006	 -1.50204	 66.09705	710.82001	 40.70	
 11.892	-98.155	 62.67423	 19.28252	 30.50865	  3.71107	 48.78133	 -1.65955	 66.09675	710.87000	 40.70	
 11.893	-106.346	 62.63344	 16.03278	 34.10126	  4.50431	 47.64324	 -1.62543	 66.09991	710.84003	 40.70	
 11.903	-114.597	 62.55566	 12.97563	 37.45510	  5.65562	 45.92094	 -1.63130	 66.08882	710.90002	 40.70	
 11.897	-122.732	 62.50811	 10.34330	 40.51890	  7.29771	 43.67608	 -1.72982	 66.09757	710.84998	 40.70	
 11.894	-130.867	 62.48233	  8.05148	 43.17182	  9.20008	 41.22911	 -1.50595	 66.10780	710.91998	 40.70	
 11.902	-139.148	 62.43515	  5.97905	 45.79612	 11.51444	 38.29578	 -1.76732	 66.09122	710.79999	 40.70	
 11.909	-147.299	 62.39488	  4.41608	 47.87194	 14.20876	 35.10249	 -1.60100	 66.11478	710.88000	 40.70	
 11.889	-155.445	 62.28452	  3.22366	 49.31699	 17.12690	 31.61173	 -1.79318	 66.04950	710.79999	 40.70	
 11.890	-163.610	 62.23857	  2.38108	 50.31403	 20.31199	 27.88173	 -1.63420	 66.06831	710.83002	 40.70	
 11.899	-171.783	 62.14878	  1.85131	 50.76788	 23.70260	 24.15078	 -1.81015	 66.06341	710.79999	 40.70	
 11.900	180.000	 62.08143	  1.88694	 50.66465	 27.13217	 20.66096	 -2.08557	 66.06993	710.78003	 40.70	
 13.600	180.000	 60.61213	 -2.02287	 53.07103	 26.10559	 19.19728	 -2.47409	 66.07974	710.79999	 40.70	
 13.608	-172.853	 60.64212	 -2.04244	 53.23269	 22.65507	 22.59858	 -2.42789	 66.05584	710.76001	 40.70	
 13.611	-165.583	 60.70156	 -1.69548	 52.87197	 19.22578	 26.18767	 -2.27213	 66.04896	710.84003	 40.70	
 13.601	-158.353	 60.80400	 -0.97150	 52.04425	 16.03033	 29.96581	 -2.17554	 66.04491	710.91998	 40.70	
 13.609	-151.210	 60.88797	  0.10547	 50.78856	 13.07016	 33.59647	 -2.09300	 66.07407	710.88000	 40.70	
 13.611	-143.999	 60.91679	  1.45625	 48.97193	 10.20517	 37.02546	 -2.04400	 66.04710	710.79999	 40.70	
 13.601	-136.825	 60.96115	  3.12252	 46.74957	  7.72466	 40.18122	 -2.06107	 66.03657	710.84998	 40.70	
 13.596	-129.640	 61.02653	  5.29400	 44.08688	  5.63363	 42.75312	 -2.03802	 66.04252	710.90002	 40.70	
 13.611	-122.431	 61.04282	  7.41883	 41.28871	  3.77237	 45.52108	 -1.99128	 66.03335	710.89001	 40.70	
 13.604	-115.211	 61.06414	 10.07151	 38.16606	  2.15950	 47.79250	 -1.89392	 66.00847	710.83002	 40.70	
 13.595	-108.042	 61.15154	 12.96843	 34.87280	  1.00773	 49.60143	 -1.88465	 66.04956	710.98999	 40.70	
 13.607	-100.793	 61.16842	 16.11626	 31.27035	  0.05204	 50.90232	 -1.91540	 66.04108	710.89001	 40.70	
 13.601	-93.617	 61.19925	 19.42158	 27.44999	 -0.56117	 51.64981	 -1.94099	 66.01122	710.90002	 40.70	
 13.601	-86.383	 61.25714	 22.85564	 24.06255	 -0.83226	 51.95631	 -1.93223	 66.02317	710.81000	 40.80	
 13.607	-79.207	 61.27291	 26.38112	 20.64608	 -0.75081	 51.82096	 -1.92002	 66.02037	710.90997	 40.80	
 13.595	-71.958	 61.28381	 30.03369	 17.32296	 -0.18515	 51.13623	 -1.89657	 66.00121	710.84003	 40.80	
 13.604	-64.789	 61.29626	 33.70559	 14.20165	  0.66708	 50.00414	 -1.91700	 66.01853	710.78998	 40.80	
 13.611	-57.569	 61.26845	 37.10961	 11.20007	  1.81139	 48.32341	 -1.96083	 66.01618	710.83002	 40.80	
 13.596	-50.360	 61.24797	 40.30722	  8.44804	  3.32392	 46.15506	 -2.00637	 66.00205	710.85999	 40.80	
 13.601	-43.175	 61.17365	 43.09710	  6.14520	  5.14801	 43.56980	 -2.00590	 66.01566	710.84998	 40.80	
 13.611	-36.001	 61.14904	 45.85661	  4.20524	  7.19843	 40.97647	 -1.92205	 66.02837	710.88000	 40.70	
 13.609	-28.790	 61.10129	 48.19677	  2.40588	  9.73842	 37.83817	 -1.85562	 66.00639	710.76001	 40.70	
 13.601	-21.647	 61.07827	 50.06758	  0.88555	 12.53209	 34.51122	 -1.85162	 66.00553	710.76001	 40.70	
 13.611	-14.417	 60.99205	 51.50541	 -0.28645	 15.50106	 30.81607	 -1.86002	 66.01860	710.84003	 40.70	
 13.608	 -7.147	 60.90074	 52.43493	 -1.11594	 18.72497	 26.92224	 -1.86781	 66.02858	710.84998	 40.70	
 13.600	  0.000	 60.74471	 52.83363	 -1.58940	 21.96337	 23.37775	 -1.83511	 65.96905	710.82001	 40.70	
 13.608	  7.147	 60.68280	 52.88820	 -1.63903	 25.34872	 19.95836	 -1.82794	 66.00855	710.79999	 40.80	
 13.611	 14.417	 60.56171	 52.39495	 -1.41638	 28.87124	 16.49929	 -1.79579	 65.99386	710.84003	 40.80	
 13.601	 21.647	 60.49188	 51.42786	 -0.89221	 32.57734	 13.23468	 -1.76404	 65.97681	710.90002	 40.80	
 13.609	 28.790	 60.39477	 50.03233	 -0.04811	 36.05762	 10.13619	 -1.79571	 65.99514	710.95001	 40.80	
 13.611	 36.001	 60.33651	 48.15191	  1.19274	 39.34666	  7.61200	 -1.89787	 66.02075	710.87000	 40.80	
 13.601	 43.175	 60.27274	 45.74428	  2.94595	 42.29984	  4.77973	 -2.05049	 66.00394	710.84003	 40.80	
 13.596	 50.360	 60.21308	 43.01121	  4.95499	 45.07492	  2.57874	 -2.11448	 65.98198	710.82001	 40.80	
 13.611	 57.569	 60.11563	 40.15200	  6.99464	 47.70055	  0.61079	 -2.13134	 65.95912	710.79999	 40.80	
 13.604	 64.789	 60.10259	 36.96617	  9.37693	 49.87284	 -0.96543	 -2.18764	 65.99535	710.90002	 40.80	
 13.595	 71.958	 60.00056	 33.49419	 12.21982	 51.50028	 -2.23093	 -2.22177	 65.92448	710.88000	 40.80	
 13.607	 79.207	 59.98291	 29.75554	 15.29042	 52.81444	 -3.21018	 -2.30456	 65.98975	710.82001	 40.80	
 13.601	 86.383	 59.93745	 26.20405	 18.52563	 53.54601	 -3.82423	 -2.35087	 65.96367	710.78003	 40.80	
 13.601	 93.617	 59.91538	 22.69515	 21.93839	 53.80931	 -3.99590	 -2.41112	 65.96854	710.84003	 40.80	
 13.607	100.793	 59.89267	 19.28598	 25.43427	 53.62056	 -3.89506	 -2.43091	 65.96677	710.88000	 40.80	
 13.595	108.042	 59.85333	 15.99029	 29.02203	 52.91677	 -3.29161	 -2.40429	 65.89190	710.84003	 40.80	
 13.604	115.211	 59.93113	 12.93035	 32.74828	 51.87978	 -2.44723	 -2.40586	 65.95271	710.85999	 40.80	
 13.611	122.431	 59.97234	  9.98653	 36.24746	 50.28397	 -1.26938	 -2.44091	 65.94736	710.83002	 40.80	
 13.596	129.640	 60.00073	  7.31790	 39.52636	 48.18543	  0.25961	 -2.48155	 65.93063	710.77002	 40.80	
 13.601	136.825	 59.99033	  5.10144	 42.41051	 45.74114	  2.12928	 -2.55229	 65.91743	710.83002	 40.80	
 13.611	143.999	 60.04329	  2.97793	 45.20364	 42.86996	  4.48756	 -2.57399	 65.91885	710.81000	 40.80	
 13.609	151.210	 60.17987	  1.30669	 47.75891	 39.91887	  6.69575	 -2.52669	 65.97433	710.82001	 40.80	
 13.601	158.353	 60.21124	 -0.11931	 49.74965	 36.67116	  9.48326	 -2.49067	 65.92369	710.79999	 40.80	
 13.611	165.583	 60.29475	 -1.15939	 51.31229	 33.26133	 12.49194	 -2.53164	 65.94645	710.79999	 40.80	
 13.608	172.853	 60.36515	 -1.73511	 52.37437	 29.54003	 15.82205	 -2.51142	 65.92220	710.65002	 40.80	
 15.298	173.587	 58.69272	 -5.66939	 54.65943	 28.21045	 14.22166	 -2.87930	 65.93755	710.71002	 40.80	
 15.291	167.167	 58.62359	 -5.11826	 53.61134	 31.88883	 10.98709	 -2.96839	 65.94608	710.71997	 40.80	
 15.307	160.676	 58.53239	 -4.24875	 52.17600	 35.46703	  7.87543	 -3.00349	 65.95305	710.71997	 40.80	
 15.300	154.261	 58.43797	 -3.03465	 50.35273	 38.77346	  5.38579	 -3.01609	 65.94399	710.75000	 40.80	
 15.288	147.854	 58.41196	 -1.54326	 48.13213	 41.99104	  2.71460	 -3.09758	 65.98739	710.77002	 40.80	
 15.293	141.428	 58.31634	  0.28826	 45.41281	 44.86730	  0.21877	 -3.16488	 65.93489	710.75000	 40.80	
 15.299	134.985	 58.27997	  2.38520	 42.54173	 47.66502	 -1.81883	 -3.12626	 65.94147	710.91998	 40.80	
 15.305	128.583	 58.22107	  4.91223	 39.48415	 50.11034	 -3.63365	 -3.06820	 65.94912	710.78998	 40.80	
 15.309	122.142	 58.15625	  7.54804	 36.16894	 52.10627	 -5.07436	 -3.00474	 65.93807	710.87000	 40.80	
 15.304	115.711	 58.14489	 10.20174	 32.61795	 53.70991	 -6.11598	 -3.03062	 65.97267	710.76001	 40.80	
 15.297	109.291	 58.14487	 13.26980	 28.93477	 54.91428	 -6.91834	 -3.03004	 65.96890	710.78998	 40.80	
 15.293	102.897	 58.10732	 16.43108	 25.39827	 55.65703	 -7.54793	 -3.02895	 65.93590	710.87000	 40.80	
 15.293	 96.458	 58.16841	 19.89884	 21.88782	 55.99929	 -7.67664	 -3.05802	 65.97258	710.78003	 40.80	
 15.300	 90.000	 58.19033	 23.27856	 18.52844	 55.91068	 -7.60380	 -3.00879	 65.96249	710.77002	 40.80	
 15.293	 83.542	 58.19221	 26.76245	 15.18653	 55.39210	 -7.39322	 -2.93792	 65.94901	710.84998	 40.80	
 15.293	 77.103	 58.24323	 30.30079	 12.00467	 54.42350	 -6.68063	 -2.90852	 65.96006	710.83002	 40.80	
 15.297	 70.709	 58.25876	 33.97276	  9.13811	 53.07610	 -5.75651	 -2.87347	 65.92736	710.71997	 40.80	
 15.304	 64.289	 58.30702	 37.42185	  6.64610	 51.40477	 -4.55435	 -2.82556	 65.93781	710.78003	 40.90	
 15.309	 57.858	 58.34683	 40.69539	  4.11795	 49.24569	 -2.94320	 -2.78406	 65.94807	710.87000	 40.90	
 15.305	 51.417	 58.39446	 43.56925	  1.84296	 46.66867	 -1.04149	 -2.76435	 65.93708	710.72998	 40.90	
 15.299	 45.015	 58.44619	 46.39754	 -0.18843	 43.78687	  1.11765	 -2.70563	 65.92306	710.84998	 40.90	
 15.293	 38.572	 58.49638	 48.89719	 -1.91577	 40.89011	  3.48169	 -2.60641	 65.91956	710.83002	 40.90	
 15.288	 32.146	 58.56086	 50.98881	 -3.30307	 37.70763	  6.33237	 -2.44659	 65.93490	710.77002	 40.90	
 15.300	 25.739	 58.62611	 52.62765	 -4.31645	 34.28429	  9.02725	 -2.39278	 65.92690	710.81000	 40.90	
 15.307	 19.324	 58.72552	 53.89746	 -4.99389	 30.67924	 12.09950	 -2.38908	 65.93750	710.77002	 40.90	
 15.291	 12.833	 58.80883	 54.75699	 -5.36724	 27.12924	 15.43117	 -2.35090	 65.92635	710.78003	 40.90	
 15.298	  6.413	 58.89492	 55.14197	 -5.44008	 23.60245	 18.83641	 -2.36632	 65.89944	710.75000	 40.90	
 15.300	  0.000	 58.98798	 55.11090	 -5.36743	 20.27114	 22.21524	 -2.36930	 65.90479	710.76001	 40.90	
 15.298	 -6.413	 59.13103	 54.70436	 -5.04576	 17.02195	 25.73799	 -2.34218	 65.93476	710.70001	 40.90	
 15.291	-12.833	 59.23499	 53.78826	 -4.27227	 13.81500	 29.32967	 -2.27288	 65.92827	710.85999	 40.90	
 15.307	-19.324	 59.33805	 52.51500	 -3.25423	 10.76843	 33.29008	 -2.26184	 65.95648	710.87000	 40.90	
 15.300	-25.739	 59.38669	 50.83432	 -2.06745	  8.19723	 36.76736	 -2.19454	 65.95230	710.90002	 40.90	
 15.288	-32.146	 59.39207	 48.66936	 -0.47527	  5.59068	 39.99498	 -2.19608	 65.88727	710.78003	 40.90	
 15.293	-38.572	 59.45298	 46.10548	  1.54780	  3.08720	 42.94097	 -2.21438	 65.90578	710.84003	 40.90	
 15.299	-45.015	 59.51574	 43.30348	  3.73601	  1.11683	 45.63359	 -2.20841	 65.91605	710.70001	 40.90	
 15.305	-51.417	 59.54909	 40.39306	  6.12348	 -0.57153	 48.18346	 -2.16140	 65.91897	710.71997	 40.90	
 15.309	-57.858	 59.57605	 37.20240	  8.45824	 -1.87434	 50.29561	 -2.07932	 65.94076	710.07001	 40.90	
 15.304	-64.289	 59.55926	 33.67590	 11.45047	 -2.98830	 51.90449	 -2.02421	 65.89896	710.71997	 40.90	
 15.297	-70.709	 59.56482	 29.95981	 14.54488	 -3.84662	 53.07647	 -1.99025	 65.90993	710.78998	 40.90	
 15.293	-77.103	 59.58348	 26.45667	 17.84868	 -4.36207	 53.87536	 -1.96094	 65.93082	710.78003	 40.90	
 15.293	-83.542	 59.51590	 22.84993	 21.19929	 -4.57285	 54.16907	 -1.99677	 65.85843	710.67999	 40.90	
 15.300	-90.000	 59.54360	 19.46434	 24.65784	 -4.50343	 54.10226	 -1.97937	 65.91627	710.73999	 40.90	
 15.293	-96.458	 59.46584	 16.15496	 28.03440	 -4.10994	 53.49783	 -1.97464	 65.89240	710.71002	 40.90	
 15.293	-102.897	 59.37189	 12.89860	 31.76933	 -3.50533	 52.56746	 -1.92856	 65.88050	710.83002	 40.90	
 15.297	-109.291	 59.34487	  9.86049	 35.29231	 -2.59965	 51.26828	 -1.93355	 65.89915	710.72998	 40.90	
 15.304	-115.711	 59.28066	  7.31759	 38.64388	 -1.42823	 49.44506	 -1.93848	 65.89737	710.84003	 40.90	
 15.309	-122.142	 59.19695	  4.68829	 41.71963	  0.11371	 47.15542	 -2.01504	 65.84914	710.84003	 40.90	
 15.305	-128.583	 59.21333	  2.23345	 44.62651	  2.00291	 44.45259	 -2.07289	 65.88138	710.78998	 40.90	
 15.299	-134.985	 59.19174	  0.27910	 47.35378	  4.00643	 41.74432	 -2.15650	 65.86449	710.78998	 40.90	
 15.293	-141.428	 59.16086	 -1.49289	 49.74323	  6.33503	 38.71902	 -2.13288	 65.90834	710.71997	 40.90	
 15.288	-147.854	 59.10343	 -2.95090	 51.69711	  8.87152	 35.37755	 -2.17434	 65.90295	710.73999	 40.90	
 15.300	-154.261	 59.02787	 -4.15275	 53.18797	 11.75287	 31.75882	 -2.24516	 65.88054	710.71002	 40.90	
 15.307	-160.676	 58.94682	 -4.99568	 54.39384	 14.82892	 27.68176	 -2.34125	 65.89580	710.73999	 40.90	
 15.291	-167.167	 58.83602	 -5.66312	 55.11707	 18.06686	 24.36534	 -2.49252	 65.87160	710.78998	 40.90	
 15.298	-173.587	 58.76950	 -5.84370	 55.38960	 21.42348	 20.83841	 -2.64369	 65.85306	710.82001	 40.90	
 15.300	180.000	 58.69692	 -5.83169	 55.20879	 24.73484	 17.48912	 -2.74202	 65.86233	710.84998	 40.90	
 17.000	180.000	 56.77033	 -9.66172	 57.29801	 23.31442	 15.77338	 -2.85728	 65.86240	710.82001	 40.90	
 16.990	-174.179	 56.84968	 -9.75061	 57.50263	 20.16798	 18.91120	 -2.68850	 65.87766	710.71002	 40.90	
 17.009	-168.383	 56.84575	 -9.72620	 57.26247	 16.75603	 22.38329	 -2.53132	 65.82816	710.81000	 40.90	
 17.000	-162.596	 56.98918	 -9.19560	 56.67233	 13.52704	 25.98464	 -2.40892	 65.88319	710.75000	 40.90	
 16.990	-156.759	 57.12199	 -8.20159	 55.61544	 10.51683	 29.36692	 -2.25332	 65.89536	710.63000	 40.90	
 16.995	-150.919	 57.14942	 -7.23821	 54.15723	  7.66893	 33.41111	 -2.16865	 65.86298	710.79999	 40.90	
 16.988	-145.161	 57.18789	 -5.91059	 52.39711	  4.88502	 36.88506	 -2.09432	 65.83538	710.67999	 40.90	
 17.014	-139.343	 57.23388	 -4.41707	 50.37683	  2.49691	 40.12793	 -2.06047	 65.83769	710.62000	 40.90	
 17.007	-133.546	 57.30667	 -2.62487	 47.88303	  0.36923	 43.05642	 -2.03293	 65.85611	710.75000	 40.90	
 17.001	-127.699	 57.29268	 -0.64695	 45.03669	 -1.58563	 46.00346	 -1.93984	 65.82557	710.77002	 40.90	
 17.006	-121.937	 57.33743	  1.61130	 42.11784	 -3.28030	 48.63601	 -1.88590	 65.84729	709.95001	 40.90	
 17.002	-116.134	 57.41323	  4.15325	 39.02391	 -4.77438	 50.86665	 -1.84838	 65.84569	710.33002	 40.90	
 17.001	-110.310	 57.47416	  7.08390	 35.63291	 -6.11514	 52.69613	 -1.85271	 65.84827	710.77002	 40.90	
 16.988	-104.517	 57.49348	  9.83992	 32.08842	 -7.03411	 54.16560	 -1.83291	 65.82792	710.04999	 40.90	
 17.008	-98.662	 57.51353	 12.82538	 28.38073	 -7.81651	 55.34389	 -1.82436	 65.83008	710.70001	 40.90	
 16.996	-92.909	 57.58987	 16.11911	 24.93751	 -8.31080	 56.10130	 -1.84764	 65.84566	709.98999	 40.90	
 16.996	-87.091	 57.62023	 19.47228	 21.46234	 -8.44907	 56.43179	 -1.85238	 65.82312	709.90002	 40.90	
 17.012	-81.253	 57.63344	 22.75446	 18.17985	 -8.40686	 56.36592	 -1.87080	 65.84100	710.08002	 40.90	
 16.988	-75.483	 57.69157	 26.20528	 14.90147	 -8.21912	 55.88276	 -1.89189	 65.86064	709.91998	 40.90	
 17.001	-69.690	 57.67610	 29.81290	 11.67192	 -7.60403	 54.95235	 -1.94802	 65.84496	709.96997	 40.90	
 17.002	-63.866	 57.65898	 33.46159	  8.76306	 -6.77045	 53.64639	 -2.00911	 65.84909	710.15002	 40.90	
 17.006	-58.063	 57.60765	 36.98081	  6.09487	 -5.79580	 52.08416	 -2.02966	 65.84897	710.70001	 40.90	
 17.001	-52.301	 57.61066	 40.19747	  3.49987	 -4.49042	 50.05264	 -2.12506	 65.84560	710.65997	 40.90	
 17.007	-46.454	 57.59700	 43.29738	  1.04201	 -2.88477	 47.59417	 -2.17664	 65.86537	710.73999	 40.90	
 17.014	-40.657	 57.51604	 46.21955	 -1.23059	 -1.02926	 44.71750	 -2.24096	 65.84277	710.84003	 40.90	
 16.988	-34.839	 57.51361	 48.88394	 -3.12780	  1.18843	 42.01873	 -2.31715	 65.86325	710.79999	 40.90	
 16.995	-29.081	 57.47784	 51.19268	 -4.81068	  3.60838	 38.86773	 -2.35114	 65.86392	710.41998	 41.00	
 16.990	-23.241	 57.43670	 53.11842	 -6.19013	  6.44979	 35.41263	 -2.40243	 65.84054	710.75000	 40.90	
 17.000	-17.404	 57.34742	 54.71853	 -7.34479	  9.31964	 31.66927	 -2.45655	 65.86149	710.00000	 41.00	
 17.009	-11.617	 57.20915	 55.92077	 -8.28609	 11.99926	 27.98281	 -2.53849	 65.81577	710.79999	 41.00	
 16.990	 -5.821	 57.16176	 56.78291	 -8.93053	 15.25132	 24.35782	 -2.65908	 65.85234	710.76001	 41.00	
 17.000	  0.000	 57.03055	 57.20351	 -9.25264	 18.53939	 20.79435	 -2.72919	 65.84869	710.81000	 41.00	
 16.990	  5.821	 56.95631	 57.24311	 -9.26967	 21.74233	 17.58752	 -2.87228	 65.87914	710.77002	 41.00	
 17.009	 11.617	 56.83324	 56.95341	 -9.33259	 25.20852	 14.14880	 -2.87370	 65.88535	710.07001	 41.00	
 17.000	 17.404	 56.74370	 56.18253	 -8.97223	 28.69344	 10.85497	 -2.90531	 65.87435	710.07001	 41.00	
 16.990	 23.241	 56.64206	 54.98996	 -8.40925	 32.28693	  8.07766	 -2.97587	 65.84460	710.21002	 41.00	
 16.995	 29.081	 56.55658	 53.45426	 -7.53459	 35.85117	  4.86515	 -3.04045	 65.86423	710.83002	 41.00	
 16.988	 34.839	 56.50867	 51.63446	 -6.38058	 39.13074	  2.19494	 -3.13028	 65.86219	710.15997	 41.00	
 17.014	 40.657	 56.41498	 49.42747	 -5.01485	 42.23449	 -0.32186	 -3.27981	 65.85879	710.79999	 41.00	
 17.007	 46.454	 56.37368	 46.82778	 -3.25762	 45.22795	 -2.66518	 -3.37249	 65.87186	709.97998	 41.00	
 17.001	 52.301	 56.29265	 43.86188	 -1.22608	 48.03451	 -4.72045	 -3.39915	 65.82659	710.41998	 41.00	
 17.006	 58.063	 56.23038	 40.93952	  1.04067	 50.47625	 -6.45570	 -3.43686	 65.80150	710.04999	 41.00	
 17.002	 63.866	 56.26138	 37.68569	  3.54807	 52.61202	 -7.96809	 -3.44124	 65.84159	710.77002	 41.00	
 17.001	 69.690	 56.21333	 34.20199	  6.23668	 54.40081	 -9.22798	 -3.48178	 65.82723	710.48999	 41.00	
 16.988	 75.483	 56.16976	 30.51894	  9.06452	 55.87012	-10.18180	 -3.51594	 65.86396	709.90002	 41.00	
 17.012	 81.253	 56.07943	 27.00630	 11.73104	 56.98735	-11.00116	 -3.55353	 65.83450	710.01001	 41.00	
 16.996	 87.091	 56.05869	 23.44880	 15.03105	 57.67355	-11.45303	 -3.60694	 65.84057	710.60999	 41.00	
 16.996	 92.909	 56.06686	 20.18736	 18.24228	 57.94598	-11.36162	 -3.71437	 65.84663	710.72998	 41.00	
 17.008	 98.662	 56.02398	 16.90785	 21.46383	 57.92518	-11.51402	 -3.71430	 65.87542	709.96997	 41.00	
 16.988	104.517	 56.01070	 13.48675	 25.08425	 57.40722	-11.18121	 -3.61168	 65.83657	710.04999	 41.00	
 17.001	110.310	 56.01907	 10.65924	 28.61439	 56.56517	-10.59113	 -3.61798	 65.84988	710.71997	 41.00	
 17.002	116.134	 56.03677	  7.67957	 32.33176	 55.27345	 -9.74763	 -3.55127	 65.83305	710.28003	 41.00	
 17.006	121.937	 56.03844	  4.82959	 35.87167	 53.60663	 -8.71040	 -3.52561	 65.79365	710.03003	 41.00	
 17.001	127.699	 56.09967	  2.28965	 39.19937	 51.69638	 -7.38064	 -3.54216	 65.82161	710.01001	 41.00	
 17.007	133.546	 56.13653	 -0.11753	 42.37304	 49.34043	 -5.73554	 -3.55547	 65.81643	710.03998	 41.00	
 17.014	139.343	 56.19048	 -2.42060	 45.33969	 46.64552	 -3.85205	 -3.59478	 65.84684	710.28003	 41.00	
 16.988	145.161	 56.27624	 -4.22141	 48.10456	 43.66909	 -1.65267	 -3.55117	 65.82779	710.20001	 41.00	
 16.995	150.919	 56.33814	 -5.80105	 50.51191	 40.67170	  0.77549	 -3.41074	 65.82116	710.08002	 41.00	
 16.990	156.759	 56.42253	 -7.18032	 52.59610	 37.39040	  3.50543	 -3.29777	 65.81814	709.96997	 41.00	
 17.000	162.596	 56.48337	 -8.27965	 54.29914	 33.87892	  6.49513	 -3.28227	 65.80467	710.47998	 41.00	
 17.009	168.383	 56.54487	 -9.04783	 55.71042	 30.25864	  9.18945	 -3.15975	 65.79107	710.78003	 41.00	
 16.990	174.179	 56.66706	 -9.56312	 56.69126	 26.74430	 12.44448	 -2.98587	 65.82628	710.70001	 41.00	
 18.709	174.675	 54.46338	-13.46527	 58.60260	 25.07387	 10.70757	 -3.00181	 65.82662	710.46997	 41.00	
 18.703	169.441	 54.38115	-12.97228	 57.64412	 28.61025	  7.63870	 -3.22637	 65.79314	710.87000	 41.00	
 18.691	164.085	 54.36866	-12.19376	 56.38847	 32.20568	  4.56300	 -3.33712	 65.82782	710.75000	 41.00	
 18.706	158.818	 54.25074	-11.21968	 54.75015	 35.76007	  1.64458	 -3.46191	 65.80450	710.66998	 41.00	
 18.695	153.537	 54.16969	 -9.88595	 52.72760	 39.11701	 -0.98414	 -3.59497	 65.76820	710.35999	 41.00	
 18.704	148.255	 54.13631	 -8.37751	 50.55019	 42.28148	 -3.16224	 -3.70179	 65.81638	710.81000	 41.00	
 18.698	142.952	 54.08012	 -6.67141	 47.98053	 45.31517	 -5.32854	 -3.80823	 65.82320	710.03998	 41.00	
 18.699	137.625	 53.98841	 -4.78285	 45.00870	 48.22924	 -7.36406	 -3.86477	 65.79372	710.06000	 41.00	
 18.705	132.343	 53.92518	 -2.65753	 42.08860	 50.81480	 -9.10964	 -3.92037	 65.79630	710.01001	 41.00	
 18.713	127.067	 53.92978	 -0.34536	 38.92835	 53.05894	-10.60759	 -3.94461	 65.82450	710.66998	 41.00	
 18.700	121.794	 53.88089	  2.16564	 35.52099	 54.95294	-11.84508	 -3.98080	 65.77776	710.04999	 41.00	
 18.698	116.504	 53.83039	  4.84384	 31.85041	 56.67739	-12.89386	 -4.07732	 65.80481	710.02002	 41.10	
 18.707	111.165	 53.79713	  7.78155	 28.24339	 58.03065	-13.91697	 -4.11507	 65.78002	709.95001	 41.10	
 18.690	105.863	 53.76636	 10.90345	 24.64144	 58.95974	-14.60208	 -4.18154	 65.75085	710.85999	 41.10	
 18.696	100.583	 53.77575	 13.83212	 21.08013	 59.52286	-14.99353	 -4.19976	 65.77673	710.78003	 41.10	
 18.700	 95.309	 53.76944	 17.16840	 17.58708	 59.74962	-15.13778	 -4.26541	 65.74554	710.12000	 41.10	
 18.700	 90.000	 53.82385	 19.99692	 14.80393	 59.68938	-15.28687	 -4.16701	 65.78516	710.09998	 41.10	
 18.700	 84.691	 53.82447	 23.52145	 11.60719	 59.17144	-15.03998	 -4.11235	 65.74847	710.15997	 41.10	
 18.696	 79.417	 53.83519	 27.11785	  8.64981	 58.28547	-14.49871	 -4.05688	 65.72999	710.07001	 41.10	
 18.690	 74.137	 53.93718	 30.63389	  5.75280	 57.14643	-13.71563	 -3.99380	 65.77935	710.07001	 41.10	
 18.707	 68.835	 53.99880	 34.27566	  2.98715	 55.61345	-12.72462	 -3.98576	 65.77699	710.16998	 41.10	
 18.698	 63.496	 54.03330	 37.82125	  0.42838	 53.71333	-11.35813	 -3.92327	 65.76262	710.09003	 41.10	
 18.700	 58.206	 54.04020	 41.10131	 -1.99247	 51.54329	 -9.83561	 -3.92890	 65.74168	710.15002	 41.10	
 18.713	 52.933	 54.09404	 44.07721	 -4.16720	 49.13005	 -8.08945	 -3.92896	 65.76924	710.09003	 41.10	
 18.705	 47.657	 54.14025	 47.03261	 -6.15494	 46.40738	 -6.15436	 -3.88057	 65.80885	710.15997	 41.10	
 18.699	 42.375	 54.18254	 49.72808	 -7.93740	 43.39605	 -3.96542	 -3.84856	 65.78864	710.15997	 41.10	
 18.698	 37.048	 54.28194	 52.08763	 -9.47280	 40.33140	 -1.59159	 -3.73871	 65.80739	710.13000	 41.10	
 18.704	 31.745	 54.33614	 54.07779	-10.72154	 37.05386	  0.89395	 -3.61479	 65.76762	710.14001	 41.10	
 18.695	 26.463	 54.42029	 55.79086	-11.73019	 33.64743	  3.67211	 -3.51710	 65.77120	710.14001	 41.10	
 18.706	 21.182	 54.46072	 57.16269	-12.43962	 29.99891	  6.73449	 -3.44772	 65.77458	710.12000	 41.10	
 18.691	 15.915	 54.55902	 58.16579	-12.96710	 26.57383	  9.90497	 -3.29003	 65.78254	710.15002	 41.10	
 18.703	 10.559	 54.59067	 58.81608	-13.22918	 23.01516	 12.80048	 -3.22328	 65.75257	710.09003	 41.10	
 18.709	  5.325	 54.71923	 59.16857	-13.23726	 19.58373	 16.17686	 -3.20762	 65.78762	710.09003	 41.10	
 18.700	  0.000	 54.79440	 59.04089	-13.11546	 16.65306	 19.14182	 -2.90238	 65.75941	710.19000	 41.10	
 18.709	 -5.325	 54.91940	 58.66753	-12.80063	 13.34975	 22.73797	 -2.76314	 65.77878	710.07001	 41.10	
 18.703	-10.559	 55.05596	 57.91100	-12.21673	 10.47830	 26.34865	 -2.63077	 65.79371	710.08002	 41.10	
 18.691	-15.915	 55.19337	 56.72822	-11.31764	  7.47474	 29.99704	 -2.48916	 65.79684	710.08002	 41.10	
 18.706	-21.182	 55.26650	 55.19223	-10.24629	  4.49352	 33.73977	 -2.37868	 65.77460	709.89001	 41.10	
 18.695	-26.463	 55.32066	 53.37035	 -8.98150	  1.87705	 37.30412	 -2.27754	 65.75827	709.94000	 41.10	
 18.704	-31.745	 55.33991	 51.28387	 -7.52964	 -0.63708	 40.57153	 -2.21127	 65.78479	710.00000	 41.10	
 18.698	-37.048	 55.39182	 48.82662	 -5.76888	 -2.85165	 43.60123	 -2.12404	 65.77158	710.03003	 41.10	
 18.699	-42.375	 55.39738	 46.01358	 -3.82938	 -4.84128	 46.43225	 -2.02481	 65.74946	709.97998	 41.20	
 18.705	-47.657	 55.43980	 43.03956	 -1.61387	 -6.54698	 49.17912	 -1.95955	 65.73953	710.08002	 41.20	
 18.713	-52.933	 55.47131	 39.94850	  0.75475	 -8.05777	 51.52108	 -1.91337	 65.72210	709.96002	 41.20	
 18.700	-58.206	 55.50550	 36.69119	  3.34748	 -9.30828	 53.44363	 -1.90073	 65.74516	710.09003	 41.20	
 18.698	-63.496	 55.53441	 33.13377	  6.13990	-10.35849	 55.16627	 -1.79669	 65.75705	710.07001	 41.20	
 18.707	-68.835	 55.54602	 29.46760	  9.04779	-11.31091	 56.60567	 -1.73227	 65.77709	710.01001	 41.20	
 18.690	-74.137	 55.55077	 25.87096	 11.93870	-11.86234	 57.57447	 -1.68985	 65.78304	710.03998	 41.20	
 18.696	-79.417	 55.50118	 22.36976	 15.21098	-12.26388	 58.17095	 -1.65615	 65.77870	710.17999	 41.20	
 18.700	-84.691	 55.50347	 19.20196	 18.32319	-12.24461	 58.39293	 -1.66884	 65.77884	710.13000	 41.20	
 18.700	-90.000	 55.43109	 15.91457	 21.60803	-12.30881	 58.27903	 -1.64584	 65.74281	710.82001	 41.20	
 18.700	-95.309	 55.43008	 12.68311	 25.14494	-11.99620	 57.74080	 -1.63469	 65.79520	710.04999	 41.30	
 18.696	-100.583	 55.35916	  9.70496	 28.64683	-11.40597	 56.84757	 -1.59621	 65.75657	710.12000	 41.30	
 18.690	-105.863	 55.37271	  6.57660	 32.22169	-10.50103	 55.59260	 -1.61248	 65.77632	710.26001	 41.30	
 18.707	-111.165	 55.34737	  3.76328	 35.79155	 -9.50941	 53.96151	 -1.62694	 65.74665	710.81000	 41.30	
 18.698	-116.504	 55.28172	  1.12943	 39.20994	 -8.26355	 52.04628	 -1.65035	 65.74751	710.87000	 41.30	
 18.700	-121.794	 55.25823	 -1.21937	 42.35064	 -6.83157	 49.85816	 -1.65723	 65.78734	710.91998	 41.20	
 18.713	-127.067	 55.19437	 -3.39771	 45.32182	 -5.24151	 47.30054	 -1.72910	 65.78465	710.89001	 41.20	
 18.705	-132.343	 55.13688	 -5.41810	 48.16110	 -3.43032	 44.36975	 -1.75894	 65.76432	710.14001	 41.30	
 18.699	-137.625	 55.13949	 -7.22375	 50.69715	 -1.25197	 41.47010	 -1.86199	 65.79158	710.12000	 41.20	
 18.698	-142.952	 55.06395	 -8.82980	 52.92609	  0.98944	 38.20173	 -1.84358	 65.77159	710.06000	 41.20	
 18.704	-148.255	 55.01257	-10.14663	 54.78714	  3.48404	 34.80821	 -1.94008	 65.77410	710.07001	 41.20	
 18.695	-153.537	 54.95130	-11.24120	 56.40311	  6.17554	 31.05754	 -1.99916	 65.74182	710.15997	 41.20	
 18.706	-158.818	 54.82246	-12.31392	 57.70318	  9.19790	 27.46520	 -2.13285	 65.75507	710.06000	 41.20	
 18.691	-164.085	 54.75548	-13.00778	 58.65920	 12.17596	 23.89839	 -2.23550	 65.76738	710.21997	 41.20	
 18.703	-169.441	 54.59202	-13.56785	 59.16497	 15.32855	 20.22079	 -2.37773	 65.72279	710.46997	 41.20	
 18.709	-174.675	 54.55095	-13.67356	 59.36521	 18.67316	 16.73804	 -2.55244	 65.74829	710.06000	 41.20	
 18.700	180.000	 54.50640	-13.49281	 59.11341	 21.64763	 13.87466	 -2.78573	 65.76070	710.00000	 41.20	
 20.400	180.000	 52.12571	-17.24439	 60.68461	 19.82160	 12.09274	 -2.73844	 65.71994	710.01001	 41.20	
 20.401	-175.153	 52.23168	-17.32478	 60.92931	 17.21356	 14.43677	 -2.42302	 65.77026	710.07001	 41.20	
 20.407	-170.264	 52.27486	-17.23501	 60.79380	 13.90086	 17.97165	 -2.23349	 65.72044	709.95001	 41.20	
 20.410	-165.423	 52.40656	-16.85522	 60.40733	 10.83264	 21.54726	 -2.10215	 65.78040	709.95001	 41.20	
 20.392	-160.496	 52.51631	-16.18470	 59.57955	  7.57298	 25.20890	 -2.00333	 65.74642	710.09998	 41.20	
 20.401	-155.705	 52.58680	-15.40205	 58.48869	  4.67461	 28.76968	 -1.85927	 65.76083	709.91998	 41.20	
 20.405	-150.835	 52.65847	-14.34571	 57.00224	  1.96540	 32.33515	 -1.80097	 65.74821	709.94000	 41.20	
 20.397	-145.903	 52.74629	-13.06759	 55.17308	 -0.52961	 35.98730	 -1.72775	 65.73241	709.96002	 41.20	
 20.392	-141.062	 52.79590	-11.62409	 53.24972	 -2.84535	 39.36745	 -1.67055	 65.72580	710.01001	 41.20	
 20.396	-136.227	 52.82069	 -9.95478	 50.89871	 -5.06331	 42.52256	 -1.63155	 65.72719	709.96997	 41.20	
 20.408	-131.372	 52.82518	 -8.16939	 48.27634	 -7.05206	 45.38500	 -1.56588	 65.68970	709.90002	 41.20	
 20.410	-126.511	 52.94722	 -6.18080	 45.46755	 -8.78374	 48.33181	 -1.56034	 65.77007	710.04999	 41.20	
 20.400	-121.604	 52.95789	 -4.01614	 42.37029	-10.34993	 50.90121	 -1.54032	 65.74146	709.94000	 41.20	
 20.403	-116.741	 52.98635	 -1.90838	 39.24586	-11.78736	 53.12490	 -1.50563	 65.72379	709.92999	 41.30	
 20.413	-111.900	 53.07396	  0.50871	 35.85513	-13.01025	 55.10734	 -1.49318	 65.73952	710.02002	 41.30	
 20.398	-107.004	 53.05659	  3.27948	 32.21000	-14.00737	 56.77549	 -1.46346	 65.71629	709.96997	 41.30	
 20.394	-102.132	 53.09553	  6.12228	 28.73590	-14.86111	 58.09912	 -1.45669	 65.73223	710.07001	 41.30	
 20.403	-97.332	 53.12031	  9.16863	 25.24010	-15.52307	 59.09581	 -1.45684	 65.72709	709.87000	 41.30	
 20.392	-92.440	 53.15483	 12.68029	 21.64237	-15.94573	 59.71096	 -1.53305	 65.70077	709.96002	 41.30	
 20.392	-87.560	 53.17093	 15.64448	 18.10829	-16.12305	 60.05917	 -1.56901	 65.71375	710.13000	 41.30	
 20.403	-82.668	 53.19790	 18.45502	 15.28441	-15.99765	 60.08820	 -1.52371	 65.72240	710.01001	 41.30	
 20.394	-77.868	 53.21725	 21.84491	 12.08948	-15.85897	 59.74828	 -1.55333	 65.73674	710.03998	 41.30	
 20.398	-72.996	 53.19191	 25.34482	  9.09484	-15.59259	 59.03065	 -1.56554	 65.69638	710.03003	 41.30	
 20.413	-68.100	 53.25028	 28.98206	  6.03264	-14.95198	 58.02998	 -1.60671	 65.73129	709.95001	 41.30	
 20.403	-63.259	 53.29416	 32.62269	  3.18549	-13.98153	 56.65888	 -1.64429	 65.75926	710.03003	 41.30	
 20.400	-58.396	 53.26015	 36.10577	  0.54743	-12.89867	 54.90558	 -1.68160	 65.73837	710.01001	 41.30	
 20.410	-53.489	 53.26085	 39.48275	 -1.95307	-11.57115	 52.91064	 -1.75224	 65.74688	709.96002	 41.30	
 20.408	-48.628	 53.25471	 42.69886	 -4.33055	-10.08861	 50.61791	 -1.79868	 65.75350	710.00000	 41.30	
 20.396	-43.773	 53.16102	 45.59190	 -6.47458	 -8.48798	 47.98732	 -1.81220	 65.71236	710.08002	 41.30	
 20.392	-38.938	 53.13088	 48.48166	 -8.37104	 -6.65746	 45.05123	 -1.91612	 65.73279	710.07001	 41.30	
 20.397	-34.097	 53.06908	 51.05182	-10.13587	 -4.61926	 42.24964	 -2.02007	 65.73259	709.98999	 41.30	
 20.405	-29.165	 53.00314	 53.36422	-11.72603	 -2.34622	 38.97708	 -2.10519	 65.72128	709.90997	 41.30	
 20.401	-24.295	 52.96109	 55.33468	-13.06455	  0.13675	 35.50816	 -2.23460	 65.70235	709.97998	 41.30	
 20.392	-19.504	 52.92101	 57.05842	-14.18977	  2.70259	 31.85578	 -2.33234	 65.72865	710.03003	 41.30	
 20.410	-14.577	 52.78532	 58.53460	-15.32526	  5.51635	 28.24417	 -2.44076	 65.74957	709.98999	 41.30	
 20.407	 -9.736	 52.66232	 59.57943	-16.03465	  8.44455	 24.68035	 -2.58021	 65.70866	710.08002	 41.30	
 20.401	 -4.847	 52.54515	 60.29155	-16.51830	 11.62936	 20.98799	 -2.77050	 65.71737	710.03003	 41.30	
 20.400	  0.000	 52.45911	 60.70100	-16.78513	 14.69889	 17.41193	 -2.92087	 65.73866	710.12000	 41.30	
 20.401	  4.847	 52.34211	 60.74764	-16.96759	 17.36966	 14.64562	 -3.34555	 65.73914	710.01001	 41.30	
 20.407	  9.736	 52.20092	 60.53167	-17.10853	 20.84015	 11.56917	 -3.51047	 65.74268	710.03998	 41.30	
 20.410	 14.577	 52.07239	 59.94613	-16.95896	 24.27816	  8.28346	 -3.58853	 65.70992	710.01001	 41.30	
 20.392	 19.504	 51.98820	 59.02498	-16.50365	 27.86164	  5.13151	 -3.70034	 65.70368	710.06000	 41.30	
 20.401	 24.295	 51.92738	 57.79525	-15.85374	 31.18780	  2.27075	 -3.88605	 65.69969	710.01001	 41.30	
 20.405	 29.165	 51.82957	 56.19783	-14.96933	 34.75383	 -0.39268	 -3.96968	 65.68163	710.08002	 41.30	
 20.397	 34.097	 51.79953	 54.22589	-13.75192	 38.21521	 -2.92875	 -4.05638	 65.69859	710.09998	 41.30	
 20.392	 38.938	 51.75897	 52.13794	-12.37946	 41.41584	 -5.34089	 -4.17928	 65.71204	710.07001	 41.30	
 20.396	 43.773	 51.72683	 49.74752	-10.84682	 44.32059	 -7.53857	 -4.19422	 65.75041	710.04999	 41.30	
 20.408	 48.628	 51.69150	 47.01603	 -9.23627	 47.31864	 -9.60896	 -4.25566	 65.76302	710.09003	 41.30	
 20.410	 53.489	 51.63691	 44.03805	 -7.32803	 50.06618	-11.51163	 -4.30811	 65.73027	710.07001	 41.30	
 20.400	 58.396	 51.58134	 41.00204	 -5.17572	 52.50298	-13.21834	 -4.33430	 65.70644	710.04999	 41.30	
 20.403	 63.259	 51.55894	 37.72223	 -2.81704	 54.68372	-14.72745	 -4.33729	 65.71729	710.03003	 41.30	
 20.413	 68.100	 51.52255	 34.14957	 -0.34684	 56.61512	-16.03255	 -4.36999	 65.72922	710.09998	 41.40	
 20.398	 72.996	 51.47818	 30.59397	  2.30690	 58.18080	-17.11918	 -4.42299	 65.72648	710.01001	 41.40	
 20.394	 77.868	 51.39859	 27.08565	  5.11039	 59.41933	-17.94887	 -4.42338	 65.70860	710.01001	 41.40	
 20.403	 82.668	 51.35738	 23.51725	  8.11877	 60.32912	-18.52927	 -4.49481	 65.68768	710.06000	 41.40	
 20.392	 87.560	 51.34642	 19.89637	 11.34576	 60.94403	-18.86551	 -4.56901	 65.70366	710.08002	 41.40	
 20.392	 92.440	 51.32581	 16.62727	 14.18989	 61.22992	-18.89089	 -4.62143	 65.71147	710.00000	 41.40	
 20.403	 97.332	 51.27127	 14.12884	 16.95264	 61.21344	-18.74585	 -4.76840	 65.69373	710.09003	 41.40	
 20.394	102.132	 51.25171	 10.97887	 20.51243	 60.89133	-18.53423	 -4.69088	 65.68700	710.07001	 41.40	
 20.398	107.004	 51.21402	  7.79532	 24.06974	 60.21331	-18.13129	 -4.57768	 65.65971	710.15002	 41.40	
 20.413	111.900	 51.19638	  4.71783	 27.66512	 59.20604	-17.48759	 -4.44145	 65.67625	710.10999	 41.40	
 20.403	116.741	 51.26925	  1.97496	 31.11485	 57.86713	-16.48686	 -4.36665	 65.69956	710.15002	 41.30	
 20.400	121.604	 51.35997	 -0.60892	 34.77194	 56.18072	-15.44539	 -4.27136	 65.69965	710.94000	 41.40	
 20.410	126.511	 51.42202	 -3.10296	 38.31632	 54.25266	-14.18183	 -4.18021	 65.68497	710.03003	 41.30	
 20.408	131.372	 51.41999	 -5.41755	 41.61719	 51.96952	-12.69423	 -4.08744	 65.70343	710.88000	 41.40	
 20.396	136.227	 51.47449	 -7.44357	 44.46766	 49.52045	-11.03067	 -4.01310	 65.69730	710.10999	 41.40	
 20.392	141.062	 51.53275	 -9.26160	 47.41545	 46.76100	 -9.21120	 -3.90120	 65.68456	710.15002	 41.40	
 20.397	145.903	 51.60575	-11.00615	 50.13704	 43.77885	 -7.20389	 -3.79026	 65.69990	710.13000	 41.40	
 20.405	150.835	 51.67589	-12.57747	 52.60877	 40.60469	 -4.94869	 -3.61024	 65.69229	710.17999	 41.40	
 20.401	155.705	 51.70746	-13.92756	 54.71782	 37.34811	 -2.62806	 -3.47506	 65.67142	710.15002	 41.40	
 20.392	160.496	 51.83332	-15.06810	 56.54305	 33.89838	 -0.07183	 -3.38283	 65.72065	710.13000	 41.40	
 20.410	165.423	 51.85959	-16.04305	 58.09337	 30.25310	  2.68892	 -3.18158	 65.66143	710.08002	 41.40	
 20.407	170.264	 51.92116	-16.74341	 59.27237	 26.82220	  5.56214	 -3.01011	 65.68100	710.15002	 41.40	
 20.401	175.153	 51.97978	-17.19999	 60.14049	 23.22307	  8.83310	 -2.90873	 65.68031	710.10999	 41.40	
  0.141	 45.000	 65.83419	 28.49359	 28.49296	 29.80188	 26.62028	  1.31850	 65.67451	710.16998	 41.40	
  4.001	128.691	 65.48603	 22.73243	 32.87011	 35.96751	 19.13250	  0.91046	 65.67665	710.15997	 41.40	
  4.002	 76.995	 65.48454	 30.24192	 25.36073	 37.22586	 18.14827	  1.12462	 65.65771	710.03003	 41.40	
  4.002	 25.892	 65.60104	 35.75355	 20.40192	 32.25853	 23.01244	  1.27738	 65.67635	710.04999	 41.40	
  4.002	-25.892	 65.72347	 35.15986	 21.05544	 24.78423	 30.82264	  1.18691	 65.70756	710.10999	 41.40	
  4.002	-76.995	 65.70589	 29.08962	 27.07648	 20.73547	 35.08073	  0.99531	 65.67848	710.12000	 41.40	
  4.001	-128.691	 65.67574	 21.99939	 34.23754	 22.82789	 32.82779	  0.83378	 65.68135	710.08002	 41.40	
  4.000	180.000	 65.58089	 19.43953	 36.79219	 29.57170	 25.61372	  0.77012	 65.70531	710.82001	 41.40	
  8.000	180.000	 64.20469	 10.60274	 44.07659	 28.81130	 23.31663	 -0.26513	 65.68141	710.13000	 41.40	
  7.991	-152.370	 64.38882	 11.89852	 42.79879	 21.07620	 31.81825	 -0.19218	 65.69306	710.12000	 41.50	
  7.997	-124.550	 64.50911	 16.32900	 37.88143	 15.17422	 38.61691	 -0.18552	 65.70470	710.77002	 41.50	
  8.006	-96.837	 64.60704	 23.26696	 30.40137	 12.11793	 42.10323	 -0.09237	 65.70110	710.84003	 41.50	
  7.988	-69.228	 64.66212	 31.44494	 22.32396	 12.51547	 41.71896	  0.04873	 65.71181	710.08002	 41.50	
  7.997	-41.563	 64.58088	 38.55746	 15.80226	 16.14907	 37.57235	  0.24419	 65.67766	710.09003	 41.50	
  8.008	-13.821	 64.50098	 42.93439	 11.87222	 22.56705	 30.34537	  0.44340	 65.67893	710.03003	 41.50	
  8.008	 13.821	 64.28555	 43.53938	 11.19590	 30.47205	 21.96338	  0.55353	 65.65688	710.09003	 41.50	
  7.997	 41.563	 64.12946	 39.98804	 13.72759	 37.89305	 14.96881	  0.48955	 65.66978	710.02002	 41.50	
  7.988	 69.228	 63.99236	 33.46825	 19.27839	 43.18878	 10.35449	  0.32274	 65.67030	710.13000	 41.50	
  8.006	 96.837	 63.89655	 25.17677	 26.79642	 44.94125	  8.89632	  0.13173	 65.66942	709.97998	 41.50	
  7.997	124.550	 63.93726	 17.86703	 34.97441	 42.42849	 10.87525	 -0.02638	 65.66743	710.15002	 41.50	
  7.991	152.370	 64.01419	 12.71364	 40.96297	 36.56882	 15.93044	 -0.48277	 65.64083	709.96997	 41.50	
 12.009	161.059	 61.41100	  3.15153	 48.17683	 35.26849	 12.85585	 -1.96194	 65.65228	710.16998	 41.50	
 12.013	142.081	 61.24287	  6.59827	 42.98035	 42.39086	  6.64703	 -1.97274	 65.66029	710.16998	 41.50	
 12.006	123.113	 61.13232	 12.21615	 36.06053	 48.04538	  2.65172	 -1.82183	 65.64427	710.15997	 41.50	
 12.007	104.200	 61.11991	 19.44324	 27.78386	 50.96301	  0.10753	 -1.80023	 65.65890	710.19000	 41.50	
 11.989	 85.301	 61.14963	 27.40619	 19.71860	 50.98733	  0.05644	 -1.74974	 65.64813	710.21002	 41.50	
 12.013	 66.294	 61.24996	 35.81875	 12.53714	 48.17957	  2.17737	 -1.51118	 65.65383	710.15997	 41.50	
 12.012	 47.388	 61.31199	 42.64927	  6.96058	 42.57330	  6.43198	 -1.47169	 65.62886	710.15002	 41.50	
 11.990	 28.440	 61.48935	 47.87007	  3.68467	 35.56400	 12.59549	 -1.16442	 65.63168	710.03998	 41.50	
 11.991	  9.464	 61.69445	 50.22516	  2.13791	 27.18629	 20.20418	 -1.21824	 65.62716	710.08002	 41.50	
 11.991	 -9.464	 61.92335	 49.63734	  2.96673	 19.48549	 28.53457	 -1.30731	 65.63682	710.17999	 41.50	
 11.990	-28.440	 62.08796	 46.21835	  5.56752	 12.64943	 36.77359	 -1.36495	 65.64001	710.13000	 41.50	
 12.012	-47.388	 62.16949	 40.35815	 10.25332	  7.30941	 43.20226	 -1.37752	 65.63622	710.20001	 41.50	
 12.013	-66.294	 62.21976	 32.88374	 16.86540	  4.14591	 47.73190	 -1.53527	 65.61985	710.17999	 41.50	
 11.989	-85.301	 62.21737	 24.44971	 24.62901	  2.97754	 49.22008	 -1.37710	 65.62869	710.23999	 41.50	
 12.007	-104.200	 62.11112	 16.58793	 32.96267	  3.98208	 47.84161	 -1.63259	 65.63512	710.12000	 41.50	
 12.006	-123.113	 61.94948	  9.98875	 40.38164	  7.14557	 43.35480	 -1.69865	 65.57634	710.03998	 41.50	
 12.013	-142.081	 61.88877	  5.22246	 46.37449	 12.19197	 36.97902	 -1.80081	 65.61262	710.16998	 41.60	
 12.009	-161.059	 61.76230	  2.35247	 49.90401	 19.03051	 28.89468	 -1.76726	 65.63389	710.22998	 41.60	
 16.000	180.000	 57.75406	 -7.32526	 55.89700	 24.12296	 16.73531	 -2.79895	 65.64866	710.12000	 41.50	
 15.990	-165.604	 57.88285	 -7.13567	 55.63614	 16.39315	 24.69053	 -2.44013	 65.63461	710.08002	 41.50	
 16.002	-151.165	 58.04135	 -5.08987	 52.99338	  9.20242	 33.30061	 -2.17900	 65.60307	710.15997	 41.50	
 16.002	-136.836	 58.20612	 -1.62707	 48.43668	  3.38376	 40.99292	 -2.09128	 65.60788	710.03003	 41.50	
 15.995	-122.439	 58.25401	  3.28205	 41.90262	 -1.09852	 47.44215	 -1.95698	 65.58454	710.17999	 41.50	
 15.993	-107.966	 58.37349	  9.42346	 34.33773	 -4.25728	 52.06152	 -1.85409	 65.59939	710.15002	 41.50	
 16.005	-93.629	 58.46879	 16.76172	 25.94194	 -5.94464	 54.52533	 -1.91974	 65.57886	710.22998	 41.50	
 15.992	-79.234	 58.55433	 24.64924	 18.07995	 -6.00606	 54.72904	 -1.90749	 65.61877	710.33002	 41.50	
 16.009	-64.774	 58.53372	 33.07397	 10.56725	 -4.65489	 52.59016	 -2.00421	 65.60101	710.51001	 41.50	
 15.997	-50.364	 58.49249	 40.87487	  4.45133	 -1.83021	 48.21095	 -2.16369	 65.58000	710.23999	 41.50	
 15.997	-36.045	 58.40818	 47.53269	 -0.73003	  2.62568	 42.00053	 -2.21939	 65.62790	710.29999	 41.50	
 16.000	-21.597	 58.31010	 52.42381	 -4.33430	  8.68245	 34.34913	 -2.27994	 65.59309	710.25000	 41.50	
 16.003	 -7.169	 58.06299	 55.23341	 -6.55637	 15.65822	 25.66013	 -2.43925	 65.58869	710.20001	 41.50	
 16.003	  7.169	 57.83486	 55.78886	 -7.00110	 23.33120	 17.67278	 -2.55423	 65.61091	710.27002	 41.60	
 16.000	 21.597	 57.62657	 54.05427	 -6.30267	 31.60659	  9.93034	 -2.57122	 65.60300	710.21997	 41.60	
 15.997	 36.045	 57.43220	 50.16677	 -3.97871	 39.59556	  3.27424	 -2.76448	 65.60345	710.25000	 41.50	
 15.997	 50.364	 57.31946	 44.21904	  0.14997	 46.43552	 -2.06934	 -2.98606	 65.60033	710.09003	 41.50	
 16.009	 64.774	 57.19157	 37.01345	  5.62313	 51.89095	 -6.11618	 -3.06412	 65.58946	710.13000	 41.60	
 15.992	 79.234	 57.12651	 28.64463	 12.00209	 55.33157	 -8.45760	 -3.12507	 65.62378	710.15002	 41.60	
 16.005	 93.629	 57.03169	 20.64920	 19.57075	 56.57536	 -9.14829	 -3.30342	 65.58508	710.20001	 41.60	
 15.993	107.966	 57.01098	 12.92229	 27.68897	 55.61920	 -8.60611	 -3.22872	 65.59559	710.13000	 41.60	
 15.995	122.439	 57.06437	  6.22916	 36.14110	 52.41903	 -6.48394	 -3.18977	 65.60279	710.16998	 41.60	
 16.002	136.836	 57.17331	  0.37949	 43.47349	 47.10375	 -2.66395	 -3.31712	 65.58062	710.10999	 41.60	
 16.002	151.165	 57.27270	 -3.84600	 49.64281	 40.23535	  2.72923	 -3.19919	 65.57499	710.19000	 41.60	
 15.990	165.604	 57.49699	 -6.44680	 53.79949	 32.34936	  9.15711	 -3.08234	 65.59167	710.17999	 41.60	
 20.003	168.362	 52.39079	-15.58665	 58.37798	 28.42171	  5.01657	 -3.13874	 65.55054	710.12000	 41.60	
 20.008	156.764	 52.21904	-13.32271	 54.76955	 36.66357	 -1.38038	 -3.45834	 65.55277	710.17999	 41.60	
 20.000	145.147	 52.06408	 -9.94218	 49.45727	 44.11771	 -6.77261	 -3.77749	 65.55489	710.16998	 41.60	
 19.995	133.545	 51.93509	 -5.58080	 42.80976	 50.62806	-11.12803	 -4.02703	 65.55498	710.20001	 41.60	
 20.009	121.926	 51.87519	 -0.16733	 35.15820	 55.66265	-14.45931	 -4.27639	 65.56435	710.27002	 41.60	
 20.005	110.327	 51.74151	  6.25555	 26.75937	 59.15001	-16.79938	 -4.44148	 65.56274	710.10999	 41.70	
 19.989	 98.733	 51.74145	 13.55962	 18.41416	 60.65957	-17.80563	 -4.68961	 65.54285	710.07001	 41.70	
 19.999	 87.075	 51.83694	 20.57721	 11.49792	 60.44229	-17.96469	 -4.46355	 65.57304	710.12000	 41.70	
 19.992	 75.457	 51.93736	 28.98108	  4.42860	 58.40915	-16.64988	 -4.29861	 65.57349	710.15002	 41.70	
 20.009	 63.844	 52.01757	 37.25704	 -1.74899	 54.56207	-14.08280	 -4.25555	 65.54613	710.08002	 41.70	
 19.989	 52.269	 52.14476	 44.50953	 -6.83623	 49.12310	-10.13417	 -4.20666	 65.52028	710.15002	 41.70	
 19.999	 40.602	 52.21926	 51.05119	-11.02699	 42.36315	 -5.40245	 -4.07897	 65.54431	710.15002	 41.70	
 20.004	 29.051	 52.43407	 55.85792	-14.09875	 34.78332	  0.35531	 -3.87517	 65.59275	710.15002	 41.70	
 20.005	 17.433	 52.48864	 58.95972	-15.76005	 26.54796	  7.10788	 -3.58055	 65.54273	710.20001	 41.70	
 20.006	  5.780	 52.76210	 60.21255	-16.12323	 18.35101	 14.47276	 -3.36991	 65.57253	710.27002	 41.70	
 20.006	 -5.780	 52.99416	 59.65837	-15.51264	 11.55375	 21.96186	 -2.72435	 65.54877	710.22998	 41.70	
 20.005	-17.433	 53.24394	 57.21949	-13.83960	  4.49318	 30.39076	 -2.37828	 65.53545	710.17999	 41.70	
 20.004	-29.051	 53.41877	 53.02423	-10.92848	 -1.57649	 38.78170	 -2.10717	 65.52937	710.22998	 41.70	
 19.999	-40.602	 53.53095	 47.28826	 -6.99199	 -6.49213	 45.80272	 -1.91394	 65.51624	710.15997	 41.70	
 19.989	-52.269	 53.68177	 40.21663	 -1.76859	-10.26869	 51.91946	 -1.79292	 65.54694	710.19000	 41.70	
 20.009	-63.844	 53.65854	 32.27004	  4.18950	-13.16162	 56.30476	 -1.64705	 65.52566	710.19000	 41.70	
 19.992	-75.457	 53.63380	 23.84397	 11.10402	-14.76913	 58.91019	 -1.58111	 65.55894	710.03998	 41.70	
 19.999	-87.075	 53.57475	 16.38621	 18.18592	-15.18511	 59.53193	 -1.54540	 65.55318	710.15002	 41.70	
 19.989	-98.733	 53.50294	  8.83681	 26.46383	-14.41539	 58.30440	 -1.50379	 65.53089	710.22998	 41.70	
 20.005	-110.327	 53.47192	  2.05483	 34.73497	-12.45475	 55.19747	 -1.49234	 65.53848	710.15997	 41.70	
 20.009	-121.926	 53.34126	 -3.43412	 42.40285	 -9.43139	 50.40471	 -1.56233	 65.55201	710.13000	 41.70	
 19.995	-133.545	 53.23242	 -8.19257	 49.20177	 -5.44488	 43.88140	 -1.63468	 65.53566	710.08002	 41.70	
 20.000	-145.147	 53.12806	-11.98827	 54.50441	 -0.21152	 36.51871	 -1.75722	 65.50680	710.13000	 41.70	
 20.008	-156.764	 52.94699	-14.67713	 58.19593	  5.88741	 28.14636	 -1.94438	 65.51689	709.98999	 41.70	
 20.003	-168.362	 52.72646	-16.17908	 60.11406	 13.09656	 19.73686	 -2.26162	 65.52139	710.19000	 41.70	
 20.000	180.000	 52.54351	-16.26312	 60.11036	 20.26870	 12.27907	 -2.70773	 65.51709	710.04999	 41.70	
