FileType=PCF
NHL=14
Date=03/07/19	14:25:34
Facility=APL
Serial=16071-10
Customer=NASA
NP=6
Mach=0.300000
Calibration=1:1
CalPts=490
TstPts=95
PortNumbering=AP Standard
Units=Torr C m/s kg/m^3 deg mm 
Theta[deg]	Phi[deg]	P1[Torr]	P2[Torr]	P3[Torr]	P4[Torr]	P5[Torr]	P6[Torr]	Pt[Torr]	Ps[Abs,Torr]	Ts[C]	
  0.000	  0.000	 43.16072	 18.25632	 18.43095	 19.03092	 17.10935	  0.94425	 43.06975	710.06000	 40.70	
  1.691	128.401	 43.13684	 16.69488	 19.71916	 20.99042	 15.44275	  0.88323	 43.05814	710.07001	 40.60	
  1.692	 77.194	 43.13562	 18.89922	 17.58399	 21.30632	 15.17241	  0.95662	 43.05607	710.12000	 40.60	
  1.699	 26.182	 43.16218	 20.46315	 16.14943	 19.88554	 16.34823	  0.98649	 43.07593	709.98999	 40.60	
  1.699	-26.182	 43.16013	 20.22111	 16.32051	 17.74933	 18.35632	  0.95793	 43.06661	710.02002	 40.50	
  1.692	-77.194	 43.17012	 18.57211	 18.06357	 16.61645	 19.59309	  0.90489	 43.09105	709.97998	 40.50	
  1.691	-128.401	 43.14343	 16.44651	 20.07806	 17.21088	 18.96142	  0.86190	 43.05573	710.88000	 40.50	
  1.700	180.000	 43.14144	 15.68182	 20.82861	 19.13630	 16.87593	  0.83796	 43.06604	710.10999	 40.50	
  3.400	180.000	 43.04206	 13.48929	 23.13921	 19.12302	 16.52769	  0.66853	 43.06012	710.09003	 40.50	
  3.388	-152.325	 43.08458	 13.86047	 22.81677	 16.87056	 18.90546	  0.68283	 43.06983	710.51001	 40.40	
  3.397	-124.529	 43.08504	 15.08178	 21.40804	 15.28279	 20.86089	  0.70923	 43.04354	710.12000	 40.40	
  3.399	-96.763	 43.10897	 17.04852	 19.21839	 14.40195	 21.89471	  0.74963	 43.05794	710.04999	 40.40	
  3.394	-69.283	 43.10070	 19.38631	 16.89721	 14.52550	 21.75806	  0.80852	 43.04643	710.03998	 40.30	
  3.400	-41.398	 43.09454	 21.40588	 15.13620	 15.53577	 20.56362	  0.87139	 43.03481	710.07001	 40.30	
  3.401	-14.021	 43.08281	 22.66978	 14.00464	 17.26711	 18.49016	  0.92596	 43.04094	710.04999	 40.30	
  3.401	 14.021	 43.05121	 22.87740	 13.77871	 19.62249	 16.30890	  0.95716	 43.03414	710.03998	 40.20	
  3.400	 41.398	 43.01112	 21.91209	 14.55179	 21.77520	 14.42878	  0.94745	 43.03083	710.13000	 40.20	
  3.394	 69.283	 42.98603	 20.02743	 16.07242	 23.26197	 13.03346	  0.89934	 43.01707	710.03998	 40.20	
  3.399	 96.763	 42.97664	 17.73152	 18.23244	 23.71587	 12.61998	  0.83880	 43.03566	710.08002	 40.20	
  3.397	124.529	 42.95598	 15.48205	 20.53744	 23.01430	 13.23572	  0.75629	 43.00585	710.03998	 40.10	
  3.388	152.325	 42.98014	 14.09886	 22.31050	 21.32848	 14.74624	  0.70892	 43.01777	710.00000	 40.10	
  5.099	161.165	 42.74109	 11.55776	 24.62912	 21.31607	 14.21856	  0.45605	 43.02388	710.08002	 40.10	
  5.109	142.013	 42.68520	 12.69298	 23.20557	 23.41109	 12.28666	  0.48878	 42.99644	709.96997	 40.10	
  5.095	123.033	 42.67934	 14.35965	 21.24601	 24.95165	 10.94838	  0.56829	 43.01199	710.02002	 40.00	
  5.105	104.191	 42.67051	 16.30409	 18.91545	 25.76295	 10.25916	  0.62900	 43.00063	710.15997	 40.00	
  5.093	 85.207	 42.68706	 18.76169	 16.54600	 25.73531	 10.23246	  0.68921	 42.99274	710.01001	 40.00	
  5.104	 66.290	 42.70318	 21.08930	 14.58319	 25.01996	 10.88840	  0.76015	 42.99417	710.13000	 40.00	
  5.094	 47.331	 42.72533	 23.05578	 12.89487	 23.52761	 12.24521	  0.81687	 42.99018	710.04999	 40.00	
  5.089	 28.397	 42.76555	 24.41863	 11.74280	 21.44665	 14.13527	  0.84111	 43.00054	710.04999	 40.00	
  5.096	  9.576	 42.79353	 25.01388	 11.22117	 19.11792	 16.21613	  0.83978	 42.97713	710.14001	 39.90	
  5.096	 -9.576	 42.84082	 24.84777	 11.53431	 16.76763	 18.39168	  0.81632	 42.97792	710.03003	 39.90	
  5.089	-28.397	 42.87221	 23.90837	 12.42650	 14.90442	 20.73160	  0.77040	 42.99329	710.02002	 39.90	
  5.094	-47.331	 42.88014	 22.28859	 13.89921	 13.30321	 22.56910	  0.70695	 42.98860	710.03003	 39.90	
  5.104	-66.290	 42.86742	 20.17929	 15.74147	 12.23292	 23.78178	  0.65016	 42.97635	710.08002	 39.90	
  5.093	-85.207	 42.88673	 17.74816	 17.95720	 11.87724	 24.15091	  0.57646	 42.99018	710.04999	 39.80	
  5.105	-104.191	 42.87418	 15.51271	 20.39888	 12.18455	 23.78441	  0.52746	 42.98799	710.12000	 39.80	
  5.095	-123.033	 42.85437	 13.62690	 22.51454	 13.17127	 22.65867	  0.48972	 42.99261	710.04999	 39.80	
  5.109	-142.013	 42.80286	 12.10865	 24.15013	 14.74267	 20.82956	  0.46042	 42.96524	709.96997	 39.80	
  5.099	-161.165	 42.75319	 11.20846	 25.09186	 16.66709	 18.45707	  0.44094	 42.94934	710.07001	 39.80	
  5.100	180.000	 42.72389	 11.04012	 25.25097	 18.99982	 16.15285	  0.42981	 42.97151	710.03998	 39.80	
  6.800	180.000	 42.36234	  8.56521	 27.26297	 18.79733	 15.71806	  0.13179	 42.97536	710.01001	 39.70	
  6.796	-166.229	 42.39082	  8.68455	 27.21480	 16.57639	 17.77881	  0.14503	 42.95929	710.03998	 39.70	
  6.808	-152.311	 42.43657	  9.22896	 26.61668	 14.53291	 20.17228	  0.15559	 42.97277	710.12000	 39.70	
  6.795	-138.383	 42.48083	 10.31311	 25.44156	 12.69188	 22.34335	  0.17003	 42.97208	710.79999	 39.60	
  6.792	-124.591	 42.50337	 11.76195	 23.85183	 11.27858	 24.03068	  0.17139	 42.96604	710.58002	 39.60	
  6.787	-110.754	 42.52153	 13.62021	 21.83003	 10.23946	 25.28794	  0.22736	 42.96562	709.97998	 39.60	
  6.800	-96.985	 42.53120	 15.62321	 19.55129	  9.58842	 26.03112	  0.24142	 42.95242	710.31000	 39.60	
  6.800	-83.015	 42.57924	 17.79166	 17.20560	  9.49760	 26.23106	  0.29888	 42.97441	710.81000	 39.60	
  6.787	-69.246	 42.56703	 20.13735	 15.20142	  9.89121	 25.83623	  0.35656	 42.96500	710.67999	 39.60	
  6.792	-55.409	 42.55015	 22.31993	 13.26817	 10.61739	 24.90506	  0.39961	 42.94809	710.67999	 39.60	
  6.795	-41.617	 42.54465	 24.19528	 11.58375	 11.81193	 23.48700	  0.43236	 42.97134	710.70001	 39.50	
  6.808	-27.689	 42.50648	 25.67722	 10.21642	 13.43866	 21.55688	  0.52388	 42.94547	710.57001	 39.50	
  6.796	-13.771	 42.49725	 26.62192	  9.32854	 15.34641	 19.29206	  0.53278	 42.95700	709.95001	 39.50	
  6.800	  0.000	 42.44655	 27.10360	  8.85402	 17.30752	 17.09433	  0.62470	 42.94762	710.00000	 39.50	
  6.796	 13.771	 42.38327	 26.93732	  8.85514	 19.57636	 15.02574	  0.50725	 42.92814	709.97998	 39.50	
  6.808	 27.689	 42.35258	 26.28941	  9.33876	 21.91342	 12.92713	  0.63724	 42.95502	710.19000	 39.50	
  6.795	 41.617	 42.31516	 25.05728	 10.34511	 23.98298	 11.05493	  0.57886	 42.95344	710.76001	 39.40	
  6.792	 55.409	 42.26669	 23.32438	 11.75071	 25.65849	  9.56533	  0.42856	 42.92855	710.76001	 39.40	
  6.787	 69.246	 42.23540	 21.25626	 13.53995	 26.91712	  8.44052	  0.48943	 42.93892	710.79999	 39.40	
  6.800	 83.015	 42.21239	 18.99002	 15.48006	 27.65774	  7.78968	  0.45786	 42.94551	710.72998	 39.40	
  6.800	 96.985	 42.19015	 16.64074	 17.57475	 27.83881	  7.66311	  0.39256	 42.94154	710.73999	 39.30	
  6.787	110.754	 42.16493	 14.64437	 19.91250	 27.42220	  8.02623	  0.34801	 42.91533	710.82001	 39.30	
  6.792	124.591	 42.17897	 12.72080	 22.13642	 26.51481	  8.80973	  0.29396	 42.91637	710.73999	 39.30	
  6.795	138.383	 42.21340	 11.07960	 24.06188	 25.12917	 10.01781	  0.15468	 42.92966	710.75000	 39.30	
  6.808	152.311	 42.23178	  9.72966	 25.67068	 23.24187	 11.66429	  0.04647	 42.93312	710.78998	 39.30	
  6.796	166.229	 42.26715	  8.91935	 26.72631	 21.04226	 13.64500	  0.15594	 42.91979	710.77002	 39.30	
  8.491	168.704	 41.75359	  6.36514	 28.70835	 20.74510	 12.95489	 -0.30637	 42.94260	710.67999	 39.30	
  8.502	157.493	 41.69056	  7.02036	 27.74119	 23.02941	 10.90686	 -0.36350	 42.92733	710.78003	 39.30	
  8.494	146.194	 41.65006	  8.10833	 26.38247	 25.08297	  9.09802	 -0.33718	 42.92627	710.70001	 39.20	
  8.495	135.039	 41.61420	  9.53658	 24.66592	 26.79466	  7.61373	 -0.10535	 42.89796	710.71002	 39.20	
  8.487	123.723	 41.58942	 11.22519	 22.62800	 28.13895	  6.39429	 -0.25375	 42.90757	710.77002	 39.20	
  8.492	112.575	 41.59479	 13.16340	 20.39919	 29.06943	  5.60596	 -0.06502	 42.91450	710.71002	 39.20	
  8.510	101.220	 41.59458	 15.29223	 17.97673	 29.62870	  5.13720	 -0.20929	 42.92251	710.70001	 39.20	
  8.500	 90.000	 41.59861	 17.40537	 15.82704	 29.67784	  5.08161	 -0.17181	 42.91796	710.65002	 39.10	
  8.510	 78.780	 41.60888	 19.76428	 13.72961	 29.27651	  5.39428	 -0.11834	 42.90948	710.81000	 39.10	
  8.492	 67.425	 41.66616	 22.12031	 11.75900	 28.40254	  6.17876	  0.14410	 42.93348	710.70001	 39.10	
  8.487	 56.277	 41.70367	 24.18965	 10.04728	 27.11328	  7.32480	  0.01919	 42.92813	710.70001	 39.10	
  8.495	 44.961	 41.73312	 25.96371	  8.57631	 25.42755	  8.81700	  0.25220	 42.91268	710.78003	 39.10	
  8.494	 33.806	 41.76507	 27.35567	  7.43260	 23.49923	 10.48321	  0.32096	 42.93452	710.71997	 39.10	
  8.502	 22.507	 41.78489	 28.33974	  6.68506	 21.24009	 12.45530	  0.17106	 42.89616	710.76001	 39.10	
  8.491	 11.296	 41.84746	 28.86010	  6.33178	 18.88060	 14.63823	  0.15176	 42.89987	710.79999	 39.10	
  8.500	  0.000	 41.89241	 28.95343	  6.39754	 16.63929	 16.81327	  0.32278	 42.90726	710.71002	 39.00	
  8.491	-11.296	 41.95016	 28.56345	  6.79292	 14.62753	 18.95450	  0.11473	 42.90866	710.73999	 39.00	
  8.502	-22.507	 41.97780	 27.77295	  7.52176	 12.62665	 21.33728	  0.17758	 42.91322	710.75000	 39.00	
  8.494	-33.806	 42.00393	 26.50228	  8.66064	 10.86010	 23.49256	  0.01265	 42.91138	710.70001	 39.00	
  8.495	-44.961	 42.02943	 24.86351	 10.12335	  9.46615	 25.21690	  0.10763	 42.90260	710.69000	 39.00	
  8.487	-56.277	 42.05020	 22.89427	 11.87382	  8.27715	 26.66189	  0.03583	 42.90515	710.65002	 39.00	
  8.492	-67.425	 42.03975	 20.66573	 13.80250	  7.46199	 27.59312	 -0.12235	 42.88511	710.81000	 39.00	
  8.510	-78.780	 42.04434	 18.22711	 15.84658	  6.99377	 28.14252	 -0.09925	 42.89771	710.65997	 39.00	
  8.500	-90.000	 42.01801	 16.08296	 18.01465	  6.95350	 28.16141	 -0.14947	 42.87624	710.69000	 38.90	
  8.510	-101.220	 42.00811	 13.96288	 20.37501	  7.24425	 27.73322	 -0.20462	 42.89493	710.70001	 38.90	
  8.492	-112.575	 41.97982	 11.91001	 22.69016	  7.99616	 26.84353	 -0.28090	 42.89648	710.78998	 38.90	
  8.487	-123.723	 41.95840	 10.13023	 24.69801	  9.06390	 25.52680	 -0.29351	 42.88644	710.73999	 38.90	
  8.495	-135.039	 41.91985	  8.60128	 26.40397	 10.45759	 23.83450	 -0.17385	 42.89139	710.62000	 38.90	
  8.494	-146.194	 41.89405	  7.42999	 27.71366	 12.14169	 21.81585	 -0.33211	 42.89148	710.71002	 38.90	
  8.502	-157.493	 41.83836	  6.56407	 28.63870	 14.12277	 19.47931	 -0.31295	 42.88681	710.75000	 38.90	
  8.491	-168.704	 41.80202	  6.20935	 29.09406	 16.21487	 17.04130	 -0.37653	 42.87279	710.77002	 38.80	
  8.500	180.000	 41.73690	  6.12361	 29.09291	 18.37023	 15.04676	 -0.40827	 42.85942	710.69000	 38.80	
 10.200	180.000	 41.08999	  3.55702	 30.98587	 17.90134	 14.29282	 -0.85857	 42.88405	710.67999	 38.80	
 10.191	-170.497	 41.11835	  3.59176	 30.99997	 15.78117	 16.46828	 -0.80170	 42.86650	710.67999	 38.80	
 10.210	-161.034	 41.17044	  3.96019	 30.62528	 13.65490	 18.64457	 -0.73673	 42.88128	710.87000	 38.80	
 10.194	-151.526	 41.21096	  4.61432	 29.80224	 11.61534	 21.06547	 -0.70904	 42.88294	710.64001	 38.80	
 10.190	-142.105	 41.25105	  5.55268	 28.67573	  9.80372	 23.25543	 -0.72791	 42.87662	710.59998	 38.80	
 10.215	-132.646	 41.25690	  6.79377	 27.21755	  8.15176	 25.25048	 -0.57779	 42.86323	710.73999	 38.80	
 10.203	-123.092	 41.28683	  8.33686	 25.43244	  6.77041	 26.93588	 -0.70511	 42.86182	710.65997	 38.80	
 10.192	-113.678	 41.33079	 10.14196	 23.41614	  5.71502	 28.26048	 -0.65870	 42.88279	710.66998	 38.80	
 10.208	-104.249	 41.33244	 12.12954	 21.14389	  4.97709	 29.19814	 -0.66831	 42.85838	710.67999	 38.80	
 10.210	-94.801	 41.37809	 14.26221	 18.75974	  4.53193	 29.82833	 -0.64799	 42.87159	710.76001	 38.80	
 10.210	-85.199	 41.40919	 16.48803	 16.45383	  4.39987	 30.07052	 -0.64610	 42.88122	710.71002	 38.80	
 10.208	-75.751	 41.38282	 18.69619	 14.39727	  4.59047	 29.84531	 -0.60211	 42.83277	710.65997	 38.80	
 10.192	-66.322	 41.40548	 21.07334	 12.29369	  5.08144	 29.22942	 -0.55329	 42.86792	710.77002	 38.80	
 10.203	-56.908	 41.39332	 23.30846	 10.33355	  5.82803	 28.23269	 -0.54052	 42.86774	710.69000	 38.80	
 10.215	-47.354	 41.36588	 25.37493	  8.55391	  6.92799	 26.89057	 -0.33288	 42.85151	710.70001	 38.80	
 10.190	-37.895	 41.35094	 27.15116	  7.03687	  8.33255	 25.16475	 -0.43307	 42.85022	710.04999	 38.80	
 10.194	-28.474	 41.30160	 28.58372	  5.73617	  9.90464	 23.18012	 -0.38376	 42.84564	710.71997	 38.80	
 10.210	-18.966	 41.28675	 29.74961	  4.77325	 11.74812	 20.90528	 -0.33053	 42.86230	710.70001	 38.80	
 10.191	 -9.503	 41.24887	 30.47717	  4.15985	 13.80307	 18.45653	 -0.30193	 42.86192	710.70001	 38.80	
 10.200	  0.000	 41.17550	 30.84292	  3.74953	 15.89926	 16.40615	 -0.21609	 42.84018	710.65002	 38.80	
 10.191	  9.503	 41.13132	 30.78294	  3.72606	 18.01679	 14.14686	 -0.22644	 42.84417	710.72998	 38.70	
 10.210	 18.966	 41.06748	 30.34790	  3.94938	 20.37202	 11.90350	 -0.19797	 42.84438	710.70001	 38.70	
 10.194	 28.474	 41.01515	 29.45449	  4.55586	 22.71060	  9.86512	 -0.22851	 42.83576	710.62000	 38.70	
 10.190	 37.895	 40.98730	 28.25568	  5.45185	 24.86946	  7.99590	 -0.30141	 42.84980	710.62000	 38.70	
 10.215	 47.354	 40.93882	 26.74179	  6.61087	 26.80672	  6.27928	 -0.38145	 42.86418	710.73999	 38.70	
 10.203	 56.908	 40.89069	 24.87005	  8.09703	 28.41831	  4.85713	 -0.39791	 42.84031	710.81000	 38.70	
 10.192	 66.322	 40.84105	 22.75725	  9.82938	 29.70939	  3.81120	 -0.42602	 42.81517	710.88000	 38.70	
 10.208	 75.751	 40.84435	 20.49407	 11.75561	 30.73167	  2.99989	 -0.50643	 42.85926	710.72998	 38.70	
 10.210	 85.199	 40.80434	 18.13875	 13.84381	 31.33232	  2.51794	 -0.57247	 42.83895	710.84998	 38.70	
 10.210	 94.801	 40.80495	 15.89218	 16.04989	 31.54834	  2.36447	 -0.62627	 42.85026	710.71997	 38.70	
 10.208	104.249	 40.78954	 13.70205	 18.28994	 31.30855	  2.58450	 -0.63702	 42.84670	710.70001	 38.70	
 10.192	113.678	 40.80735	 11.62261	 20.65336	 30.69189	  3.09690	 -0.61440	 42.86326	710.72998	 38.70	
 10.203	123.092	 40.81114	  9.66729	 22.91535	 29.71627	  3.85051	 -0.65365	 42.85465	710.82001	 38.70	
 10.215	132.646	 40.81106	  7.87690	 25.04955	 28.35552	  4.96696	 -0.71459	 42.84063	710.71002	 38.60	
 10.190	142.105	 40.86580	  6.43894	 26.86949	 26.69670	  6.42566	 -0.71581	 42.84967	710.75000	 38.70	
 10.194	151.526	 40.88783	  5.21676	 28.39911	 24.77861	  8.07243	 -0.72024	 42.83356	710.81000	 38.60	
 10.210	161.034	 40.94300	  4.32788	 29.65084	 22.62445	  9.96439	 -0.75668	 42.84771	710.78003	 38.60	
 10.191	170.497	 40.98861	  3.81666	 30.49409	 20.27456	 12.07544	 -0.80347	 42.83744	710.78003	 38.60	
 11.899	171.783	 40.16508	  1.21780	 32.29431	 19.67815	 11.16145	 -1.21128	 42.84103	710.67999	 38.60	
 11.890	163.610	 40.10508	  1.65569	 31.48254	 22.02547	  9.06816	 -1.16450	 42.82447	710.73999	 38.60	
 11.889	155.445	 40.05772	  2.43098	 30.34724	 24.27125	  7.12763	 -1.13715	 42.82928	710.71997	 38.60	
 11.909	147.299	 39.99458	  3.39958	 28.93360	 26.33000	  5.31519	 -1.14800	 42.82547	710.76001	 38.60	
 11.902	139.148	 39.97256	  4.65325	 27.25328	 28.18579	  3.74440	 -1.15229	 42.84378	710.78003	 38.60	
 11.894	130.867	 39.94994	  6.21960	 25.31421	 29.78623	  2.44197	 -1.11009	 42.84606	710.65997	 38.60	
 11.897	122.732	 39.93704	  8.04245	 23.15931	 31.10959	  1.43922	 -1.04104	 42.82778	710.71997	 38.60	
 11.903	114.597	 39.92476	  9.95436	 20.87849	 32.16688	  0.65907	 -1.00868	 42.84819	710.72998	 38.60	
 11.893	106.346	 39.90277	 12.03818	 18.48479	 32.85932	  0.09380	 -1.05071	 42.81516	710.70001	 38.60	
 11.892	 98.155	 39.92287	 14.24281	 16.22887	 33.23438	 -0.29082	 -1.04926	 42.83548	710.69000	 38.60	
 11.900	 90.000	 39.93108	 16.45780	 14.02192	 33.20839	 -0.33697	 -1.01795	 42.83522	710.76001	 38.60	
 11.892	 81.845	 39.97182	 18.66707	 11.92041	 32.83203	  0.04966	 -0.96753	 42.85409	710.69000	 38.50	
 11.893	 73.654	 39.98021	 21.01500	  9.86419	 32.06800	  0.63056	 -0.89287	 42.82658	710.73999	 38.50	
 11.903	 65.403	 40.01041	 23.32559	  7.91696	 30.97800	  1.46651	 -0.83134	 42.83285	710.75000	 38.50	
 11.897	 57.268	 40.02566	 25.43367	  6.19023	 29.59409	  2.55941	 -0.82518	 42.81500	710.71002	 38.50	
 11.894	 49.133	 40.05225	 27.31708	  4.66511	 28.02217	  3.81634	 -0.81584	 42.82000	710.71002	 38.50	
 11.902	 40.852	 40.08799	 29.02204	  3.43435	 26.15522	  5.44885	 -0.73859	 42.83213	710.72998	 38.50	
 11.909	 32.701	 40.12687	 30.37388	  2.44662	 24.05788	  7.21999	 -0.65526	 42.81480	710.79999	 38.50	
 11.889	 24.555	 40.19286	 31.45563	  1.78793	 21.78420	  9.23558	 -0.59219	 42.82304	710.78003	 38.50	
 11.890	 16.390	 40.23272	 32.20195	  1.26047	 19.41979	 11.34819	 -0.60336	 42.81464	710.78003	 38.50	
 11.899	  8.217	 40.29092	 32.57970	  1.05159	 17.16182	 13.59372	 -0.65971	 42.83268	710.72998	 38.50	
 11.900	  0.000	 40.34149	 32.60746	  1.13961	 15.03749	 15.88098	 -0.68342	 42.82215	710.71002	 38.50	
 11.899	 -8.217	 40.41077	 32.27501	  1.49255	 12.89384	 18.06493	 -0.71199	 42.83069	710.77002	 38.50	
 11.890	-16.390	 40.45029	 31.55909	  2.10004	 10.83810	 20.33864	 -0.72695	 42.80653	710.64001	 38.50	
 11.889	-24.555	 40.49254	 30.51452	  2.94285	  8.91362	 22.71065	 -0.76145	 42.83074	710.65002	 38.50	
 11.909	-32.701	 40.48811	 29.20960	  3.97528	  7.16945	 24.82294	 -0.80809	 42.79716	710.76001	 38.50	
 11.902	-40.852	 40.52028	 27.59429	  5.29100	  5.65710	 26.72491	 -0.87213	 42.80781	710.78003	 38.50	
 11.894	-49.133	 40.55603	 25.69036	  6.91227	  4.40385	 28.34049	 -0.91950	 42.80508	710.70001	 38.50	
 11.897	-57.268	 40.59411	 23.60651	  8.71661	  3.39001	 29.66466	 -0.92624	 42.81579	710.72998	 38.50	
 11.903	-65.403	 40.59314	 21.35930	 10.65688	  2.62938	 30.73111	 -0.92116	 42.80756	710.70001	 38.40	
 11.893	-73.654	 40.59730	 19.01899	 12.76049	  2.14618	 31.46335	 -0.93823	 42.78876	710.76001	 38.40	
 11.892	-81.845	 40.60669	 16.72141	 14.96288	  1.79527	 31.86161	 -0.97545	 42.81954	710.78998	 38.50	
 11.900	-90.000	 40.57003	 14.51087	 16.99778	  1.82784	 31.81893	 -0.98627	 42.80576	710.66998	 38.40	
 11.892	-98.155	 40.53611	 12.35942	 19.32537	  2.09180	 31.38163	 -1.00211	 42.79463	710.70001	 38.40	
 11.893	-106.346	 40.51271	 10.26618	 21.73006	  2.64778	 30.60460	 -0.98368	 42.80883	710.72998	 38.40	
 11.903	-114.597	 40.47548	  8.24600	 24.01553	  3.38805	 29.48312	 -0.98247	 42.80482	710.70001	 38.40	
 11.897	-122.732	 40.45632	  6.46379	 26.03289	  4.42973	 28.15833	 -1.00910	 42.82737	710.06000	 38.40	
 11.894	-130.867	 40.41525	  4.94022	 27.79976	  5.72367	 26.53795	 -1.05526	 42.80215	710.69000	 38.40	
 11.902	-139.148	 40.40584	  3.60775	 29.41178	  7.28620	 24.58916	 -1.03974	 42.81412	710.73999	 38.40	
 11.909	-147.299	 40.37778	  2.53492	 30.75765	  9.03304	 22.44392	 -1.03296	 42.82676	710.83002	 38.40	
 11.889	-155.445	 40.33805	  1.81373	 31.74332	 10.94729	 20.10854	 -1.05107	 42.80904	710.76001	 38.40	
 11.890	-163.610	 40.29169	  1.26426	 32.44615	 12.99636	 17.66749	 -1.09380	 42.80775	710.20001	 38.40	
 11.899	-171.783	 40.24341	  0.88706	 32.79797	 15.16817	 15.61580	 -1.17681	 42.82610	710.06000	 38.40	
 11.900	180.000	 40.19409	  0.90597	 32.73258	 17.32863	 13.35945	 -1.19633	 42.82814	710.07001	 38.40	
 13.600	180.000	 39.21637	 -1.73194	 34.36018	 16.71025	 12.36140	 -1.50260	 42.81245	710.83002	 38.40	
 13.608	-172.853	 39.25348	 -1.69539	 34.45192	 14.52498	 14.59424	 -1.46536	 42.80703	710.84998	 38.40	
 13.611	-165.583	 39.30307	 -1.47688	 34.20886	 12.31641	 16.88510	 -1.38771	 42.81727	710.78003	 38.40	
 13.601	-158.353	 39.36441	 -0.91435	 33.61030	 10.23358	 19.01125	 -1.31048	 42.81343	710.82001	 38.40	
 13.609	-151.210	 39.41945	 -0.25636	 32.73182	  8.29454	 21.43870	 -1.27009	 42.82768	710.71997	 38.40	
 13.611	-143.999	 39.44987	  0.58786	 31.52919	  6.44271	 23.75748	 -1.26470	 42.81522	710.69000	 38.40	
 13.601	-136.825	 39.48003	  1.70915	 30.06317	  4.79039	 25.84367	 -1.27431	 42.82716	710.73999	 38.40	
 13.596	-129.640	 39.49588	  3.01508	 28.40211	  3.38614	 27.65417	 -1.26010	 42.79986	710.71997	 38.40	
 13.611	-122.431	 39.51463	  4.53078	 26.52619	  2.06794	 29.32826	 -1.21916	 42.80715	710.84003	 38.40	
 13.604	-115.211	 39.55094	  6.29362	 24.47717	  0.96444	 30.79002	 -1.17835	 42.80886	710.72998	 38.40	
 13.595	-108.042	 39.60751	  8.25513	 22.25491	  0.18577	 31.95683	 -1.16291	 42.82609	710.34998	 38.40	
 13.607	-100.793	 39.59182	 10.32865	 19.82239	 -0.40288	 32.84782	 -1.18345	 42.78859	710.65002	 38.40	
 13.601	-93.617	 39.62948	 12.48146	 17.45158	 -0.71455	 33.39108	 -1.19559	 42.78443	710.71002	 38.40	
 13.601	-86.383	 39.64262	 14.66728	 15.37078	 -0.91677	 33.64035	 -1.19593	 42.79583	710.69000	 38.40	
 13.607	-79.207	 39.66228	 16.92237	 13.17348	 -0.86254	 33.54208	 -1.18798	 42.81055	710.84003	 38.40	
 13.595	-71.958	 39.67300	 19.21911	 11.01546	 -0.48159	 33.05349	 -1.17123	 42.80581	710.71002	 38.40	
 13.604	-64.789	 39.67567	 21.54638	  8.96388	  0.03953	 32.26966	 -1.16856	 42.80257	710.77002	 38.40	
 13.611	-57.569	 39.65573	 23.81140	  7.00303	  0.80369	 31.12789	 -1.19890	 42.80553	710.70001	 38.40	
 13.596	-50.360	 39.64428	 25.95352	  5.20359	  1.83765	 29.70267	 -1.21831	 42.80042	710.82001	 38.40	
 13.601	-43.175	 39.62036	 27.89231	  3.57452	  2.98097	 28.19893	 -1.21784	 42.80974	710.79999	 38.30	
 13.611	-36.001	 39.59762	 29.64945	  2.20242	  4.39113	 26.40241	 -1.16446	 42.82495	710.75000	 38.30	
 13.609	-28.790	 39.56233	 31.12176	  1.04053	  6.05799	 24.31139	 -1.11438	 42.81685	710.59998	 38.30	
 13.601	-21.647	 39.50134	 32.33706	  0.01781	  7.86813	 22.02069	 -1.09614	 42.77791	710.70001	 38.30	
 13.611	-14.417	 39.47466	 33.32364	 -0.68325	  9.82175	 19.59355	 -1.09742	 42.79682	710.73999	 38.30	
 13.608	 -7.147	 39.42679	 33.97100	 -1.22598	 11.91052	 17.45890	 -1.08885	 42.79755	710.82001	 38.30	
 13.600	  0.000	 39.38883	 34.29292	 -1.55715	 14.02646	 15.25109	 -1.08161	 42.82141	710.73999	 38.30	
 13.608	  7.147	 39.31902	 34.29980	 -1.63362	 16.21328	 12.95918	 -1.05881	 42.81970	710.73999	 38.30	
 13.611	 14.417	 39.24832	 33.98315	 -1.46820	 18.39620	 10.68142	 -1.02076	 42.80913	710.14001	 38.30	
 13.601	 21.647	 39.19593	 33.31668	 -1.13983	 20.73217	  8.53660	 -0.98232	 42.80803	710.09998	 38.30	
 13.609	 28.790	 39.15030	 32.37633	 -0.56570	 23.04774	  6.52494	 -1.00165	 42.81334	710.06000	 38.20	
 13.611	 36.001	 39.09372	 31.11211	  0.28105	 25.28093	  4.59470	 -1.09968	 42.82614	710.81000	 38.20	
 13.601	 43.175	 39.07634	 29.60475	  1.36523	 27.29603	  2.84814	 -1.19631	 42.82159	710.83002	 38.20	
 13.596	 50.360	 39.04794	 27.84802	  2.71713	 29.09075	  1.36374	 -1.24422	 42.81952	710.90997	 38.30	
 13.611	 57.569	 39.00126	 25.89962	  4.16741	 30.71876	  0.07148	 -1.26252	 42.79824	710.83002	 38.30	
 13.604	 64.789	 38.95924	 23.74412	  5.90418	 32.15039	 -0.90625	 -1.27715	 42.79460	710.83002	 38.30	
 13.595	 71.958	 38.92815	 21.47277	  7.75491	 33.26669	 -1.65607	 -1.31072	 42.78173	710.76001	 38.30	
 13.607	 79.207	 38.91239	 19.11529	  9.76806	 34.15170	 -2.23217	 -1.36755	 42.81406	710.82001	 38.30	
 13.601	 86.383	 38.86809	 16.84962	 11.87745	 34.69671	 -2.63685	 -1.41933	 42.79766	710.72998	 38.30	
 13.601	 93.617	 38.85284	 14.59914	 14.08856	 34.88693	 -2.79701	 -1.46709	 42.79514	710.84998	 38.30	
 13.607	100.793	 38.83167	 12.35276	 16.33643	 34.73745	 -2.70004	 -1.45983	 42.79641	710.78003	 38.30	
 13.595	108.042	 38.84532	 10.19788	 18.64906	 34.27127	 -2.28238	 -1.43805	 42.79145	710.78003	 38.30	
 13.604	115.211	 38.83591	  8.16453	 20.95265	 33.50765	 -1.78485	 -1.42901	 42.78167	710.67999	 38.30	
 13.611	122.431	 38.88028	  6.26406	 23.26847	 32.45277	 -1.05067	 -1.44190	 42.80099	710.65002	 38.30	
 13.596	129.640	 38.90038	  4.49545	 25.44437	 31.07485	 -0.07126	 -1.50146	 42.79668	710.78003	 38.30	
 13.601	136.825	 38.91171	  2.84334	 27.41137	 29.50947	  1.04140	 -1.55795	 42.79382	710.71997	 38.30	
 13.611	143.999	 38.95228	  1.53837	 29.21764	 27.74677	  2.49143	 -1.55535	 42.79917	710.77002	 38.30	
 13.609	151.210	 38.98487	  0.42840	 30.81869	 25.74031	  4.22186	 -1.53715	 42.78962	710.78003	 38.30	
 13.601	158.353	 39.01709	 -0.42539	 32.14565	 23.57588	  6.09264	 -1.50265	 42.77244	710.72998	 38.30	
 13.611	165.583	 39.07231	 -1.10260	 33.20856	 21.28106	  8.04993	 -1.54711	 42.79147	710.69000	 38.30	
 13.608	172.853	 39.14771	 -1.41708	 33.93497	 18.88320	 10.19130	 -1.55936	 42.79081	710.73999	 38.30	
 15.298	173.587	 38.04951	 -3.74603	 35.44679	 18.14476	  9.10646	 -1.77481	 42.79155	710.71997	 38.30	
 15.291	167.167	 37.99389	 -3.46113	 34.76475	 20.42099	  7.02661	 -1.83116	 42.78391	710.66998	 38.30	
 15.307	160.676	 37.91840	 -3.00949	 33.80169	 22.75148	  5.01402	 -1.83187	 42.78757	710.71002	 38.30	
 15.300	154.261	 37.86913	 -2.27376	 32.56140	 25.00005	  3.09781	 -1.86758	 42.79346	710.88000	 38.30	
 15.288	147.854	 37.81861	 -1.36908	 31.03620	 27.06929	  1.34888	 -1.90035	 42.77472	710.67999	 38.30	
 15.293	141.428	 37.77385	 -0.23574	 29.32755	 28.97522	 -0.23686	 -1.93330	 42.77705	710.77002	 38.30	
 15.299	134.985	 37.77669	  1.14322	 27.44676	 30.73716	 -1.42956	 -1.94739	 42.78487	710.81000	 38.30	
 15.305	128.583	 37.76047	  2.70151	 25.43456	 32.35155	 -2.44366	 -1.89270	 42.80987	710.78003	 38.20	
 15.309	122.142	 37.72483	  4.43704	 23.24880	 33.68667	 -3.23267	 -1.85217	 42.79476	710.78003	 38.20	
 15.304	115.711	 37.70524	  6.32182	 20.92429	 34.75664	 -3.87070	 -1.85738	 42.79803	710.76001	 38.20	
 15.297	109.291	 37.69075	  8.39416	 18.61646	 35.55967	 -4.42384	 -1.87074	 42.79593	710.67999	 38.20	
 15.293	102.897	 37.68551	 10.51174	 16.34639	 36.06974	 -4.82828	 -1.87999	 42.78299	710.73999	 38.30	
 15.293	 96.458	 37.69948	 12.73776	 14.04864	 36.28322	 -5.03097	 -1.89523	 42.78009	710.75000	 38.20	
 15.300	 90.000	 37.69335	 14.97756	 11.80426	 36.21480	 -5.00297	 -1.88726	 42.76205	710.71002	 38.20	
 15.293	 83.542	 37.73563	 17.23458	  9.65732	 35.87535	 -4.74561	 -1.80315	 42.77326	710.72998	 38.20	
 15.293	 77.103	 37.75302	 19.49940	  7.55494	 35.23930	 -4.44946	 -1.77362	 42.78944	710.70001	 38.20	
 15.297	 70.709	 37.77346	 21.80083	  5.57116	 34.33340	 -3.92951	 -1.74380	 42.77594	710.78998	 38.30	
 15.304	 64.289	 37.80697	 24.05222	  3.79702	 33.16672	 -3.26515	 -1.73027	 42.78783	710.67999	 38.20	
 15.309	 57.858	 37.81914	 26.21378	  2.07381	 31.73849	 -2.24998	 -1.73679	 42.77240	710.65002	 38.20	
 15.305	 51.417	 37.87169	 28.20980	  0.62696	 30.09000	 -0.99818	 -1.70271	 42.78449	710.65997	 38.20	
 15.299	 45.015	 37.91719	 30.02828	 -0.53461	 28.29425	  0.37799	 -1.65609	 42.78660	710.65997	 38.20	
 15.293	 38.572	 37.93334	 31.62372	 -1.52328	 26.32623	  1.91887	 -1.56919	 42.77517	710.60999	 38.20	
 15.288	 32.146	 37.96917	 33.01957	 -2.41509	 24.18349	  3.71260	 -1.46514	 42.78351	710.71997	 38.20	
 15.300	 25.739	 38.02303	 34.14775	 -3.05456	 21.90777	  5.68255	 -1.40987	 42.78205	710.70001	 38.20	
 15.307	 19.324	 38.05523	 34.96555	 -3.47092	 19.49426	  7.75126	 -1.40864	 42.76965	710.65002	 38.20	
 15.291	 12.833	 38.11719	 35.53668	 -3.80180	 17.32987	  9.91919	 -1.41374	 42.78233	710.70001	 38.20	
 15.298	  6.413	 38.17339	 35.79362	 -3.93878	 15.08174	 12.18952	 -1.45273	 42.77047	710.67999	 38.20	
 15.300	  0.000	 38.23796	 35.78836	 -3.85765	 12.89849	 14.47504	 -1.45983	 42.77303	710.64001	 38.20	
 15.298	 -6.413	 38.29099	 35.46899	 -3.57579	 10.78112	 16.74845	 -1.44182	 42.76519	710.65002	 38.20	
 15.291	-12.833	 38.37078	 34.86983	 -3.16664	  8.71976	 18.92194	 -1.40720	 42.78045	710.63000	 38.20	
 15.307	-19.324	 38.39928	 33.99551	 -2.65036	  6.73014	 21.22599	 -1.37365	 42.75799	710.69000	 38.20	
 15.300	-25.739	 38.44647	 32.85256	 -1.82781	  4.89712	 23.56024	 -1.36213	 42.76724	710.60999	 38.20	
 15.288	-32.146	 38.47459	 31.41337	 -0.84626	  3.20617	 25.74573	 -1.36767	 42.76308	710.62000	 38.20	
 15.293	-38.572	 38.49551	 29.75765	  0.39015	  1.71871	 27.71179	 -1.38805	 42.76691	710.62000	 38.20	
 15.299	-45.015	 38.57288	 28.00793	  1.80070	  0.44838	 29.44674	 -1.39574	 42.79795	710.59003	 38.20	
 15.305	-51.417	 38.55451	 26.01593	  3.42090	 -0.70090	 31.02637	 -1.37456	 42.75952	710.65997	 38.20	
 15.309	-57.858	 38.56253	 23.84781	  5.20708	 -1.64593	 32.43161	 -1.32323	 42.76127	710.65997	 38.20	
 15.304	-64.289	 38.56274	 21.56440	  7.17275	 -2.32055	 33.58222	 -1.27600	 42.74718	710.63000	 38.20	
 15.297	-70.709	 38.59819	 19.27752	  9.22810	 -2.80909	 34.41960	 -1.25593	 42.77960	710.69000	 38.20	
 15.293	-77.103	 38.58090	 17.02551	 11.31793	 -3.15937	 34.91503	 -1.24162	 42.75578	710.65997	 38.20	
 15.293	-83.542	 38.58359	 14.74147	 13.55008	 -3.26029	 35.15164	 -1.25470	 42.77232	710.63000	 38.20	
 15.300	-90.000	 38.56239	 12.49637	 15.74907	 -3.19993	 35.07330	 -1.25109	 42.76751	710.65997	 38.20	
 15.293	-96.458	 38.54108	 10.30450	 17.95255	 -2.94153	 34.69550	 -1.22171	 42.77282	710.65002	 38.20	
 15.293	-102.897	 38.47427	  8.21385	 20.25985	 -2.52996	 34.02649	 -1.21811	 42.74641	710.62000	 38.20	
 15.297	-109.291	 38.44616	  6.17957	 22.59887	 -1.96958	 33.12261	 -1.20816	 42.75230	710.62000	 38.20	
 15.304	-115.711	 38.42269	  4.31187	 24.82150	 -1.26012	 31.89263	 -1.20271	 42.75953	710.65997	 38.20	
 15.309	-122.142	 38.37599	  2.59386	 26.88513	 -0.35029	 30.37198	 -1.25533	 42.75204	710.57001	 38.10	
 15.305	-128.583	 38.36383	  1.10362	 28.76088	  0.82142	 28.69930	 -1.31127	 42.75172	710.53003	 38.20	
 15.299	-134.985	 38.35445	 -0.16962	 30.52408	  2.28301	 26.87262	 -1.34085	 42.75000	710.65002	 38.20	
 15.293	-141.428	 38.32537	 -1.22204	 32.07964	  3.82032	 24.86892	 -1.37254	 42.75470	710.59998	 38.20	
 15.288	-147.854	 38.28180	 -2.11460	 33.37954	  5.53076	 22.64272	 -1.39540	 42.74464	710.65002	 38.20	
 15.300	-154.261	 38.25854	 -2.83894	 34.45767	  7.43677	 20.29759	 -1.41627	 42.75353	710.62000	 38.20	
 15.307	-160.676	 38.22502	 -3.40187	 35.22110	  9.44340	 17.96773	 -1.48172	 42.76847	710.64001	 38.20	
 15.291	-167.167	 38.14937	 -3.89852	 35.69549	 11.54139	 15.80363	 -1.59080	 42.74838	710.53998	 38.20	
 15.298	-173.587	 38.10282	 -4.11677	 35.92241	 13.73151	 13.49909	 -1.65910	 42.75426	710.59998	 38.20	
 15.300	180.000	 38.03997	 -4.05231	 35.77940	 15.91767	 11.26424	 -1.70423	 42.73382	710.67999	 38.20	
 17.000	180.000	 36.79268	 -6.18808	 37.15003	 15.05101	 10.07350	 -1.81259	 42.74287	710.67999	 38.20	
 16.990	-174.179	 36.84964	 -6.22792	 37.25890	 12.87161	 12.28947	 -1.74054	 42.74360	710.76001	 38.20	
 17.009	-168.383	 36.89371	 -6.10814	 37.12918	 10.68749	 14.58997	 -1.65280	 42.74828	710.63000	 38.20	
 17.000	-162.596	 36.97002	 -5.72324	 36.73034	  8.59799	 16.88383	 -1.59309	 42.76326	710.59998	 38.20	
 16.990	-156.759	 37.02393	 -5.15416	 36.03912	  6.56675	 19.01328	 -1.49812	 42.75024	710.75000	 38.10	
 16.995	-150.919	 37.04177	 -4.63349	 35.09466	  4.56301	 21.44717	 -1.42600	 42.73705	710.65997	 38.20	
 16.988	-145.161	 37.06320	 -3.94178	 33.92191	  2.86949	 23.67971	 -1.37175	 42.73724	710.59003	 38.10	
 17.014	-139.343	 37.11633	 -3.06797	 32.54345	  1.32547	 25.83028	 -1.32455	 42.75710	710.70001	 38.10	
 17.007	-133.546	 37.12698	 -1.97877	 30.88879	 -0.09173	 27.83050	 -1.25789	 42.73657	710.70001	 38.20	
 17.001	-127.699	 37.14275	 -0.64853	 29.05300	 -1.28838	 29.62335	 -1.24356	 42.73005	710.75000	 38.10	
 17.006	-121.937	 37.16219	  0.75870	 27.20261	 -2.39855	 31.32134	 -1.21307	 42.75315	710.78003	 38.10	
 17.002	-116.134	 37.20911	  2.32592	 25.11826	 -3.29749	 32.81371	 -1.15113	 42.74537	710.65002	 38.10	
 17.001	-110.310	 37.25096	  4.10294	 22.87057	 -3.97273	 34.11769	 -1.18449	 42.74277	710.67999	 38.10	
 16.988	-104.517	 37.29441	  6.03436	 20.63509	 -4.54688	 35.11032	 -1.17779	 42.75120	710.69000	 38.10	
 17.008	-98.662	 37.31937	  8.06253	 18.26797	 -5.03755	 35.87651	 -1.17758	 42.76912	710.71997	 38.10	
 16.996	-92.909	 37.31919	 10.20979	 16.04117	 -5.41526	 36.33914	 -1.18991	 42.73356	710.67999	 38.10	
 16.996	-87.091	 37.34098	 12.40828	 13.81636	 -5.59502	 36.57303	 -1.19903	 42.74548	710.75000	 38.10	
 17.012	-81.253	 37.33897	 14.64988	 11.56544	 -5.57523	 36.54286	 -1.19575	 42.74402	710.63000	 38.10	
 16.988	-75.483	 37.37233	 16.94783	  9.43035	 -5.31006	 36.18853	 -1.21111	 42.73552	710.65002	 38.10	
 17.001	-69.690	 37.37273	 19.24231	  7.30134	 -4.96371	 35.61518	 -1.24313	 42.74562	710.63000	 38.10	
 17.002	-63.866	 37.37254	 21.49015	  5.26836	 -4.39548	 34.75368	 -1.28366	 42.73993	710.33002	 38.10	
 17.006	-58.063	 37.31462	 23.79169	  3.30522	 -3.78416	 33.66841	 -1.32061	 42.71989	710.63000	 38.10	
 17.001	-52.301	 37.32298	 25.90635	  1.59374	 -3.06740	 32.29531	 -1.36514	 42.72736	710.62000	 38.10	
 17.007	-46.454	 37.28951	 27.96766	 -0.01278	 -2.05404	 30.66813	 -1.41551	 42.70483	710.62000	 38.10	
 17.014	-40.657	 37.25771	 29.79623	 -1.39907	 -0.92144	 28.93459	 -1.45180	 42.72666	710.52002	 38.10	
 16.988	-34.839	 37.21157	 31.50287	 -2.56707	  0.36621	 27.02978	 -1.45314	 42.71117	710.58002	 38.10	
 16.995	-29.081	 37.20168	 33.05301	 -3.50715	  1.92014	 24.95549	 -1.47137	 42.72166	710.59003	 38.10	
 16.990	-23.241	 37.19700	 34.39021	 -4.18174	  3.66261	 22.68401	 -1.50766	 42.72993	710.65002	 38.10	
 17.000	-17.404	 37.15020	 35.45535	 -4.79239	  5.49235	 20.24322	 -1.56502	 42.71658	710.67999	 38.10	
 17.009	-11.617	 37.06369	 36.27144	 -5.37187	  7.47521	 18.16237	 -1.63714	 42.68766	710.60999	 38.10	
 16.990	 -5.821	 37.02189	 36.81398	 -5.74836	  9.58792	 15.89721	 -1.70333	 42.71996	710.65002	 38.10	
 17.000	  0.000	 36.95259	 37.11964	 -6.07654	 11.69745	 13.61246	 -1.76015	 42.72380	710.64001	 38.10	
 16.990	  5.821	 36.90528	 37.15017	 -6.26481	 13.89221	 11.32851	 -1.76136	 42.73134	710.69000	 38.10	
 17.009	 11.617	 36.81726	 36.93572	 -6.15540	 16.14038	  9.02302	 -1.78841	 42.72269	710.63000	 38.10	
 17.000	 17.404	 36.75931	 36.43209	 -5.82201	 18.31602	  6.86612	 -1.78068	 42.71461	710.70001	 38.10	
 16.990	 23.241	 36.72738	 35.67330	 -5.44446	 20.63169	  4.75264	 -1.82922	 42.70743	710.35999	 38.10	
 16.995	 29.081	 36.63826	 34.63560	 -5.02182	 22.95923	  2.77976	 -1.85795	 42.70583	710.63000	 38.20	
 16.988	 34.839	 36.61956	 33.44004	 -4.34249	 25.11968	  1.15153	 -1.93701	 42.71013	710.50000	 38.20	
 17.014	 40.657	 36.56412	 31.96651	 -3.48417	 27.21505	 -0.48829	 -2.02241	 42.71651	710.60999	 38.20	
 17.007	 46.454	 36.53695	 30.19006	 -2.35594	 29.19145	 -1.94951	 -2.08951	 42.71028	709.96997	 38.20	
 17.001	 52.301	 36.49528	 28.36560	 -1.21021	 30.97980	 -3.26212	 -2.14202	 42.71393	710.64001	 38.20	
 17.006	 58.063	 36.44466	 26.37792	  0.10565	 32.59011	 -4.44912	 -2.15775	 42.69392	709.88000	 38.20	
 17.002	 63.866	 36.46532	 24.20716	  1.68930	 34.02924	 -5.46500	 -2.16188	 42.71461	709.89001	 38.20	
 17.001	 69.690	 36.41186	 21.88807	  3.41822	 35.21284	 -6.25671	 -2.16208	 42.68913	709.85999	 38.20	
 16.988	 75.483	 36.38559	 19.53768	  5.36045	 36.18219	 -6.79168	 -2.19991	 42.71209	710.35999	 38.20	
 17.012	 81.253	 36.31739	 17.40765	  7.33667	 36.89955	 -7.16817	 -2.24141	 42.68134	709.90997	 38.20	
 16.996	 87.091	 36.34571	 15.17433	  9.46461	 37.37495	 -7.30177	 -2.30133	 42.70719	710.41998	 38.20	
 16.996	 92.909	 36.32397	 12.94528	 11.64879	 37.55648	 -7.35848	 -2.32633	 42.70290	710.22998	 38.20	
 17.008	 98.662	 36.29718	 10.73100	 13.87246	 37.52556	 -7.31401	 -2.30521	 42.71349	709.94000	 38.20	
 16.988	104.517	 36.30998	  8.54710	 16.19569	 37.18602	 -7.00864	 -2.29203	 42.69962	710.64001	 38.20	
 17.001	110.310	 36.30507	  6.39443	 18.40413	 36.61473	 -6.55416	 -2.27006	 42.68921	710.62000	 38.20	
 17.002	116.134	 36.33505	  4.35398	 20.77909	 35.76614	 -5.98622	 -2.26562	 42.69520	709.96997	 38.20	
 17.006	121.937	 36.33935	  2.48638	 23.05288	 34.68081	 -5.47845	 -2.30473	 42.69799	709.78003	 38.20	
 17.001	127.699	 36.35107	  0.93598	 25.25983	 33.35798	 -4.67134	 -2.31296	 42.70126	710.65002	 38.20	
 17.007	133.546	 36.36076	 -0.48432	 27.31402	 31.79759	 -3.72340	 -2.30492	 42.68829	710.19000	 38.20	
 17.014	139.343	 36.39019	 -1.92215	 29.29800	 30.03608	 -2.62343	 -2.29117	 42.68930	709.88000	 38.20	
 16.988	145.161	 36.44075	 -3.10336	 31.07587	 28.18854	 -1.29593	 -2.23411	 42.68884	709.94000	 38.20	
 16.995	150.919	 36.47729	 -4.00437	 32.65088	 26.21139	  0.10217	 -2.17126	 42.70113	709.95001	 38.20	
 16.990	156.759	 36.55753	 -4.67936	 34.03709	 24.05201	  1.88892	 -2.08955	 42.70138	709.84998	 38.20	
 17.000	162.596	 36.59960	 -5.39334	 35.20935	 21.76564	  3.77764	 -2.07648	 42.69639	709.91998	 38.20	
 17.009	168.383	 36.62785	 -5.83645	 36.09680	 19.41723	  5.75388	 -2.02978	 42.68445	710.60999	 38.20	
 16.990	174.179	 36.69729	 -5.97772	 36.71944	 17.25261	  7.89825	 -1.91711	 42.67400	710.56000	 38.20	
 18.709	174.675	 35.24559	 -8.54118	 37.97454	 16.20021	  6.58299	 -1.98555	 42.66999	709.90002	 38.20	
 18.703	169.441	 35.21204	 -8.36492	 37.37361	 18.42031	  4.49853	 -2.05132	 42.67794	710.10999	 38.20	
 18.691	164.085	 35.21756	 -7.87164	 36.52277	 20.65213	  2.57879	 -2.14445	 42.69537	709.84998	 38.20	
 18.706	158.818	 35.13503	 -7.35053	 35.46379	 22.99223	  0.76023	 -2.21825	 42.67877	709.81000	 38.20	
 18.695	153.537	 35.12268	 -6.55370	 34.17455	 25.25162	 -0.87921	 -2.30949	 42.69963	709.91998	 38.20	
 18.704	148.255	 35.05879	 -5.65945	 32.68892	 27.28615	 -2.28788	 -2.39034	 42.66866	710.62000	 38.20	
 18.698	142.952	 35.02776	 -4.67591	 31.03577	 29.22942	 -3.60604	 -2.50305	 42.68734	710.06000	 38.20	
 18.699	137.625	 34.98187	 -3.47996	 29.16750	 31.05574	 -4.86687	 -2.56553	 42.69757	709.89001	 38.20	
 18.705	132.343	 34.92657	 -2.12181	 27.12591	 32.74459	 -5.94505	 -2.60289	 42.67193	709.90002	 38.20	
 18.713	127.067	 34.92299	 -0.78310	 25.03569	 34.27076	 -6.95821	 -2.61126	 42.68869	710.32001	 38.20	
 18.700	121.794	 34.91993	  0.83929	 22.80433	 35.62789	 -7.81671	 -2.57856	 42.70592	709.98999	 38.20	
 18.698	116.504	 34.87704	  2.54262	 20.53655	 36.72313	 -8.35287	 -2.61946	 42.69107	709.97998	 38.20	
 18.707	111.165	 34.86642	  4.51147	 18.17271	 37.65176	 -8.95422	 -2.65646	 42.69469	710.62000	 38.20	
 18.690	105.863	 34.87814	  6.60665	 15.90541	 38.24003	 -9.29267	 -2.69679	 42.70661	709.96997	 38.20	
 18.696	100.583	 34.86740	  8.70604	 13.65899	 38.60898	 -9.48834	 -2.69927	 42.68426	710.56000	 38.20	
 18.700	 95.309	 34.84887	 10.87770	 11.38400	 38.76414	 -9.66369	 -2.72465	 42.67284	710.53998	 38.20	
 18.700	 90.000	 34.86563	 12.97099	  9.24749	 38.69284	 -9.80397	 -2.70685	 42.69003	709.90997	 38.20	
 18.700	 84.691	 34.86572	 15.14082	  7.17523	 38.38998	 -9.84323	 -2.65257	 42.68858	710.56000	 38.20	
 18.696	 79.417	 34.86961	 17.42598	  5.06601	 37.80812	 -9.57961	 -2.58928	 42.65412	710.70001	 38.20	
 18.690	 74.137	 34.94751	 19.58090	  3.12770	 37.04737	 -9.09040	 -2.55725	 42.69395	710.31000	 38.20	
 18.707	 68.835	 34.95309	 21.87307	  1.35051	 36.04713	 -8.54570	 -2.53586	 42.67178	710.60999	 38.20	
 18.698	 63.496	 34.99765	 24.28376	 -0.28687	 34.78316	 -7.68371	 -2.54142	 42.68649	710.53003	 38.20	
 18.700	 58.206	 35.01414	 26.44758	 -1.76432	 33.34675	 -6.71641	 -2.55665	 42.66366	710.64001	 38.20	
 18.713	 52.933	 35.06506	 28.44477	 -3.05311	 31.76550	 -5.57421	 -2.56566	 42.68693	710.65002	 38.20	
 18.705	 47.657	 35.08233	 30.31613	 -4.20128	 29.96846	 -4.25351	 -2.51965	 42.67700	710.70001	 38.20	
 18.699	 42.375	 35.12325	 32.08482	 -5.28484	 28.05239	 -2.91089	 -2.43715	 42.69168	710.64001	 38.20	
 18.698	 37.048	 35.16569	 33.68690	 -6.27857	 25.94826	 -1.32939	 -2.35875	 42.69525	710.09998	 38.30	
 18.704	 31.745	 35.19077	 35.06541	 -7.12805	 23.78550	  0.28329	 -2.30656	 42.69080	710.47998	 38.30	
 18.695	 26.463	 35.24417	 36.16887	 -7.68137	 21.55044	  1.96644	 -2.22603	 42.66526	710.58002	 38.20	
 18.706	 21.182	 35.30982	 37.07858	 -7.95055	 19.26517	  3.83046	 -2.19858	 42.68105	710.08002	 38.30	
 18.691	 15.915	 35.34705	 37.72122	 -8.10013	 17.05709	  5.88361	 -2.12964	 42.66517	709.94000	 38.30	
 18.703	 10.559	 35.41091	 38.17879	 -8.37450	 14.81937	  8.10865	 -2.08580	 42.68087	710.25000	 38.30	
 18.709	  5.325	 35.42789	 38.35472	 -8.67198	 12.50650	 10.37889	 -2.03129	 42.66641	710.64001	 38.20	
 18.700	  0.000	 35.53447	 38.32772	 -8.37237	 10.40529	 12.62736	 -1.92904	 42.68139	710.69000	 38.20	
 18.709	 -5.325	 35.60583	 38.05365	 -8.13059	  8.26108	 14.91917	 -1.84626	 42.68426	710.66998	 38.20	
 18.703	-10.559	 35.67268	 37.53960	 -7.74383	  6.21868	 17.19876	 -1.79006	 42.67855	710.65002	 38.20	
 18.691	-15.915	 35.75954	 36.75612	 -7.11912	  4.21445	 19.42351	 -1.70050	 42.67640	710.67999	 38.20	
 18.706	-21.182	 35.83445	 35.77364	 -6.47163	  2.45630	 21.60716	 -1.61278	 42.70119	710.66998	 38.20	
 18.695	-26.463	 35.84902	 34.52074	 -5.88464	  0.77167	 23.98013	 -1.52097	 42.69271	710.70001	 38.20	
 18.704	-31.745	 35.84130	 33.07919	 -5.20879	 -0.78144	 26.11438	 -1.47772	 42.68137	710.67999	 38.20	
 18.698	-37.048	 35.87214	 31.45503	 -4.16672	 -2.06178	 28.10229	 -1.43366	 42.66478	710.65002	 38.20	
 18.699	-42.375	 35.89356	 29.65358	 -3.01144	 -3.13433	 29.94977	 -1.37310	 42.63921	710.13000	 38.20	
 18.705	-47.657	 35.94749	 27.84201	 -1.69160	 -4.21463	 31.74730	 -1.34852	 42.67668	709.90002	 38.20	
 18.713	-52.933	 35.95194	 25.76364	 -0.14409	 -5.25339	 33.29871	 -1.31772	 42.66245	709.92999	 38.20	
 18.700	-58.206	 35.98499	 23.57352	  1.56751	 -6.02671	 34.61642	 -1.27548	 42.66928	709.82001	 38.20	
 18.698	-63.496	 35.96705	 21.21616	  3.39514	 -6.68033	 35.73312	 -1.23376	 42.65071	710.51001	 38.20	
 18.707	-68.835	 35.96248	 19.00623	  5.37704	 -7.30137	 36.64088	 -1.19902	 42.65436	710.56000	 38.20	
 18.690	-74.137	 35.96154	 16.69283	  7.45734	 -7.65007	 37.27977	 -1.15868	 42.64947	710.47998	 38.20	
 18.696	-79.417	 35.93263	 14.44395	  9.57315	 -7.76854	 37.65416	 -1.10158	 42.62363	710.48999	 38.20	
 18.700	-84.691	 35.92312	 12.20201	 11.75218	 -7.89724	 37.83850	 -1.10212	 42.65557	709.84998	 38.20	
 18.700	-90.000	 35.88718	 10.01017	 13.91633	 -7.95850	 37.74228	 -1.08753	 42.64933	709.84003	 38.20	
 18.700	-95.309	 35.87008	  7.88309	 16.12768	 -7.78897	 37.39459	 -1.08745	 42.65362	709.96997	 38.20	
 18.696	-100.583	 35.83367	  5.78172	 18.42315	 -7.32692	 36.81064	 -1.07538	 42.64296	710.22998	 38.20	
 18.690	-105.863	 35.83306	  3.91298	 20.73415	 -6.80168	 35.98802	 -1.07348	 42.65704	709.83002	 38.20	
 18.707	-111.165	 35.80935	  2.12762	 23.00088	 -6.24533	 34.94503	 -1.09579	 42.65240	709.77002	 38.20	
 18.698	-116.504	 35.76806	  0.39102	 25.23431	 -5.55393	 33.64577	 -1.08004	 42.66275	709.90997	 38.20	
 18.700	-121.794	 35.73184	 -1.05059	 27.30228	 -4.66424	 32.16890	 -1.12691	 42.63381	709.87000	 38.20	
 18.713	-127.067	 35.68295	 -2.51059	 29.27807	 -3.58004	 30.49770	 -1.15530	 42.61375	709.79999	 38.20	
 18.705	-132.343	 35.67061	 -3.83460	 31.14402	 -2.46282	 28.67197	 -1.17909	 42.65020	709.82001	 38.20	
 18.699	-137.625	 35.66782	 -4.95276	 32.80608	 -1.19215	 26.68854	 -1.21960	 42.65438	709.84003	 38.20	
 18.698	-142.952	 35.62951	 -5.89120	 34.26609	  0.27606	 24.57543	 -1.27813	 42.64926	709.77002	 38.20	
 18.704	-148.255	 35.59686	 -6.57628	 35.47701	  1.89545	 22.36069	 -1.37564	 42.64560	709.76001	 38.20	
 18.695	-153.537	 35.57922	 -7.11479	 36.52633	  3.63332	 20.07218	 -1.43017	 42.64049	709.83002	 38.20	
 18.706	-158.818	 35.53927	 -7.75866	 37.39106	  5.59377	 17.77724	 -1.50670	 42.64654	709.77002	 38.30	
 18.691	-164.085	 35.48639	 -8.13902	 37.97556	  7.61251	 15.54925	 -1.57524	 42.65770	709.85999	 38.30	
 18.703	-169.441	 35.41602	 -8.45348	 38.32223	  9.73507	 13.22346	 -1.67008	 42.65622	709.75000	 38.30	
 18.709	-174.675	 35.34373	 -8.52614	 38.40615	 11.85607	 10.97639	 -1.72751	 42.63512	709.79999	 38.30	
 18.700	180.000	 35.29600	 -8.70406	 38.32100	 13.93931	  8.82075	 -1.83365	 42.66178	709.82001	 38.30	
 20.400	180.000	 33.72703	-11.31999	 39.38859	 12.67427	  7.47723	 -1.80037	 42.64468	709.81000	 38.30	
 20.401	-175.153	 33.81297	-10.92990	 39.47887	 10.73100	  9.59423	 -1.65291	 42.63383	709.81000	 38.30	
 20.407	-170.264	 33.87752	-10.79257	 39.42227	  8.75794	 11.75015	 -1.55770	 42.63654	709.65002	 38.30	
 20.410	-165.423	 33.92417	-10.68416	 39.13937	  6.73713	 13.97479	 -1.48188	 42.63427	709.84003	 38.30	
 20.392	-160.496	 33.97680	-10.47039	 38.64079	  4.66845	 16.28069	 -1.40014	 42.63319	709.81000	 38.30	
 20.401	-155.705	 34.01140	 -9.98574	 37.90907	  2.78643	 18.50299	 -1.32588	 42.63791	709.82001	 38.30	
 20.405	-150.835	 34.04936	 -9.33493	 36.93342	  1.01693	 20.79627	 -1.28226	 42.62032	709.73999	 38.30	
 20.397	-145.903	 34.10159	 -8.75148	 35.76834	 -0.62952	 23.08152	 -1.18990	 42.64163	709.78003	 38.30	
 20.392	-141.062	 34.13718	 -7.88922	 34.48724	 -2.17746	 25.33850	 -1.12192	 42.64547	709.69000	 38.30	
 20.396	-136.227	 34.14241	 -6.90480	 32.96473	 -3.57769	 27.39401	 -1.08043	 42.63218	709.81000	 38.30	
 20.408	-131.372	 34.16203	 -5.72377	 31.26659	 -4.75908	 29.36736	 -1.04644	 42.62049	709.79999	 38.30	
 20.410	-126.511	 34.23767	 -4.39321	 29.41320	 -5.89222	 31.25595	 -1.04844	 42.66165	709.81000	 38.30	
 20.400	-121.604	 34.22659	 -2.95541	 27.33409	 -6.96936	 32.92949	 -1.04039	 42.62384	709.79999	 38.30	
 20.403	-116.741	 34.25188	 -1.53520	 25.23028	 -7.86109	 34.43130	 -1.01401	 42.64901	709.81000	 38.30	
 20.413	-111.900	 34.27574	  0.07417	 23.03593	 -8.56811	 35.70720	 -0.99389	 42.63365	709.81000	 38.30	
 20.398	-107.004	 34.29937	  1.85503	 20.77110	 -9.10394	 36.76967	 -1.02283	 42.62127	709.76001	 38.30	
 20.394	-102.132	 34.33430	  3.70588	 18.45736	 -9.66390	 37.65107	 -1.03606	 42.63956	709.78003	 38.30	
 20.403	-97.332	 34.33302	  5.60975	 16.11894	-10.28446	 38.32793	 -1.00701	 42.63694	709.77002	 38.30	
 20.392	-92.440	 34.37149	  7.72509	 13.84029	-10.48172	 38.73767	 -0.99093	 42.63411	709.78998	 38.30	
 20.392	-87.560	 34.42035	  9.84263	 11.68586	-10.35120	 38.94343	 -1.01332	 42.62619	709.76001	 38.30	
 20.403	-82.668	 34.43750	 11.93372	  9.62043	-10.22407	 38.94680	 -1.01989	 42.61994	709.77002	 38.30	
 20.394	-77.868	 34.43823	 14.03208	  7.57045	-10.36255	 38.72934	 -1.03778	 42.64170	709.77002	 38.30	
 20.398	-72.996	 34.43449	 16.30359	  5.44097	-10.16897	 38.29668	 -1.04885	 42.64988	709.77002	 38.30	
 20.413	-68.100	 34.43391	 18.65763	  3.35743	 -9.66008	 37.60337	 -1.11760	 42.61678	709.76001	 38.30	
 20.403	-63.259	 34.46675	 20.83758	  1.54670	 -9.04187	 36.69779	 -1.15174	 42.62016	709.81000	 38.30	
 20.400	-58.396	 34.44335	 23.14651	 -0.15718	 -8.42640	 35.57616	 -1.17273	 42.62327	709.69000	 38.30	
 20.410	-53.489	 34.44966	 25.45919	 -1.84168	 -7.61111	 34.21384	 -1.19359	 42.63420	709.71997	 38.30	
 20.408	-48.628	 34.43413	 27.59077	 -3.33780	 -6.51471	 32.62733	 -1.22932	 42.61649	709.67999	 38.30	
 20.396	-43.773	 34.42085	 29.47259	 -4.57642	 -5.47357	 30.92847	 -1.28090	 42.62360	709.71002	 38.30	
 20.392	-38.938	 34.42242	 31.27821	 -5.59850	 -4.40778	 29.10921	 -1.31308	 42.64760	709.72998	 38.30	
 20.397	-34.097	 34.35973	 32.90369	 -6.78968	 -3.31370	 27.17867	 -1.37716	 42.63080	709.78998	 38.30	
 20.405	-29.165	 34.31008	 34.46887	 -7.77616	 -1.97469	 25.05825	 -1.43426	 42.63388	709.76001	 38.30	
 20.401	-24.295	 34.29610	 35.82328	 -8.32778	 -0.50693	 22.84795	 -1.53995	 42.64255	709.81000	 38.30	
 20.392	-19.504	 34.28294	 36.96091	 -8.87603	  1.15726	 20.50667	 -1.64498	 42.63828	709.70001	 38.30	
 20.410	-14.577	 34.18829	 37.91007	 -9.63485	  3.01350	 18.37746	 -1.69886	 42.63246	709.78003	 38.30	
 20.407	 -9.736	 34.09803	 38.65845	-10.32729	  4.92246	 16.05115	 -1.75995	 42.63575	709.78998	 38.30	
 20.401	 -4.847	 34.03106	 39.12822	-10.58251	  6.99959	 13.70152	 -1.87025	 42.61820	709.70001	 38.40	
 20.400	  0.000	 34.00915	 39.38129	-10.58259	  9.06765	 11.56292	 -1.97953	 42.63765	709.71997	 38.40	
 20.401	  4.847	 33.88285	 39.44983	-11.12959	 10.99984	  9.35355	 -2.13449	 42.63973	709.71997	 38.30	
 20.407	  9.736	 33.85412	 39.28695	-10.78690	 13.35491	  7.06711	 -2.21724	 42.63504	709.77002	 38.40	
 20.410	 14.577	 33.76408	 38.92060	-10.80897	 15.48708	  4.98251	 -2.37889	 42.62583	709.82001	 38.40	
 20.392	 19.504	 33.71298	 38.30405	-10.64230	 17.76846	  2.97071	 -2.42701	 42.63502	709.83002	 38.40	
 20.401	 24.295	 33.64020	 37.53867	-10.49006	 19.91730	  1.06701	 -2.43103	 42.64521	709.69000	 38.40	
 20.405	 29.165	 33.59181	 36.47491	-10.04034	 22.17661	 -0.72721	 -2.48033	 42.64444	709.71997	 38.40	
 20.397	 34.097	 33.57338	 35.18468	 -9.22392	 24.49813	 -2.37068	 -2.56450	 42.63634	709.73999	 38.40	
 20.392	 38.938	 33.55734	 33.74442	 -8.33345	 26.63690	 -3.83996	 -2.65946	 42.64241	709.77002	 38.30	
 20.396	 43.773	 33.50279	 32.13482	 -7.33183	 28.62637	 -5.27322	 -2.70327	 42.63956	709.71997	 38.40	
 20.408	 48.628	 33.50032	 30.32952	 -6.09721	 30.57646	 -6.57231	 -2.74680	 42.63804	709.78998	 38.40	
 20.410	 53.489	 33.46402	 28.36456	 -4.88449	 32.38721	 -7.85953	 -2.79734	 42.62537	709.79999	 38.40	
 20.400	 58.396	 33.44218	 26.34937	 -3.62545	 34.01253	 -8.93798	 -2.79462	 42.63802	709.77002	 38.40	
 20.403	 63.259	 33.38936	 24.15014	 -2.31221	 35.43310	 -9.87155	 -2.78702	 42.62840	709.88000	 38.40	
 20.413	 68.100	 33.32419	 21.78123	 -0.66456	 36.67337	-10.66082	 -2.80908	 42.59676	709.81000	 38.40	
 20.398	 72.996	 33.32803	 19.52225	  1.08855	 37.73465	-11.29125	 -2.82616	 42.62538	709.78998	 38.40	
 20.394	 77.868	 33.31216	 17.31405	  2.91507	 38.54129	-11.78893	 -2.85214	 42.62061	709.85999	 38.40	
 20.403	 82.668	 33.27461	 15.07819	  4.86072	 39.15148	-12.10478	 -2.90967	 42.60984	709.90002	 38.40	
 20.392	 87.560	 33.25640	 12.79399	  6.94616	 39.55211	-12.28499	 -2.94548	 42.61888	709.92999	 38.40	
 20.392	 92.440	 33.27551	 10.75660	  8.98752	 39.74003	-12.06442	 -2.98166	 42.63020	709.84003	 38.40	
 20.403	 97.332	 33.23670	  8.72567	 11.02607	 39.71144	-11.92893	 -3.03174	 42.60645	709.84998	 38.40	
 20.394	102.132	 33.22443	  6.67135	 13.16920	 39.52840	-11.96622	 -3.02470	 42.62312	709.91998	 38.40	
 20.398	107.004	 33.18401	  4.54964	 15.41808	 39.08527	-11.81394	 -2.98027	 42.59503	709.92999	 38.40	
 20.413	111.900	 33.16222	  2.55710	 17.68275	 38.42191	-11.49739	 -2.90270	 42.61679	709.83002	 38.40	
 20.403	116.741	 33.20168	  0.77244	 19.98566	 37.52576	-10.93377	 -2.79758	 42.62027	709.90997	 38.40	
 20.400	121.604	 33.26533	 -0.88952	 22.32311	 36.41383	-10.22459	 -2.76040	 42.62737	709.84998	 38.40	
 20.410	126.511	 33.29582	 -2.47362	 24.59321	 35.06676	 -9.38215	 -2.75056	 42.61144	709.92999	 38.40	
 20.408	131.372	 33.32359	 -3.87268	 26.78007	 33.67724	 -8.39551	 -2.70448	 42.61840	709.90002	 38.40	
 20.396	136.227	 33.36121	 -4.99332	 28.77418	 32.07915	 -7.43411	 -2.66605	 42.63457	709.91998	 38.40	
 20.392	141.062	 33.37687	 -6.25007	 30.66831	 30.24226	 -6.29992	 -2.60856	 42.61298	709.90997	 38.40	
 20.397	145.903	 33.41516	 -7.38972	 32.45037	 28.24769	 -4.88823	 -2.55492	 42.60735	709.78998	 38.40	
 20.405	150.835	 33.46347	 -8.39859	 34.08728	 26.17695	 -3.48843	 -2.44481	 42.61484	709.94000	 38.40	
 20.401	155.705	 33.47915	 -9.26998	 35.46144	 24.04365	 -2.08411	 -2.30945	 42.61956	710.00000	 38.40	
 20.392	160.496	 33.54887	 -9.90341	 36.65884	 21.67474	 -0.38584	 -2.18781	 42.62211	710.64001	 38.40	
 20.410	165.423	 33.59843	-10.47908	 37.68034	 19.48631	  1.40430	 -2.12762	 42.63276	709.91998	 38.40	
 20.407	170.264	 33.62052	-10.90794	 38.45205	 17.22720	  3.21044	 -2.03898	 42.61384	709.98999	 38.40	
 20.401	175.153	 33.67317	-11.10264	 39.02117	 14.94331	  5.33023	 -1.94282	 42.61061	709.96997	 38.40	
  0.141	 45.000	 42.75232	 18.26795	 18.11298	 19.01791	 16.83379	  0.98264	 42.62424	709.95001	 38.40	
  4.001	128.691	 42.48778	 14.58875	 21.06812	 23.25460	 12.52382	  0.69820	 42.59682	709.92999	 38.40	
  4.002	 76.995	 42.50150	 19.35723	 16.15115	 24.02235	 11.85348	  0.83049	 42.60941	709.88000	 38.40	
  4.002	 25.892	 42.56888	 23.08025	 13.07479	 20.64923	 14.96662	  0.93660	 42.60786	709.94000	 38.40	
  4.002	-25.892	 42.64656	 22.68273	 13.54367	 15.77103	 19.65519	  0.87251	 42.63299	709.92999	 38.40	
  4.002	-76.995	 42.64748	 18.63574	 17.16872	 13.38004	 22.49754	  0.74355	 42.62519	709.89001	 38.40	
  4.001	-128.691	 42.61667	 14.07977	 21.99023	 14.66708	 20.99615	  0.63757	 42.62311	710.15002	 38.40	
  4.000	180.000	 42.55159	 12.48846	 23.69682	 18.94572	 16.15724	  0.60833	 42.61711	710.22998	 38.40	
  8.000	180.000	 41.63497	  6.75896	 28.36895	 18.37614	 15.13168	 -0.28375	 42.59498	709.89001	 38.40	
  7.991	-152.370	 41.74927	  7.53680	 27.57893	 13.53134	 20.29307	 -0.20644	 42.59793	709.96002	 38.40	
  7.997	-124.550	 41.84760	 10.44206	 24.39959	  9.72968	 24.84953	 -0.12207	 42.62300	709.92999	 38.40	
  8.006	-96.837	 41.89972	 14.94182	 19.35396	  7.79005	 27.21572	 -0.05729	 42.61017	709.91998	 38.50	
  7.988	-69.228	 41.91759	 20.11716	 14.34824	  8.05188	 26.99427	  0.10865	 42.62200	709.96002	 38.50	
  7.997	-41.563	 41.91120	 24.89617	 10.15770	 10.35838	 24.21645	  0.21443	 42.63306	709.96002	 38.40	
  8.008	-13.821	 41.83617	 27.73723	  7.57858	 14.41792	 19.32688	  0.34787	 42.61264	709.97998	 38.40	
  8.008	 13.821	 41.74170	 28.07513	  7.04950	 19.39298	 14.27239	  0.27243	 42.62981	710.27002	 38.40	
  7.997	 41.563	 41.63589	 25.83047	  8.75173	 24.45303	  9.74726	  0.33151	 42.61625	709.92999	 38.40	
  7.988	 69.228	 41.51291	 21.43675	 12.38762	 27.88083	  6.66412	  0.10334	 42.58939	709.97998	 38.40	
  8.006	 96.837	 41.47999	 16.14399	 17.10261	 28.94171	  5.84581	  0.10890	 42.60545	709.90997	 38.40	
  7.997	124.550	 41.48891	 11.50263	 22.45456	 27.42704	  7.10307	 -0.06263	 42.61423	709.92999	 38.40	
  7.991	152.370	 41.56057	  8.07948	 26.53753	 23.65199	 10.42426	 -0.21073	 42.61284	710.60999	 38.40	
 12.009	161.059	 39.83085	  1.68602	 31.11353	 22.65006	  8.29239	 -1.16585	 42.62082	709.85999	 38.40	
 12.013	142.081	 39.72261	  4.01014	 27.81130	 27.44726	  4.13595	 -1.17009	 42.61160	709.96002	 38.40	
 12.006	123.113	 39.66052	  7.78512	 23.14993	 30.98263	  1.32456	 -1.05526	 42.60360	709.90002	 38.40	
 12.007	104.200	 39.62762	 12.44664	 17.75395	 32.94161	 -0.18488	 -1.08830	 42.60872	710.00000	 38.40	
 11.989	 85.301	 39.67651	 17.56601	 12.66620	 32.94843	 -0.27751	 -0.99996	 42.61457	709.88000	 38.50	
 12.013	 66.294	 39.73814	 22.96687	  7.93594	 31.05467	  1.19180	 -0.88961	 42.61499	710.02002	 38.50	
 12.012	 47.388	 39.79835	 27.61187	  4.22288	 27.56926	  3.99022	 -0.82669	 42.60927	709.96997	 38.50	
 11.990	 28.440	 39.91309	 30.92470	  1.94917	 22.78825	  8.15065	 -0.62260	 42.62218	709.96002	 38.40	
 11.991	  9.464	 40.06201	 32.52822	  0.93383	 17.34544	 13.14297	 -0.65606	 42.64231	709.92999	 38.40	
 11.991	 -9.464	 40.19706	 32.14903	  1.41087	 12.45103	 18.23059	 -0.73136	 42.63909	710.02002	 38.40	
 11.990	-28.440	 40.27946	 29.88093	  3.26793	  7.95939	 23.64761	 -0.81634	 42.64120	710.01001	 38.40	
 12.012	-47.388	 40.33079	 26.04437	  6.39454	  4.45744	 27.99072	 -0.94580	 42.63517	710.06000	 38.40	
 12.013	-66.294	 40.38020	 21.02874	 10.73660	  2.37852	 30.82722	 -0.93422	 42.64392	710.10999	 38.40	
 11.989	-85.301	 40.41934	 15.68608	 15.73790	  1.65144	 31.89086	 -0.99557	 42.67781	710.01001	 38.40	
 12.007	-104.200	 40.33540	 10.63970	 21.04746	  2.33133	 30.83753	 -0.99082	 42.65425	709.88000	 38.40	
 12.006	-123.113	 40.26817	  6.25456	 26.08148	  4.39662	 28.05409	 -1.04221	 42.68913	710.00000	 38.40	
 12.013	-142.081	 40.21861	  3.07011	 29.92377	  7.74296	 23.82029	 -1.04466	 42.68557	709.96002	 38.40	
 12.009	-161.059	 40.14815	  1.26968	 32.30368	 12.23676	 18.29522	 -1.10825	 42.70474	709.95001	 38.40	
 16.000	180.000	 37.52381	 -4.87696	 36.34148	 15.58724	 10.76022	 -1.76364	 42.69855	710.03998	 38.40	
 15.990	-165.604	 37.64591	 -4.65854	 36.16171	 10.49006	 16.07208	 -1.61411	 42.72004	710.65997	 38.40	
 16.002	-151.165	 37.77206	 -3.34432	 34.47045	  5.74410	 21.44186	 -1.42157	 42.74313	710.71997	 38.40	
 16.002	-136.836	 37.87100	 -1.35041	 31.37360	  1.87380	 26.47685	 -1.33819	 42.75564	710.66998	 38.40	
 15.995	-122.439	 37.91471	  1.74337	 27.15781	 -1.06241	 30.69956	 -1.24710	 42.75786	710.65997	 38.40	
 15.993	-107.966	 37.99762	  5.90090	 22.04828	 -2.90812	 33.84793	 -1.18604	 42.75823	710.66998	 38.40	
 16.005	-93.629	 38.07440	 10.73729	 16.69889	 -4.00056	 35.48765	 -1.22329	 42.76276	710.76001	 38.40	
 15.992	-79.234	 38.12127	 15.97762	 11.55460	 -4.10564	 35.64618	 -1.24097	 42.77202	710.73999	 38.40	
 16.009	-64.774	 38.12444	 21.31953	  6.60722	 -3.20216	 34.21323	 -1.28712	 42.79088	710.75000	 38.40	
 15.997	-50.364	 38.10229	 26.50518	  2.22873	 -1.40863	 31.22738	 -1.37093	 42.79459	710.78003	 38.40	
 15.997	-36.045	 38.04934	 30.79935	 -1.07620	  1.35425	 27.23475	 -1.43885	 42.81329	710.01001	 38.40	
 16.000	-21.597	 37.98141	 34.14529	 -3.21473	  5.32961	 22.07767	 -1.45824	 42.80257	710.71002	 38.40	
 16.003	 -7.169	 37.87085	 36.04477	 -4.42365	  9.97087	 16.82789	 -1.53120	 42.82810	710.64001	 38.40	
 16.003	  7.169	 37.72199	 36.41733	 -4.94933	 15.00567	 11.48799	 -1.60298	 42.82203	710.71997	 38.40	
 16.000	 21.597	 37.60535	 35.29503	 -4.25149	 20.26415	  6.34067	 -1.58477	 42.83829	710.63000	 38.40	
 15.997	 36.045	 37.48744	 32.67111	 -2.82840	 25.60606	  1.83259	 -1.70198	 42.83200	710.42999	 38.40	
 15.997	 50.364	 37.40278	 28.75290	 -0.36340	 30.11987	 -1.59288	 -1.86557	 42.82254	710.60999	 38.40	
 16.009	 64.774	 37.33878	 23.92174	  3.12264	 33.79356	 -4.27021	 -1.92496	 42.83532	710.56000	 38.40	
 15.992	 79.234	 37.29219	 18.54009	  7.58945	 36.07781	 -5.56865	 -1.96351	 42.85188	710.67999	 38.40	
 16.005	 93.629	 37.25156	 13.31711	 12.64269	 36.97081	 -6.02795	 -2.06321	 42.87972	710.58002	 38.40	
 15.993	107.966	 37.25187	  8.20393	 17.96324	 36.31522	 -5.48225	 -2.02411	 42.87479	710.60999	 38.40	
 15.995	122.439	 37.29788	  3.50725	 23.42497	 34.13916	 -4.07780	 -2.03098	 42.88458	710.63000	 38.40	
 16.002	136.836	 37.35328	 -0.07595	 28.31674	 30.60003	 -1.93577	 -2.08072	 42.88713	710.60999	 38.40	
 16.002	151.165	 37.42851	 -2.73631	 32.32797	 26.18306	  1.36924	 -1.99844	 42.89689	710.71997	 38.40	
 15.990	165.604	 37.54959	 -4.21188	 35.14701	 20.91730	  5.81806	 -1.91413	 42.87570	710.59998	 38.40	
 20.003	168.362	 34.19379	-10.27680	 38.19725	 18.40632	  2.82839	 -2.06662	 42.88355	710.52002	 38.40	
 20.008	156.764	 34.09575	 -8.94735	 35.81953	 23.77642	 -1.28901	 -2.27013	 42.89706	710.59998	 38.30	
 20.000	145.147	 34.01830	 -6.74018	 32.27883	 28.72087	 -4.60302	 -2.50877	 42.87107	710.62000	 38.30	
 19.995	133.545	 33.94208	 -3.95300	 27.88526	 33.05044	 -7.45568	 -2.66938	 42.91185	710.59003	 38.30	
 20.009	121.926	 33.87127	 -0.60234	 22.73074	 36.38271	 -9.66034	 -2.73525	 42.89781	710.66998	 38.30	
 20.005	110.327	 33.78627	  3.56174	 17.26919	 38.70940	-11.11870	 -2.89687	 42.88300	710.59998	 38.30	
 19.989	 98.733	 33.84951	  8.47993	 12.04383	 39.70062	-11.46022	 -2.98928	 42.89231	710.53003	 38.30	
 19.999	 87.075	 33.84077	 13.33413	  7.09615	 39.57479	-11.88957	 -2.86862	 42.90234	709.83002	 38.30	
 19.992	 75.457	 33.89445	 18.67388	  2.40078	 38.18178	-11.13029	 -2.75927	 42.87638	710.10999	 38.30	
 20.009	 63.844	 33.98029	 24.10474	 -1.67944	 35.67981	 -9.53943	 -2.73295	 42.90075	710.22998	 38.30	
 19.989	 52.269	 34.08537	 29.01339	 -4.75619	 32.06063	 -7.12008	 -2.77540	 42.90067	710.58002	 38.30	
 19.999	 40.602	 34.13406	 33.30418	 -7.51862	 27.54038	 -3.97249	 -2.60635	 42.92580	710.09998	 38.30	
 20.004	 29.051	 34.15796	 36.52356	 -9.53008	 22.40133	 -0.31921	 -2.43093	 42.89258	710.09998	 38.30	
 20.005	 17.433	 34.34237	 38.64112	-10.18910	 17.13514	  4.19348	 -2.37084	 42.91559	710.28003	 38.30	
 20.006	  5.780	 34.46996	 39.45513	-10.63132	 11.80212	  9.27561	 -2.14830	 42.92269	710.46997	 38.30	
 20.006	 -5.780	 34.64804	 39.09241	-10.07040	  7.03627	 14.44553	 -1.82626	 42.91698	710.53003	 38.30	
 20.005	-17.433	 34.81261	 37.42467	 -8.78389	  2.38149	 19.85592	 -1.64087	 42.89321	710.56000	 38.30	
 20.004	-29.051	 34.92421	 34.60005	 -7.35761	 -1.47568	 25.15752	 -1.43051	 42.93141	710.65997	 38.30	
 19.999	-40.602	 35.03340	 30.74830	 -4.86791	 -4.30158	 29.83185	 -1.31858	 42.92241	709.83002	 38.30	
 19.989	-52.269	 35.07600	 26.23105	 -1.84778	 -6.87604	 33.86877	 -1.21131	 42.93486	709.85999	 38.20	
 20.009	-63.844	 35.07491	 20.90318	  2.13199	 -8.65652	 36.84377	 -1.12275	 42.93712	710.06000	 38.20	
 19.992	-75.457	 35.04645	 15.49291	  6.92652	 -9.76036	 38.53250	 -1.02471	 42.92629	709.78003	 38.20	
 19.999	-87.075	 35.00636	 10.35011	 11.89117	 -9.82521	 38.94585	 -0.99048	 42.91175	710.50000	 38.20	
 19.989	-98.733	 34.92293	  5.43404	 17.10169	 -9.67968	 38.13932	 -0.95174	 42.91010	710.44000	 38.20	
 20.005	-110.327	 34.86407	  1.11569	 22.49961	 -8.35849	 36.08809	 -0.97862	 42.89946	710.59003	 38.20	
 20.009	-121.926	 34.80521	 -2.63944	 27.63676	 -6.50652	 32.89157	 -1.01277	 42.90559	710.58002	 38.20	
 19.995	-133.545	 34.71823	 -5.79598	 32.10781	 -3.81950	 28.60112	 -1.05475	 42.86865	710.23999	 38.20	
 20.000	-145.147	 34.63963	 -8.13652	 35.62735	 -0.52329	 23.63218	 -1.15801	 42.84571	710.65002	 38.20	
 20.008	-156.764	 34.54066	 -9.61779	 38.06614	  3.55941	 18.28176	 -1.35917	 42.85026	710.65002	 38.10	
 20.003	-168.362	 34.43187	-10.30933	 39.30120	  8.29530	 12.93510	 -1.50349	 42.86530	710.64001	 38.10	
 20.000	180.000	 34.26744	-10.71924	 39.32718	 13.10423	  7.78413	 -1.79273	 42.83883	710.59003	 38.10	
