FileType=PCF
NHL=14
Date=03/07/19	13:12:55
Facility=APL
Serial=16071-10
Customer=NASA
NP=6
Mach=0.450000
Calibration=1:1
CalPts=490
TstPts=95
PortNumbering=AP Standard
Units=Torr C m/s kg/m^3 deg mm 
Theta[deg]	Phi[deg]	P1[Torr]	P2[Torr]	P3[Torr]	P4[Torr]	P5[Torr]	P6[Torr]	Pt[Torr]	Ps[Abs,Torr]	Ts[C]	
  0.000	  0.000	 91.70247	 39.92383	 40.38464	 41.18039	 38.21891	  2.13661	 91.50162	711.14001	 31.30	
  1.691	128.401	 91.71669	 37.08759	 42.93920	 45.13396	 34.12448	  2.03398	 91.55677	711.17999	 31.60	
  1.692	 77.194	 91.75523	 41.18433	 38.84863	 45.74536	 33.51640	  2.18287	 91.57444	711.28003	 31.80	
  1.699	 26.182	 91.81315	 44.32724	 35.87398	 42.94603	 36.31667	  2.19577	 91.62659	711.21002	 32.00	
  1.699	-26.182	 91.85070	 44.08588	 36.24390	 38.76283	 40.58969	  2.14115	 91.64582	711.29999	 32.20	
  1.692	-77.194	 91.88883	 40.64989	 39.70885	 36.49030	 43.02491	  2.02690	 91.69862	711.27002	 32.40	
  1.691	-128.401	 91.91359	 36.63490	 43.71536	 37.71114	 41.76362	  1.91478	 91.71505	711.19000	 32.50	
  1.700	180.000	 91.91184	 35.02898	 45.32038	 41.57056	 37.84523	  1.92392	 91.72860	711.21002	 32.70	
  3.400	180.000	 91.75114	 29.86951	 49.97352	 41.60576	 37.14788	  1.58982	 91.78075	711.25000	 32.90	
  3.388	-152.325	 91.81869	 30.68028	 49.24989	 37.06805	 41.74029	  1.56549	 91.79365	711.27002	 33.00	
  3.397	-124.529	 91.89957	 33.50230	 46.40895	 33.36007	 45.71872	  1.61144	 91.83586	711.21002	 33.20	
  3.399	-96.763	 91.92651	 37.74292	 42.09934	 31.42309	 47.78253	  1.69287	 91.82569	711.15997	 33.40	
  3.394	-69.283	 91.99570	 42.43382	 37.55963	 31.79343	 47.58827	  1.89716	 91.86801	711.08002	 33.50	
  3.400	-41.398	 92.01542	 46.55920	 33.64188	 34.05507	 45.13607	  2.06180	 91.91174	711.13000	 33.70	
  3.401	-14.021	 92.07996	 49.08839	 31.35637	 37.98824	 41.11178	  2.19617	 91.99348	711.28003	 33.80	
  3.401	 14.021	 92.00195	 49.41611	 30.81946	 42.67715	 36.30415	  2.28582	 91.94804	711.21997	 33.90	
  3.400	 41.398	 91.98299	 47.43562	 32.50143	 47.00883	 32.02053	  2.31805	 91.97771	711.28998	 34.10	
  3.394	 69.283	 92.01093	 43.71619	 36.00258	 50.26089	 29.06048	  2.23553	 92.05421	711.23999	 34.20	
  3.399	 96.763	 91.98981	 39.15977	 40.43525	 50.95669	 28.15476	  2.10284	 92.05923	711.26001	 34.40	
  3.397	124.529	 91.99520	 34.68966	 45.02312	 49.51374	 29.45358	  1.94844	 92.07867	711.26001	 34.50	
  3.388	152.325	 92.03645	 31.42488	 48.56047	 46.17321	 32.90073	  1.80029	 92.08732	711.34003	 34.60	
  5.099	161.165	 91.55827	 25.69049	 53.51764	 46.24050	 31.68725	  1.28684	 92.11826	711.37000	 34.80	
  5.109	142.013	 91.53912	 28.19423	 50.55725	 50.54400	 27.45086	  1.41003	 92.13240	711.22998	 34.90	
  5.095	123.033	 91.54385	 32.09903	 46.50481	 53.70461	 24.64752	  1.46918	 92.15289	711.17999	 35.00	
  5.105	104.191	 91.57443	 36.50972	 41.86672	 55.65055	 23.14832	  1.57592	 92.21344	711.22998	 35.10	
  5.093	 85.207	 91.61987	 41.35117	 37.10559	 55.68926	 23.21000	  1.70630	 92.21806	711.41998	 35.30	
  5.104	 66.290	 91.67033	 46.01374	 32.85453	 54.06607	 24.63119	  1.85557	 92.23642	711.29999	 35.40	
  5.094	 47.331	 91.78822	 50.10142	 28.90599	 51.02854	 27.47370	  1.94658	 92.28431	711.29999	 35.50	
  5.089	 28.397	 91.84288	 53.10865	 26.52052	 46.67263	 31.37724	  1.97188	 92.26690	711.29999	 35.60	
  5.096	  9.576	 91.94685	 54.51803	 25.49443	 42.03096	 36.14149	  1.93948	 92.29731	711.28998	 35.70	
  5.096	 -9.576	 92.06129	 54.08805	 25.92332	 37.25483	 41.09354	  1.86099	 92.34401	711.28003	 35.80	
  5.089	-28.397	 92.09791	 51.98433	 27.73447	 32.88771	 45.68074	  1.73386	 92.34701	711.37000	 35.90	
  5.094	-47.331	 92.10517	 48.62271	 31.13673	 29.24508	 49.41340	  1.55163	 92.34304	711.38000	 36.00	
  5.104	-66.290	 92.14956	 44.25971	 35.26271	 26.98041	 52.06647	  1.36092	 92.36930	711.27002	 36.20	
  5.093	-85.207	 92.13153	 39.46426	 39.88717	 26.32718	 53.02399	  1.27107	 92.34245	711.21997	 36.30	
  5.105	-104.191	 92.13360	 34.66372	 44.70493	 27.03201	 52.17669	  1.20008	 92.37605	711.22998	 36.40	
  5.095	-123.033	 92.12785	 30.38637	 49.09571	 29.21713	 49.47386	  1.11096	 92.41866	711.26001	 36.50	
  5.109	-142.013	 92.09796	 27.19293	 52.66648	 32.63260	 45.80875	  1.09657	 92.46348	711.33002	 36.60	
  5.099	-161.165	 92.01357	 25.26235	 54.77497	 37.04691	 41.18450	  1.07859	 92.44188	711.15002	 36.70	
  5.100	180.000	 91.91880	 24.72216	 55.12715	 41.81042	 36.32055	  1.08076	 92.39986	711.20001	 36.80	
  6.800	180.000	 91.18169	 19.58682	 59.53074	 41.42082	 35.12274	  0.44843	 92.44345	711.34998	 36.90	
  6.796	-166.229	 91.28265	 19.85276	 59.42357	 36.78299	 39.88854	  0.47247	 92.46418	711.27002	 36.90	
  6.808	-152.311	 91.36626	 21.16904	 58.12736	 32.20753	 44.60878	  0.44126	 92.50105	711.26001	 37.00	
  6.795	-138.383	 91.39869	 23.46160	 55.51963	 28.38493	 48.85566	  0.43276	 92.43654	711.19000	 37.10	
  6.792	-124.591	 91.52021	 26.54445	 51.96572	 25.28412	 52.71087	  0.43358	 92.49963	711.27002	 37.20	
  6.787	-110.754	 91.57858	 30.42002	 47.71760	 23.00457	 55.64767	  0.52257	 92.47919	711.28003	 37.30	
  6.800	-96.985	 91.64078	 34.85575	 43.23096	 21.54703	 57.37267	  0.54751	 92.53154	711.09998	 37.40	
  6.800	-83.015	 91.63982	 39.59210	 38.43463	 21.17194	 57.72546	  0.59038	 92.48453	711.25000	 37.50	
  6.787	-69.246	 91.74493	 44.37259	 34.10458	 21.98557	 56.89432	  0.74180	 92.58026	711.15002	 37.60	
  6.792	-55.409	 91.65671	 48.79945	 29.48120	 23.68635	 54.74150	  0.83362	 92.49525	711.21997	 37.60	
  6.795	-41.617	 91.73366	 52.72557	 26.02737	 26.32616	 51.42205	  0.97846	 92.60875	711.13000	 37.70	
  6.808	-27.689	 91.65085	 55.92530	 23.27651	 29.82692	 47.43760	  1.14526	 92.54247	711.25000	 37.80	
  6.796	-13.771	 91.63174	 58.03851	 21.34618	 34.17396	 42.90135	  1.28949	 92.58532	711.34003	 37.90	
  6.800	  0.000	 91.59739	 59.09727	 20.45243	 38.70558	 38.19435	  1.36320	 92.63173	711.16998	 37.90	
  6.796	 13.771	 91.49759	 58.85448	 20.57647	 43.42106	 33.28551	  1.44982	 92.61071	711.20001	 38.00	
  6.808	 27.689	 91.31583	 57.37153	 21.59144	 48.01305	 28.76362	  1.45572	 92.54344	711.16998	 38.10	
  6.795	 41.617	 91.30322	 54.71077	 23.64413	 52.28674	 24.86886	  1.41177	 92.61174	711.27002	 38.20	
  6.792	 55.409	 91.27299	 51.03957	 26.61696	 55.90439	 21.79528	  1.36344	 92.62966	711.16998	 38.20	
  6.787	 69.246	 91.23048	 46.78926	 30.38297	 58.63297	 19.52092	  1.28943	 92.65965	711.14001	 38.30	
  6.800	 83.015	 91.14320	 42.20640	 34.79940	 60.26077	 18.07881	  1.14304	 92.64569	711.10999	 38.30	
  6.800	 96.985	 91.11859	 37.34864	 39.43913	 60.59076	 17.79243	  1.03981	 92.62242	711.19000	 38.40	
  6.787	110.754	 91.15227	 32.80986	 44.18265	 59.72425	 18.50977	  0.90521	 92.68475	711.21002	 38.50	
  6.792	124.591	 91.12204	 28.46402	 48.64697	 57.54480	 20.17101	  0.74474	 92.60624	711.04999	 38.50	
  6.795	138.383	 91.14316	 24.94587	 52.66035	 54.53260	 22.68861	  0.63192	 92.61105	711.13000	 38.60	
  6.808	152.311	 91.23045	 22.20714	 56.16914	 50.67186	 26.15207	  0.46576	 92.65330	711.17999	 38.70	
  6.796	166.229	 91.33664	 20.41854	 58.52109	 46.21564	 30.34642	  0.42927	 92.67553	711.23999	 38.70	
  8.491	168.704	 90.24312	 15.20057	 62.62119	 45.71146	 28.81546	 -0.27793	 92.68575	711.09998	 38.80	
  8.502	157.493	 90.15170	 16.62765	 60.60834	 50.34204	 24.51875	 -0.29968	 92.67754	711.09998	 38.80	
  8.494	146.194	 90.06465	 18.89307	 57.67216	 54.61645	 20.76575	 -0.38194	 92.65215	711.21002	 38.80	
  8.495	135.039	 90.04089	 21.80548	 53.93469	 58.34494	 17.75806	 -0.03809	 92.67516	711.25000	 38.90	
  8.487	123.723	 89.99379	 25.39434	 49.70459	 61.29554	 15.43122	  0.04754	 92.66115	711.09003	 39.00	
  8.492	112.575	 90.00697	 29.47454	 45.20547	 63.38597	 13.71973	  0.15614	 92.74771	711.17999	 39.00	
  8.510	101.220	 89.97733	 34.35268	 40.23338	 64.51283	 12.74373	  0.25424	 92.72073	711.15997	 39.10	
  8.500	 90.000	 90.06928	 39.10488	 35.63437	 64.73042	 12.64098	  0.37699	 92.78878	711.19000	 39.10	
  8.510	 78.780	 90.03607	 43.95797	 30.79581	 63.81113	 13.29795	  0.50381	 92.73541	711.16998	 39.10	
  8.492	 67.425	 90.11076	 48.67458	 26.52456	 61.86470	 14.89079	  0.58974	 92.69709	711.19000	 39.20	
  8.487	 56.277	 90.25083	 52.93665	 22.95061	 59.15074	 17.19211	  0.66265	 92.76951	711.22998	 39.30	
  8.495	 44.961	 90.33891	 56.94175	 19.94395	 55.51623	 20.17196	  0.73725	 92.79276	711.14001	 39.30	
  8.494	 33.806	 90.37711	 59.91298	 17.61677	 51.52496	 23.71639	  0.77054	 92.77866	711.20001	 39.40	
  8.502	 22.507	 90.47171	 62.01457	 15.93757	 46.88052	 27.91522	  0.75658	 92.79505	711.13000	 39.50	
  8.491	 11.296	 90.54276	 63.17560	 15.19709	 41.99084	 32.59599	  0.70773	 92.75655	711.15002	 39.50	
  8.500	  0.000	 90.65833	 63.31012	 15.17697	 37.16367	 37.55265	  0.62533	 92.77271	711.15002	 39.60	
  8.491	-11.296	 90.79499	 62.42503	 16.04238	 32.50918	 42.47325	  0.54704	 92.78538	711.28003	 39.70	
  8.502	-22.507	 90.82896	 60.64570	 17.61969	 28.22806	 47.13749	  0.42405	 92.75210	711.28003	 39.70	
  8.494	-33.806	 90.90539	 57.85028	 20.03887	 24.51579	 51.43018	  0.11805	 92.76479	711.13000	 39.80	
  8.495	-44.961	 90.98228	 54.30815	 22.97488	 21.50340	 55.35483	  0.09975	 92.80067	711.15997	 39.80	
  8.487	-56.277	 91.00639	 50.14122	 26.57360	 19.07739	 58.60342	 -0.03653	 92.79176	711.21002	 39.90	
  8.492	-67.425	 91.01842	 45.66954	 30.88966	 17.40342	 60.75602	 -0.13310	 92.80923	711.22998	 39.90	
  8.510	-78.780	 90.93138	 40.75704	 35.44945	 16.40200	 61.86469	 -0.26768	 92.74203	711.16998	 40.00	
  8.500	-90.000	 90.94826	 35.92354	 40.32085	 16.22840	 61.99772	 -0.35746	 92.80738	711.22998	 40.10	
  8.510	-101.220	 90.90723	 31.21459	 45.14767	 16.80638	 61.14097	 -0.36360	 92.80331	711.20001	 40.10	
  8.492	-112.575	 90.90123	 26.86719	 49.84227	 18.43978	 59.18360	 -0.37046	 92.85481	711.16998	 40.10	
  8.487	-123.723	 90.82059	 23.09874	 54.02049	 20.71401	 56.27618	 -0.41174	 92.79726	711.22998	 40.10	
  8.495	-135.039	 90.77177	 19.87613	 57.85066	 23.66417	 52.27680	 -0.43429	 92.81860	711.27002	 40.20	
  8.494	-146.194	 90.74584	 17.38270	 60.78868	 27.38040	 48.13211	 -0.42411	 92.84514	711.34998	 40.20	
  8.502	-157.493	 90.64125	 15.55309	 62.75642	 31.55595	 43.43301	 -0.40461	 92.81235	711.22998	 40.20	
  8.491	-168.704	 90.55722	 14.56071	 63.75500	 36.18575	 38.52867	 -0.46314	 92.81431	711.28003	 40.30	
  8.500	180.000	 90.49529	 14.40680	 63.79030	 41.01082	 33.57459	 -0.41049	 92.85529	711.21997	 40.30	
 10.200	180.000	 89.07963	  9.28314	 67.65701	 40.03251	 31.87987	 -1.53324	 92.84252	711.28003	 40.30	
 10.191	-170.497	 89.14413	  9.40955	 67.66563	 35.21323	 36.90499	 -1.25293	 92.77959	711.25000	 40.40	
 10.210	-161.034	 89.24771	 10.08704	 66.96918	 30.50279	 41.94649	 -1.24165	 92.81807	711.38000	 40.40	
 10.194	-151.526	 89.33031	 11.46334	 65.29378	 26.24080	 46.71840	 -1.44474	 92.83073	711.29999	 40.40	
 10.190	-142.105	 89.44377	 13.63930	 62.84366	 22.39164	 51.18755	 -1.25011	 92.81743	711.34003	 40.40	
 10.215	-132.646	 89.51212	 16.22225	 59.75346	 18.81963	 55.72043	 -1.26149	 92.89130	711.19000	 40.50	
 10.203	-123.092	 89.51741	 19.39149	 55.77044	 15.95122	 59.43975	 -1.36571	 92.84917	711.20001	 40.50	
 10.192	-113.678	 89.61013	 23.16152	 51.42471	 13.91763	 62.26414	 -1.43091	 92.85877	711.31000	 40.60	
 10.208	-104.249	 89.60574	 27.32669	 46.79805	 12.26033	 64.37496	 -1.17914	 92.81348	711.16998	 40.60	
 10.210	-94.801	 89.72203	 31.94110	 41.96736	 11.30415	 65.68382	 -1.17855	 92.87059	711.29999	 40.60	
 10.210	-85.199	 89.76695	 36.93788	 37.00037	 11.08011	 66.09620	 -1.15132	 92.84811	711.17999	 40.70	
 10.208	-75.751	 89.76048	 41.80342	 32.48735	 11.42923	 65.63017	 -1.07794	 92.83122	711.15997	 40.70	
 10.192	-66.322	 89.85735	 46.68203	 27.58110	 12.62052	 64.30511	 -0.99425	 92.92609	711.20001	 40.80	
 10.203	-56.908	 89.82701	 51.28333	 23.43609	 14.36586	 62.10155	 -1.02607	 92.90473	711.19000	 40.80	
 10.215	-47.354	 89.77763	 55.56421	 19.87393	 16.70791	 59.16911	 -0.83955	 92.87659	711.10999	 40.80	
 10.190	-37.895	 89.73793	 59.41311	 16.93453	 19.58171	 55.19693	 -0.84997	 92.85957	711.17999	 40.90	
 10.194	-28.474	 89.70803	 62.57289	 14.40652	 22.73235	 50.91095	 -0.51550	 92.89453	711.21002	 40.90	
 10.210	-18.966	 89.65392	 65.01492	 12.27076	 26.62844	 46.35130	 -0.36556	 92.91681	711.23999	 40.90	
 10.191	 -9.503	 89.53728	 66.60170	 10.77769	 30.93681	 41.48386	 -0.28651	 92.87708	711.15997	 40.90	
 10.200	  0.000	 89.37697	 67.28651	  9.95695	 35.83816	 36.43578	 -0.18462	 92.85462	711.12000	 41.00	
 10.191	  9.503	 89.30191	 67.24750	  9.90821	 40.55539	 31.51091	 -0.14160	 92.89777	711.15002	 41.00	
 10.210	 18.966	 89.15453	 66.38238	 10.50489	 45.41499	 26.76622	 -0.09013	 92.86489	711.29999	 41.10	
 10.194	 28.474	 89.07178	 64.45700	 11.81994	 50.18182	 22.41927	 -0.06481	 92.90603	711.21002	 41.10	
 10.190	 37.895	 88.95467	 61.84163	 13.71400	 54.51479	 18.57287	 -0.07765	 92.84518	711.14001	 41.10	
 10.215	 47.354	 88.87139	 58.62555	 16.05514	 58.85728	 15.19341	 -0.16331	 92.88136	711.15997	 41.10	
 10.203	 56.908	 88.76912	 54.42247	 19.07284	 62.36301	 12.40397	 -0.29008	 92.85298	711.21997	 41.10	
 10.192	 66.322	 88.67381	 50.10969	 22.62149	 65.06989	 10.05848	 -0.32256	 92.82492	711.19000	 41.10	
 10.208	 75.751	 88.58936	 45.45720	 26.66510	 67.20970	  8.18871	 -1.04437	 92.82111	711.17999	 41.20	
 10.210	 85.199	 88.52832	 40.59922	 31.31637	 68.35263	  7.01502	 -0.47809	 92.80636	711.14001	 41.20	
 10.210	 94.801	 88.53963	 35.81952	 36.31222	 68.72820	  6.77228	 -0.54405	 92.85704	711.09998	 41.30	
 10.208	104.249	 88.41166	 30.67538	 41.00807	 68.23320	  7.32979	 -0.70117	 92.75456	711.21002	 41.30	
 10.192	113.678	 88.41030	 26.18682	 45.82679	 66.99907	  8.41844	 -0.80738	 92.72246	711.13000	 41.30	
 10.203	123.092	 88.49762	 22.15176	 50.48361	 64.84557	 10.17056	 -1.55670	 92.76405	711.16998	 41.40	
 10.215	132.646	 88.53173	 18.72939	 54.91125	 61.96068	 12.55496	 -0.99243	 92.76106	711.14001	 41.40	
 10.190	142.105	 88.60081	 15.64992	 58.99996	 58.38549	 15.50351	 -1.49457	 92.73109	711.14001	 41.40	
 10.194	151.526	 88.66608	 13.07776	 62.25960	 54.04535	 18.80884	 -1.44333	 92.72472	711.09998	 41.40	
 10.210	161.034	 88.76367	 11.11504	 64.89359	 49.64891	 22.57354	 -1.29003	 92.74953	711.15002	 41.50	
 10.191	170.497	 88.82688	  9.80515	 66.66601	 44.86689	 26.98877	 -1.26556	 92.67765	711.14001	 41.50	
 11.899	171.783	 87.16213	  4.45821	 70.25236	 43.71431	 25.33393	 -2.25980	 92.69980	711.13000	 41.50	
 11.890	163.610	 87.03263	  5.72856	 68.55400	 48.51466	 20.94767	 -2.76161	 92.66994	711.12000	 41.50	
 11.889	155.445	 86.89838	  7.32158	 66.30418	 53.19427	 17.15243	 -2.58065	 92.64938	711.10999	 41.50	
 11.909	147.299	 86.75243	  9.37076	 63.34885	 57.56215	 13.52025	 -2.60383	 92.61958	711.28003	 41.50	
 11.902	139.148	 86.68254	 12.12726	 59.73367	 61.56767	 10.22482	 -2.02712	 92.61506	711.21002	 41.60	
 11.894	130.867	 86.59451	 15.49767	 55.36452	 64.87833	  7.29912	 -2.44836	 92.56944	711.21997	 41.60	
 11.897	122.732	 86.58681	 19.22069	 50.93925	 67.73605	  4.76445	 -2.47723	 92.57188	711.26001	 41.60	
 11.903	114.597	 86.56670	 23.15482	 46.30738	 69.89102	  3.18251	 -1.86941	 92.62867	711.17999	 41.70	
 11.893	106.346	 86.50863	 27.24988	 41.38376	 71.32497	  2.12405	 -2.44105	 92.58560	711.15997	 41.70	
 11.892	 98.155	 86.53522	 31.95049	 36.70145	 72.10558	  1.47778	 -1.66973	 92.62255	711.09998	 41.80	
 11.900	 90.000	 86.53247	 37.01049	 31.71222	 72.12488	  1.32717	 -1.57734	 92.58669	711.13000	 41.80	
 11.892	 81.845	 86.55145	 41.61498	 26.95141	 71.31886	  1.88044	 -2.25976	 92.57858	711.12000	 41.80	
 11.893	 73.654	 86.61462	 46.52111	 22.71673	 69.70754	  3.02262	 -2.17108	 92.58549	711.16998	 41.90	
 11.903	 65.403	 86.72178	 51.26637	 18.81796	 67.59309	  4.77690	 -1.88144	 92.63689	711.10999	 41.90	
 11.897	 57.268	 86.77170	 55.62110	 15.35774	 64.70842	  7.13920	 -1.97972	 92.60326	711.16998	 41.90	
 11.894	 49.133	 86.85535	 59.88334	 12.23781	 61.40472	 10.23961	 -1.47838	 92.65593	711.17999	 42.00	
 11.902	 40.852	 86.86829	 63.34583	  9.48833	 57.24920	 13.57992	 -1.07092	 92.59798	711.14001	 42.00	
 11.909	 32.701	 86.95074	 66.25420	  6.94854	 52.86813	 17.17575	 -1.18177	 92.57953	711.13000	 42.00	
 11.889	 24.555	 87.06908	 68.30392	  5.29146	 48.22668	 21.14039	 -1.19759	 92.55674	711.17999	 42.00	
 11.890	 16.390	 87.19178	 69.88630	  4.26251	 43.48568	 25.48723	 -1.56499	 92.58472	711.15997	 42.10	
 11.899	  8.217	 87.22895	 70.70667	  3.79155	 38.50378	 30.22235	 -1.15270	 92.49570	711.15002	 42.10	
 11.900	  0.000	 87.45296	 70.79171	  3.97791	 33.61578	 35.08512	 -1.08589	 92.59661	711.23999	 42.10	
 11.899	 -8.217	 87.54403	 70.05470	  4.68383	 29.04058	 40.11784	 -1.30250	 92.55053	711.12000	 42.20	
 11.890	-16.390	 87.63719	 68.50457	  6.30848	 24.61652	 45.14391	 -1.42499	 92.50867	711.13000	 42.20	
 11.889	-24.555	 87.69301	 66.43553	  8.35481	 21.01521	 49.79900	 -1.80300	 92.51678	711.21002	 42.20	
 11.909	-32.701	 87.73357	 63.58113	 10.66171	 17.53933	 54.16419	 -1.91671	 92.51548	711.16998	 42.20	
 11.902	-40.852	 87.76491	 60.23285	 13.42347	 14.23985	 58.58543	 -1.71143	 92.48869	711.16998	 42.30	
 11.894	-49.133	 87.83386	 56.09335	 16.82830	 11.50028	 62.12291	 -1.80622	 92.47898	711.22998	 42.30	
 11.897	-57.268	 87.81244	 51.73393	 20.42751	  9.25518	 64.93861	 -2.21778	 92.43746	711.10999	 42.40	
 11.903	-65.403	 87.77493	 47.07430	 24.41984	  7.52864	 67.13332	 -2.19191	 92.36773	711.10999	 42.40	
 11.893	-73.654	 87.82699	 42.28070	 28.89071	  6.27092	 68.44820	 -2.11785	 92.41431	711.15002	 42.40	
 11.892	-81.845	 87.81893	 37.36739	 33.87035	  5.53001	 69.19036	 -1.95063	 92.41653	711.19000	 42.50	
 11.900	-90.000	 87.76105	 32.42402	 38.24919	  5.49886	 69.12685	 -2.00262	 92.41591	711.15997	 42.50	
 11.892	-98.155	 87.68444	 27.76894	 43.09066	  6.11398	 68.29587	 -2.33313	 92.39962	711.21997	 42.50	
 11.893	-106.346	 87.60960	 23.31598	 47.89097	  7.44054	 66.95259	 -2.09265	 92.40066	711.17999	 42.50	
 11.903	-114.597	 87.55392	 19.27080	 52.55202	  9.27241	 64.71051	 -2.35524	 92.41700	711.19000	 42.60	
 11.897	-122.732	 87.46471	 15.53998	 56.91287	 11.40146	 61.78265	 -2.40260	 92.37830	711.21002	 42.60	
 11.894	-130.867	 87.39816	 12.35359	 60.89564	 14.01110	 58.19569	 -2.07209	 92.34889	711.21002	 42.60	
 11.902	-139.148	 87.36327	  9.65643	 64.29156	 17.17330	 53.82791	 -2.10558	 92.36967	711.20001	 42.60	
 11.909	-147.299	 87.25819	  7.44053	 67.00372	 20.83743	 49.35904	 -2.15177	 92.34737	711.17999	 42.60	
 11.889	-155.445	 87.22004	  5.81420	 68.96634	 24.81508	 44.72472	 -2.09720	 92.36048	711.25000	 42.70	
 11.890	-163.610	 87.07034	  4.58332	 70.36080	 29.14638	 39.80701	 -2.18796	 92.30222	711.16998	 42.70	
 11.899	-171.783	 86.94159	  3.90698	 70.98945	 33.72107	 34.74018	 -2.20016	 92.27702	711.19000	 42.70	
 11.900	180.000	 86.87737	  3.95778	 70.83985	 38.61948	 29.89044	 -2.86806	 92.31590	711.22998	 42.80	
 13.600	180.000	 84.87421	 -1.74167	 74.40717	 37.20935	 27.90034	 -3.57728	 92.35294	711.20001	 42.80	
 13.608	-172.853	 84.94820	 -2.09257	 74.57175	 32.53795	 32.48393	 -3.16011	 92.31379	711.29999	 42.80	
 13.611	-165.583	 85.07990	 -1.61431	 74.13941	 27.87263	 37.57982	 -3.23992	 92.37241	711.21997	 42.90	
 13.601	-158.353	 85.12344	 -0.36528	 72.85222	 23.40941	 42.56880	 -3.09489	 92.28931	711.26001	 42.90	
 13.609	-151.210	 85.22092	  1.32029	 70.98451	 19.39718	 47.34871	 -2.95516	 92.28150	711.29999	 42.90	
 13.611	-143.999	 85.29774	  3.22861	 68.52178	 15.70386	 51.98431	 -3.01134	 92.29910	711.28003	 43.00	
 13.601	-136.825	 85.32853	  5.64092	 65.57413	 12.17868	 56.58547	 -2.89001	 92.26827	711.17999	 43.00	
 13.596	-129.640	 85.37473	  8.36430	 62.14128	  9.03009	 60.68762	 -2.87468	 92.27846	711.19000	 43.00	
 13.611	-122.431	 85.44415	 11.75792	 58.04812	  5.91240	 64.19211	 -2.87380	 92.29913	711.21997	 43.10	
 13.604	-115.211	 85.47326	 15.56586	 53.51412	  3.48082	 67.20287	 -2.75870	 92.25504	711.16998	 43.10	
 13.595	-108.042	 85.54202	 19.57923	 48.92580	  2.32727	 69.43960	 -2.69112	 92.27650	711.27002	 43.10	
 13.607	-100.793	 85.56123	 23.67772	 44.08166	  1.07918	 71.31079	 -2.76797	 92.24516	711.21997	 43.20	
 13.601	-93.617	 85.63961	 28.14939	 39.17517	  0.26737	 72.44000	 -2.83212	 92.23468	711.27002	 43.20	
 13.601	-86.383	 85.70030	 32.79739	 34.70402	 -0.12975	 72.84198	 -2.60532	 92.23952	711.33002	 43.20	
 13.607	-79.207	 85.76460	 37.74616	 29.85269	 -0.17869	 72.70716	 -2.80381	 92.29798	711.39001	 43.20	
 13.595	-71.958	 85.80461	 42.57888	 25.26298	  0.48098	 71.69160	 -2.74849	 92.30118	711.26001	 43.30	
 13.604	-64.789	 85.75694	 47.38478	 21.03134	  1.54489	 70.01049	 -2.77143	 92.25938	711.22998	 43.30	
 13.611	-57.569	 85.76107	 52.08890	 17.04426	  3.28768	 67.89394	 -2.83973	 92.26259	710.53003	 43.30	
 13.596	-50.360	 85.75281	 56.57096	 13.25240	  5.77695	 64.98514	 -2.90468	 92.28883	711.28998	 43.30	
 13.601	-43.175	 85.64445	 60.78689	  9.71106	  8.47448	 61.66614	 -2.64825	 92.25037	711.34998	 43.40	
 13.611	-36.001	 85.56301	 64.29182	  6.64815	 11.63070	 57.59740	 -2.81496	 92.22571	711.33002	 43.30	
 13.609	-28.790	 85.55396	 67.48866	  3.53039	 15.29204	 52.98432	 -2.67775	 92.23917	711.28998	 43.40	
 13.601	-21.647	 85.50809	 69.94451	  1.63312	 19.11916	 48.41850	 -2.63071	 92.20281	710.91998	 43.40	
 13.611	-14.417	 85.35287	 72.02580	  0.63613	 22.73856	 43.53135	 -2.72356	 92.19643	711.22998	 43.40	
 13.608	 -7.147	 85.20844	 73.36909	 -0.46111	 27.03162	 38.40375	 -2.75792	 92.19696	711.28998	 43.50	
 13.600	  0.000	 85.02155	 73.94756	 -1.08517	 31.48153	 33.43502	 -2.27240	 92.12865	711.16998	 43.50	
 13.608	  7.147	 84.91177	 74.08549	 -1.33167	 36.30038	 28.72342	 -2.70773	 92.18806	711.14001	 43.50	
 13.611	 14.417	 84.77016	 73.37750	 -1.61048	 41.14511	 23.99243	 -2.65884	 92.20010	711.12000	 43.50	
 13.601	 21.647	 84.70480	 71.97105	 -0.73284	 46.04086	 19.75510	 -2.57802	 92.23520	711.27002	 43.60	
 13.609	 28.790	 84.55550	 69.90759	  0.49455	 50.75017	 15.59645	 -2.58749	 92.21879	711.20001	 43.60	
 13.611	 36.001	 84.48415	 67.41434	  2.20225	 55.26859	 11.51168	 -2.70894	 92.23707	711.21002	 43.60	
 13.601	 43.175	 84.41235	 64.26903	  4.47824	 59.67253	  7.95858	 -2.90822	 92.22746	711.27002	 43.60	
 13.596	 50.360	 84.31557	 60.69477	  7.49573	 63.47593	  4.85404	 -2.97972	 92.20697	711.31000	 43.60	
 13.611	 57.569	 84.22525	 56.32227	 10.98684	 66.88545	  2.14063	 -3.03019	 92.19529	711.31000	 43.60	
 13.604	 64.789	 84.14690	 51.86274	 14.57538	 69.67502	 -0.18366	 -3.07410	 92.19303	711.26001	 43.60	
 13.595	 71.958	 84.06511	 47.17719	 18.48487	 72.08201	 -1.96170	 -3.13613	 92.18037	710.53003	 43.70	
 13.607	 79.207	 83.94358	 42.24010	 22.64589	 73.89654	 -3.28874	 -3.23617	 92.16108	711.34998	 43.70	
 13.601	 86.383	 83.97712	 37.69778	 26.99592	 75.04341	 -4.02247	 -3.36337	 92.23470	711.28998	 43.70	
 13.601	 93.617	 83.97310	 32.58591	 31.65193	 75.42543	 -4.08381	 -3.34097	 92.20195	711.26001	 43.70	
 13.607	100.793	 83.85246	 28.24379	 36.58331	 75.12105	 -4.04687	 -3.46474	 92.11621	711.34003	 43.80	
 13.595	108.042	 83.92237	 23.82615	 41.30756	 74.12619	 -3.34733	 -3.44218	 92.18034	711.37000	 43.80	
 13.604	115.211	 83.92631	 19.51349	 46.17858	 72.54892	 -2.22876	 -3.42490	 92.17596	711.27002	 43.80	
 13.611	122.431	 84.03737	 15.38190	 51.00390	 70.28455	 -0.61807	 -3.39038	 92.21796	711.31000	 43.80	
 13.596	129.640	 84.06078	 11.61491	 55.47891	 67.47527	  1.50546	 -3.51281	 92.16901	711.32001	 43.90	
 13.601	136.825	 84.10655	  8.23587	 59.86114	 64.18182	  3.93400	 -3.60217	 92.16566	711.14001	 43.90	
 13.611	143.999	 84.13100	  5.32274	 63.61610	 60.46895	  7.15826	 -3.61909	 92.14234	711.25000	 43.90	
 13.609	151.210	 84.29528	  2.73942	 66.99593	 56.05201	 11.17686	 -3.55953	 92.20801	710.75000	 43.90	
 13.601	158.353	 84.40978	  0.82481	 69.63995	 51.50411	 14.97836	 -3.56131	 92.22028	711.17999	 44.00	
 13.611	165.583	 84.54136	 -0.58338	 71.89785	 46.91770	 18.88596	 -3.57569	 92.25133	710.96997	 44.00	
 13.608	172.853	 84.60179	 -1.48316	 73.41873	 41.89797	 23.15746	 -3.59711	 92.19344	710.54999	 44.00	
 15.298	173.587	 82.33722	 -6.79327	 76.64411	 40.15681	 21.13908	 -4.12983	 92.24584	710.65002	 44.00	
 15.291	167.167	 82.19814	 -6.07639	 75.18907	 45.11469	 16.93280	 -4.22442	 92.19873	710.54999	 44.10	
 15.307	160.676	 82.17161	 -4.85382	 73.26745	 49.91658	 12.76860	 -4.24858	 92.31524	710.66998	 44.10	
 15.300	154.261	 82.07031	 -3.14992	 70.54659	 54.56699	  8.32967	 -4.30687	 92.29375	710.63000	 44.10	
 15.288	147.854	 81.95615	 -1.10089	 67.58566	 59.09216	  4.66353	 -4.33765	 92.28280	710.63000	 44.10	
 15.293	141.428	 81.87015	  1.43583	 64.03207	 63.22352	  1.50694	 -4.36986	 92.25647	710.64001	 44.10	
 15.299	134.985	 81.85629	  4.42902	 60.02671	 66.92430	 -1.14801	 -4.38377	 92.28099	711.27002	 44.20	
 15.305	128.583	 81.80334	  7.67442	 55.55655	 70.14711	 -3.57773	 -4.34641	 92.32220	710.96997	 44.20	
 15.309	122.142	 81.67486	 11.46754	 50.97454	 73.01980	 -5.69242	 -4.27703	 92.28622	710.54999	 44.20	
 15.304	115.711	 81.68929	 15.72155	 46.19655	 75.38901	 -7.29183	 -4.30928	 92.36244	710.66998	 44.30	
 15.297	109.291	 81.66672	 20.06838	 41.32915	 77.02802	 -8.42743	 -4.29074	 92.35930	710.50000	 44.30	
 15.293	102.897	 81.65076	 24.59436	 36.63016	 78.04556	 -9.15389	 -4.27941	 92.32959	710.69000	 44.30	
 15.293	 96.458	 81.73525	 29.27135	 31.62103	 78.53835	 -9.38272	 -4.27081	 92.39764	710.63000	 44.30	
 15.300	 90.000	 81.75340	 33.50703	 27.19091	 78.42162	 -9.41772	 -4.20999	 92.37998	710.63000	 44.30	
 15.293	 83.542	 81.76837	 38.48135	 22.76184	 77.74310	 -9.15958	 -4.14276	 92.38826	710.56000	 44.30	
 15.293	 77.103	 81.81310	 43.17416	 18.31418	 76.48820	 -8.20745	 -4.14088	 92.41721	710.58002	 44.30	
 15.297	 70.709	 81.86432	 48.05259	 14.02026	 74.62852	 -6.91980	 -4.08035	 92.41789	710.53003	 44.40	
 15.304	 64.289	 81.95309	 52.73097	 10.02662	 72.13699	 -5.10345	 -4.05102	 92.42682	710.48999	 44.40	
 15.309	 57.858	 82.08847	 57.28071	  5.98845	 69.19227	 -2.68931	 -3.98698	 92.48834	710.51001	 44.40	
 15.305	 51.417	 82.13478	 61.72385	  2.81318	 65.80545	 -0.08058	 -3.92024	 92.47324	710.51001	 44.40	
 15.299	 45.015	 82.18525	 65.43291	  0.15790	 61.98986	  2.89671	 -3.86996	 92.43226	710.62000	 44.40	
 15.293	 38.572	 82.32432	 68.74171	 -2.03075	 57.71847	  6.15281	 -3.69736	 92.47044	710.59998	 44.40	
 15.288	 32.146	 82.43085	 71.53138	 -3.28754	 53.28608	  9.66101	 -3.54333	 92.50724	710.56000	 44.40	
 15.300	 25.739	 82.44475	 73.95244	 -4.86768	 48.57899	 13.87145	 -3.48314	 92.45799	710.53003	 44.40	
 15.307	 19.324	 82.55959	 75.80050	 -5.99610	 43.75309	 18.33638	 -3.46133	 92.49172	710.56000	 44.40	
 15.291	 12.833	 82.76069	 76.99792	 -6.60822	 39.01866	 22.81025	 -3.45347	 92.56016	711.32001	 44.40	
 15.298	  6.413	 82.91089	 77.54070	 -6.74510	 33.87627	 27.38454	 -3.46719	 92.54568	710.66998	 44.40	
 15.300	  0.000	 83.04591	 77.50234	 -6.54393	 29.43303	 31.94307	 -3.41098	 92.55397	710.56000	 44.40	
 15.298	 -6.413	 83.21784	 76.94853	 -6.07432	 25.18573	 36.90940	 -3.35639	 92.57535	710.54999	 44.50	
 15.291	-12.833	 83.35471	 75.69067	 -4.97321	 21.04986	 42.05899	 -3.26371	 92.57497	710.59998	 44.50	
 15.307	-19.324	 83.48895	 73.85188	 -3.59089	 16.78424	 47.07153	 -3.19904	 92.56318	710.71002	 44.50	
 15.300	-25.739	 83.55195	 71.35906	 -2.47309	 12.73202	 51.81748	 -3.14462	 92.55139	711.01001	 44.60	
 15.288	-32.146	 83.63459	 68.49027	 -0.35412	  8.82899	 56.28124	 -3.17176	 92.54254	710.58002	 44.60	
 15.293	-38.572	 83.71944	 65.09892	  2.31709	  5.41281	 60.88224	 -3.19256	 92.55988	710.52002	 44.60	
 15.299	-45.015	 83.78694	 61.36290	  5.84130	  2.76560	 64.64980	 -3.18903	 92.56557	710.56000	 44.60	
 15.305	-51.417	 83.76363	 56.87885	  9.47346	  0.41474	 68.02444	 -3.12073	 92.53281	710.65002	 44.70	
 15.309	-57.858	 83.81860	 52.40484	 13.31066	 -1.61153	 70.73973	 -3.03358	 92.59162	710.59998	 44.70	
 15.304	-64.289	 83.82366	 47.66625	 17.47440	 -3.18461	 73.17382	 -2.99692	 92.59155	710.53998	 44.70	
 15.297	-70.709	 83.83076	 42.71313	 21.76139	 -4.37619	 74.93166	 -2.94206	 92.57260	710.54999	 44.70	
 15.293	-77.103	 83.83949	 37.96515	 26.15103	 -5.09418	 76.02369	 -2.90783	 92.58760	710.52002	 44.70	
 15.293	-83.542	 83.87209	 32.99674	 30.82264	 -5.19595	 76.41270	 -2.89736	 92.59625	710.54999	 44.80	
 15.300	-90.000	 83.84225	 28.44805	 35.50177	 -5.26803	 76.33717	 -2.92151	 92.65868	710.56000	 44.80	
 15.293	-96.458	 83.71410	 23.93967	 40.13901	 -4.84001	 75.57195	 -2.90023	 92.57774	710.59998	 44.80	
 15.293	-102.897	 83.65517	 19.63200	 45.15331	 -3.93322	 74.25318	 -2.87753	 92.62517	710.57001	 44.80	
 15.297	-109.291	 83.60033	 15.37219	 49.92849	 -2.63910	 72.28481	 -2.85179	 92.62407	710.63000	 44.80	
 15.304	-115.711	 83.56395	 11.30521	 54.55942	 -0.83105	 69.60945	 -2.86974	 92.65457	710.59998	 44.80	
 15.309	-122.142	 83.52166	  7.56765	 59.15662	  1.39897	 66.79163	 -2.99156	 92.68497	710.48999	 44.80	
 15.305	-128.583	 83.45541	  4.29127	 63.25378	  3.88406	 63.25478	 -3.04353	 92.64130	710.58002	 44.80	
 15.299	-134.985	 83.49568	  1.61091	 66.89563	  6.11940	 59.24066	 -3.07803	 92.66369	710.69000	 44.80	
 15.293	-141.428	 83.39323	 -0.83208	 69.96499	 10.04195	 54.68847	 -3.11052	 92.66647	710.51001	 44.80	
 15.288	-147.854	 83.30963	 -2.95380	 72.80926	 13.97515	 50.10647	 -3.14592	 92.66709	710.40002	 44.80	
 15.300	-154.261	 83.26398	 -4.67824	 75.08530	 18.04572	 45.28541	 -3.22949	 92.71185	710.56000	 44.80	
 15.307	-160.676	 83.09544	 -5.99131	 76.65974	 21.92336	 40.28212	 -3.39438	 92.66523	710.60999	 44.80	
 15.291	-167.167	 82.96249	 -6.85977	 77.60365	 26.44755	 35.09742	 -3.56223	 92.64463	710.60999	 44.90	
 15.298	-173.587	 82.88835	 -7.09269	 77.95364	 31.10522	 30.23704	 -3.75242	 92.62933	710.52002	 44.90	
 15.300	180.000	 82.82765	 -7.24493	 77.80363	 35.47356	 25.74990	 -4.00619	 92.68806	710.53003	 44.80	
 17.000	180.000	 80.13203	-12.61641	 80.56039	 33.49137	 23.45348	 -4.17867	 92.64568	710.56000	 44.90	
 16.990	-174.179	 80.25176	-12.62245	 80.80351	 29.33830	 27.59797	 -3.87901	 92.66159	710.54999	 44.80	
 17.009	-168.383	 80.33877	-12.53312	 80.54723	 24.63703	 32.48432	 -3.66763	 92.65961	710.56000	 44.80	
 17.000	-162.596	 80.52751	-11.74146	 79.72527	 20.37909	 37.54882	 -3.49423	 92.67630	710.54999	 44.80	
 16.990	-156.759	 80.59550	-10.52319	 78.35381	 16.12954	 42.63805	 -3.33279	 92.66520	710.50000	 44.80	
 16.995	-150.919	 80.63068	 -8.94586	 76.42244	 11.78562	 47.64397	 -3.16291	 92.63400	710.50000	 44.80	
 16.988	-145.161	 80.81086	 -6.96109	 73.97411	  7.55891	 52.31624	 -3.12601	 92.67623	710.58002	 44.80	
 17.014	-139.343	 80.89064	 -4.82552	 70.96706	  4.11018	 56.76243	 -3.11512	 92.68617	710.65002	 44.80	
 17.007	-133.546	 80.96114	 -2.39242	 67.69883	  0.99125	 61.37344	 -3.03858	 92.68871	710.58002	 44.80	
 17.001	-127.699	 80.97028	  0.32149	 63.87377	 -1.04400	 65.34502	 -2.99406	 92.66704	710.59003	 44.80	
 17.006	-121.937	 81.00547	  3.55247	 59.69713	 -3.38336	 68.87297	 -2.91437	 92.67760	710.53998	 44.80	
 17.002	-116.134	 81.12334	  7.02688	 55.21994	 -5.52467	 71.84373	 -2.85476	 92.69971	710.58002	 44.80	
 17.001	-110.310	 81.12974	 10.85160	 50.49200	 -7.37614	 74.46329	 -2.78344	 92.61388	710.51001	 44.80	
 16.988	-104.517	 81.20567	 15.07654	 45.73785	 -8.78615	 76.61916	 -2.80617	 92.69126	710.52002	 44.80	
 17.008	-98.662	 81.18832	 19.41732	 40.65688	 -9.87865	 78.17150	 -2.81921	 92.63330	710.47998	 44.80	
 16.996	-92.909	 81.31983	 23.87687	 35.92215	-10.50717	 79.12775	 -2.78528	 92.70284	710.53003	 44.80	
 16.996	-87.091	 81.36328	 28.47110	 31.08767	-10.72819	 79.54313	 -2.84458	 92.71699	710.59003	 44.90	
 17.012	-81.253	 81.33058	 32.72010	 26.79571	-10.88652	 79.49255	 -2.87148	 92.70284	710.57001	 44.90	
 16.988	-75.483	 81.37167	 37.56079	 22.29399	-10.52281	 78.82119	 -2.88385	 92.67367	710.53003	 44.90	
 17.001	-69.690	 81.38365	 42.56326	 17.78766	 -9.71698	 77.65133	 -2.96619	 92.66972	710.65002	 44.90	
 17.002	-63.866	 81.42917	 47.53154	 13.37514	 -8.48108	 75.90073	 -3.03573	 92.69490	710.60999	 44.90	
 17.006	-58.063	 81.39857	 52.31800	  9.16408	 -6.95247	 73.52667	 -3.07329	 92.71264	710.52002	 44.90	
 17.001	-52.301	 81.41167	 56.86454	  5.58020	 -4.98557	 70.61303	 -3.15079	 92.74231	710.50000	 44.90	
 17.007	-46.454	 81.37176	 61.38287	  2.29398	 -2.75667	 67.47809	 -3.26211	 92.69771	710.58002	 44.90	
 17.014	-40.657	 81.29465	 65.46429	 -0.82110	 -0.20215	 63.73363	 -3.25194	 92.71267	710.54999	 44.90	
 16.988	-34.839	 81.25365	 69.06966	 -3.54197	  2.81163	 59.35529	 -3.33973	 92.70597	710.50000	 44.90	
 16.995	-29.081	 81.19098	 72.11414	 -5.73531	  5.64207	 54.81481	 -3.37333	 92.70511	710.50000	 44.90	
 16.990	-23.241	 81.21933	 74.96104	 -7.53371	  9.73244	 50.09291	 -3.46526	 92.74673	710.48999	 44.90	
 17.000	-17.404	 81.13350	 77.22491	 -9.13769	 14.36504	 45.19625	 -3.53516	 92.77428	710.57001	 44.90	
 17.009	-11.617	 80.90891	 78.85692	-10.49315	 18.71574	 40.41607	 -3.66543	 92.73972	710.53998	 44.90	
 16.990	 -5.821	 80.75654	 79.89632	-11.34247	 23.23158	 34.97550	 -3.80256	 92.70313	710.46997	 44.90	
 17.000	  0.000	 80.55724	 80.47893	-11.85564	 27.58201	 30.07042	 -3.92049	 92.68679	710.53998	 44.80	
 16.990	  5.821	 80.44790	 80.54922	-12.04156	 31.43016	 25.81750	 -4.09924	 92.70969	710.57001	 44.80	
 17.009	 11.617	 80.33047	 80.17823	-12.13519	 36.25941	 21.21550	 -4.16909	 92.80388	710.58002	 44.80	
 17.000	 17.404	 80.17260	 79.12660	-11.56496	 41.22030	 16.55782	 -4.25102	 92.74380	710.46997	 44.80	
 16.990	 23.241	 80.10060	 77.57527	-10.54553	 46.14228	 11.97740	 -4.31395	 92.73328	710.59998	 44.80	
 16.995	 29.081	 79.94199	 75.43053	 -9.35681	 50.93879	  7.87205	 -4.44086	 92.71813	710.63000	 44.80	
 16.988	 34.839	 79.89694	 72.79297	 -7.69557	 55.51650	  4.23131	 -4.56642	 92.75220	710.63000	 44.80	
 17.014	 40.657	 79.75986	 69.82629	 -5.73910	 59.98112	  0.69192	 -4.71578	 92.76639	710.59003	 44.80	
 17.007	 46.454	 79.70595	 66.32873	 -3.25553	 64.23553	 -2.42138	 -4.76824	 92.78761	710.52002	 44.80	
 17.001	 52.301	 79.66096	 62.40186	 -1.15903	 67.99879	 -5.23263	 -4.84454	 92.79568	710.62000	 44.80	
 17.006	 58.063	 79.57573	 57.96508	  1.75355	 71.26415	 -7.68273	 -4.88090	 92.75137	710.54999	 44.80	
 17.002	 63.866	 79.63870	 53.47694	  5.16611	 74.30765	 -9.74848	 -4.92063	 92.78236	710.63000	 44.80	
 17.001	 69.690	 79.53125	 48.72731	  9.11868	 76.86570	-11.62894	 -4.96309	 92.75046	710.51001	 44.80	
 16.988	 75.483	 79.41283	 43.84606	 13.49276	 78.83741	-13.11180	 -4.99437	 92.75849	710.56000	 44.70	
 17.012	 81.253	 79.31562	 39.05802	 17.92586	 80.29166	-14.32514	 -5.02600	 92.74824	710.54999	 44.80	
 16.996	 87.091	 79.34273	 34.05833	 22.61877	 81.27151	-14.90823	 -5.08932	 92.80910	710.58002	 44.70	
 16.996	 92.909	 79.32760	 29.73692	 26.91574	 81.64546	-14.91530	 -5.19683	 92.77892	710.46002	 44.70	
 17.008	 98.662	 79.22406	 25.31629	 31.31650	 81.56277	-15.00284	 -5.24715	 92.79652	710.57001	 44.70	
 16.988	104.517	 79.24886	 20.58961	 36.36532	 80.89322	-14.53498	 -5.15290	 92.77985	710.56000	 44.70	
 17.001	110.310	 79.26978	 15.99077	 41.24026	 79.72320	-13.65334	 -5.14383	 92.77759	710.67999	 44.80	
 17.002	116.134	 79.32507	 11.48007	 46.18366	 78.01086	-12.29913	 -5.17867	 92.78538	710.59003	 44.80	
 17.006	121.937	 79.42663	  7.55895	 50.99263	 75.78551	-10.77607	 -5.18573	 92.80231	710.63000	 44.80	
 17.001	127.699	 79.47600	  4.03359	 55.58548	 72.94821	 -8.92885	 -5.14842	 92.77181	710.71002	 44.80	
 17.007	133.546	 79.52699	  0.73698	 60.15487	 69.69997	 -6.61791	 -5.13800	 92.76968	710.56000	 44.80	
 17.014	139.343	 79.59710	 -2.22982	 64.42051	 65.99554	 -3.96089	 -5.08090	 92.77322	710.66998	 44.80	
 16.988	145.161	 79.68668	 -4.73211	 68.10696	 62.00758	 -0.95069	 -5.03247	 92.74946	710.53998	 44.90	
 16.995	150.919	 79.76179	 -7.00207	 71.29461	 57.61668	  2.27962	 -4.97816	 92.77523	710.60999	 44.90	
 16.990	156.759	 79.91173	 -8.81429	 74.32993	 53.00717	  6.07431	 -4.85332	 92.79655	710.63000	 44.90	
 17.000	162.596	 79.99203	-10.30637	 76.77961	 48.27234	  9.99455	 -4.76697	 92.78163	710.65997	 44.90	
 17.009	168.383	 80.05792	-11.55176	 78.64664	 43.41276	 14.44390	 -4.65040	 92.79661	710.57001	 44.90	
 16.990	174.179	 80.13906	-12.36203	 79.90664	 38.38622	 19.03071	 -4.42275	 92.78333	710.54999	 44.90	
 18.709	174.675	 77.12447	-17.81149	 82.58469	 36.13369	 16.29601	 -4.32542	 92.78604	710.63000	 44.90	
 18.703	169.441	 77.12001	-16.99748	 81.34668	 41.09617	 11.64567	 -4.63689	 92.83878	710.58002	 44.90	
 18.691	164.085	 77.05978	-15.82035	 79.53014	 46.07930	  7.57213	 -4.90244	 92.78787	710.60999	 44.90	
 18.706	158.818	 76.95473	-14.52646	 77.31589	 50.87431	  3.62349	 -5.10702	 92.75580	710.52002	 44.90	
 18.695	153.537	 76.84725	-12.81536	 74.61613	 55.56440	  0.02132	 -5.24251	 92.81695	710.47998	 44.90	
 18.704	148.255	 76.87787	-10.82829	 71.46594	 60.02079	 -3.35398	 -5.36805	 92.83527	710.65997	 44.90	
 18.698	142.952	 76.76765	 -8.46596	 68.01363	 64.33038	 -6.57563	 -5.32924	 92.76332	710.59998	 44.90	
 18.699	137.625	 76.66500	 -5.92109	 64.08606	 68.20116	 -9.40306	 -5.45244	 92.72634	710.59998	 44.90	
 18.705	132.343	 76.60780	 -3.06428	 59.77651	 71.74825	-11.89306	 -5.49923	 92.75386	710.56000	 44.90	
 18.713	127.067	 76.60352	  0.14593	 55.32653	 74.97094	-13.99494	 -5.61405	 92.74783	710.53998	 44.90	
 18.700	121.794	 76.60012	  3.69394	 50.68098	 77.79664	-15.72316	 -5.61801	 92.81052	710.48999	 44.90	
 18.698	116.504	 76.50711	  7.47024	 45.79980	 80.05322	-17.27590	 -5.62021	 92.79777	710.59998	 44.90	
 18.707	111.165	 76.40353	 11.44797	 40.86798	 81.79829	-18.57269	 -5.65861	 92.69402	710.65002	 44.90	
 18.690	105.863	 76.25759	 16.08047	 35.88230	 83.16005	-19.52779	 -5.71725	 92.76804	710.59998	 44.90	
 18.696	100.583	 76.21584	 20.73497	 30.94420	 83.92736	-20.15414	 -5.82044	 92.73933	710.63000	 45.00	
 18.700	 95.309	 76.25505	 25.50047	 26.12779	 84.20992	-20.35283	 -5.91473	 92.73277	710.62000	 45.00	
 18.700	 90.000	 76.24897	 29.45303	 22.09893	 84.05998	-20.49300	 -5.87173	 92.71275	710.67999	 45.00	
 18.700	 84.691	 76.35474	 34.22698	 17.30636	 83.38617	-20.12483	 -5.76903	 92.68342	710.64001	 45.00	
 18.696	 79.417	 76.48697	 39.23661	 12.67502	 82.29134	-19.23029	 -5.64971	 92.78676	710.53003	 44.90	
 18.690	 74.137	 76.57358	 44.08904	  8.37824	 80.65168	-18.00491	 -5.62094	 92.76813	710.59003	 45.00	
 18.707	 68.835	 76.58544	 48.98354	  5.03056	 78.58167	-16.61599	 -5.54684	 92.72048	710.58002	 45.00	
 18.698	 63.496	 76.63815	 53.87883	  1.45450	 76.02090	-14.77692	 -5.52527	 92.81454	710.59003	 45.00	
 18.700	 58.206	 76.73754	 58.37513	 -1.82279	 72.91034	-12.68716	 -5.49564	 92.77392	710.59003	 45.00	
 18.713	 52.933	 76.75420	 62.77507	 -4.78867	 69.57011	-10.29113	 -5.47866	 92.78844	710.59998	 45.00	
 18.705	 47.657	 76.86444	 66.78495	 -7.50655	 65.91045	 -7.60237	 -5.40028	 92.82693	710.57001	 45.00	
 18.699	 42.375	 76.96344	 70.41315	 -9.99726	 61.75844	 -4.64975	 -5.37058	 92.80069	710.52002	 45.00	
 18.698	 37.048	 77.04139	 73.62495	-12.07328	 57.29605	 -1.29796	 -5.24057	 92.77107	710.67999	 45.00	
 18.704	 31.745	 76.98135	 76.45348	-13.76009	 52.79630	  2.23531	 -5.11993	 92.76401	710.67999	 45.00	
 18.695	 26.463	 77.27177	 78.76884	-15.11215	 48.21198	  5.97636	 -4.95778	 92.77657	710.63000	 45.00	
 18.706	 21.182	 77.26037	 80.60703	-16.24032	 43.26936	 10.05697	 -4.80410	 92.76654	710.57001	 45.00	
 18.691	 15.915	 77.33160	 82.07719	-17.01938	 38.40973	 14.35931	 -4.58407	 92.82584	710.62000	 45.00	
 18.703	 10.559	 77.38150	 82.99855	-17.59540	 33.42499	 19.14221	 -4.48895	 92.78962	710.64001	 45.00	
 18.709	  5.325	 77.59105	 83.43249	-17.63451	 29.02175	 23.92572	 -4.39386	 92.83418	710.53003	 45.00	
 18.700	  0.000	 77.69363	 83.29657	-17.32686	 25.09014	 27.95202	 -4.03678	 92.76163	710.62000	 45.00	
 18.709	 -5.325	 77.80251	 82.73624	-16.90173	 20.41409	 32.83094	 -3.89581	 92.73052	710.63000	 45.00	
 18.703	-10.559	 78.02258	 81.68049	-15.99947	 15.73073	 37.95252	 -3.67914	 92.79401	710.63000	 45.00	
 18.691	-15.915	 78.19250	 80.10535	-14.69225	 10.96783	 43.06510	 -3.54554	 92.76146	710.71997	 45.00	
 18.706	-21.182	 78.38228	 78.13737	-13.28311	  7.00960	 48.11768	 -3.39162	 92.83344	710.62000	 45.00	
 18.695	-26.463	 78.48992	 75.52951	-11.64955	  3.74093	 52.89062	 -3.27103	 92.81368	710.60999	 45.00	
 18.704	-31.745	 78.52231	 72.51570	 -9.65525	  0.39447	 57.29967	 -3.19261	 92.77171	710.60999	 45.00	
 18.698	-37.048	 78.55318	 69.18565	 -7.20118	 -2.64933	 61.87364	 -3.10736	 92.75716	710.59998	 45.00	
 18.699	-42.375	 78.70435	 65.46513	 -4.49762	 -5.52914	 66.13139	 -3.03856	 92.82699	710.63000	 45.00	
 18.705	-47.657	 78.68136	 61.19720	 -1.48132	 -7.97884	 69.77885	 -2.95274	 92.78693	710.59998	 45.10	
 18.713	-52.933	 78.62360	 56.72300	  1.86663	-10.09836	 72.83929	 -2.88126	 92.76258	710.59003	 45.00	
 18.700	-58.206	 78.73538	 52.16755	  5.50964	-11.82631	 75.73682	 -2.83076	 92.79358	710.75000	 45.10	
 18.698	-63.496	 78.77261	 47.39037	  8.86833	-13.24104	 78.13923	 -2.75572	 92.80734	710.58002	 45.10	
 18.707	-68.835	 78.69752	 42.51630	 13.29960	-14.69407	 79.98103	 -2.63222	 92.80380	710.72998	 45.10	
 18.690	-74.137	 78.69025	 37.27087	 18.00277	-15.65049	 81.27303	 -2.58282	 92.82043	710.73999	 45.10	
 18.696	-79.417	 78.64175	 32.35441	 22.69557	-16.21268	 82.16442	 -2.57547	 92.84890	710.73999	 45.10	
 18.700	-84.691	 78.62830	 28.21741	 26.82528	-16.21372	 82.41248	 -2.53366	 92.83337	710.82001	 45.10	
 18.700	-90.000	 78.58295	 23.78308	 31.38076	-16.18066	 82.22825	 -2.48145	 92.78930	710.71002	 45.00	
 18.700	-95.309	 78.56271	 19.17966	 36.30191	-15.76226	 81.52493	 -2.45408	 92.79207	710.73999	 45.10	
 18.696	-100.583	 78.50020	 14.64656	 41.24428	-14.94066	 80.33188	 -2.48270	 92.80914	710.78003	 45.00	
 18.690	-105.863	 78.53033	 10.48427	 46.10423	-13.66427	 78.67739	 -2.50451	 92.77863	710.64001	 45.10	
 18.707	-111.165	 78.59041	  6.61424	 50.99042	-12.20896	 76.52440	 -2.51356	 92.81522	710.62000	 45.00	
 18.698	-116.504	 78.57257	  2.99035	 55.72580	-10.39844	 73.76874	 -2.58445	 92.81689	710.76001	 45.10	
 18.700	-121.794	 78.47012	 -0.40263	 60.19667	 -8.26638	 70.58136	 -2.61501	 92.82498	710.71002	 45.10	
 18.713	-127.067	 78.33379	 -3.62318	 64.37658	 -6.06559	 67.20449	 -2.76336	 92.80997	710.70001	 45.10	
 18.705	-132.343	 78.21577	 -6.48292	 68.22999	 -3.48590	 63.28733	 -2.76468	 92.77956	710.75000	 45.00	
 18.699	-137.625	 78.16569	 -8.91762	 71.71051	 -0.53592	 58.86583	 -2.79968	 92.81840	710.64001	 45.00	
 18.698	-142.952	 78.10954	-11.03872	 74.90205	  2.68506	 54.36872	 -2.83185	 92.85154	710.71002	 45.00	
 18.704	-148.255	 77.99644	-13.03629	 77.56734	  6.07926	 49.64066	 -2.94393	 92.79106	710.73999	 45.00	
 18.695	-153.537	 77.94121	-14.58288	 79.74509	  9.33467	 44.80095	 -3.01544	 92.82706	710.78998	 45.00	
 18.706	-158.818	 77.73125	-16.19381	 81.42711	 13.84515	 39.77417	 -3.10588	 92.79610	710.75000	 45.00	
 18.691	-164.085	 77.61953	-17.24076	 82.67348	 18.38381	 34.66225	 -3.26704	 92.81062	710.71997	 45.00	
 18.703	-169.441	 77.50206	-17.98046	 83.46342	 23.06104	 29.57462	 -3.47522	 92.82011	710.73999	 45.00	
 18.709	-174.675	 77.41894	-18.15401	 83.68875	 27.57835	 24.73828	 -3.68605	 92.85412	710.71997	 45.00	
 18.700	180.000	 77.35111	-18.08346	 83.42602	 31.45719	 20.87557	 -3.97724	 92.87720	710.70001	 45.00	
 20.400	180.000	 74.17899	-23.36577	 85.69685	 29.19166	 18.02409	 -3.84179	 92.86671	710.71997	 45.00	
 20.401	-175.153	 74.29185	-23.50257	 86.00922	 25.51648	 21.71006	 -3.46368	 92.89104	710.77002	 45.00	
 20.407	-170.264	 74.39549	-23.29047	 85.85601	 20.76127	 26.56913	 -3.25629	 92.86246	710.73999	 45.00	
 20.410	-165.423	 74.53804	-22.53152	 85.19493	 15.92011	 31.48855	 -3.13275	 92.80502	710.72998	 45.00	
 20.392	-160.496	 74.67429	-21.49940	 84.09952	 11.32123	 36.56353	 -2.94427	 92.83114	710.70001	 45.00	
 20.401	-155.705	 74.73816	-20.38614	 82.59727	  7.18272	 41.71844	 -2.86759	 92.86401	710.82001	 45.00	
 20.405	-150.835	 74.78360	-18.99442	 80.60186	  4.02266	 46.54131	 -2.73463	 92.81019	710.78003	 45.10	
 20.397	-145.903	 74.97330	-17.12866	 78.22134	  0.62290	 51.48443	 -2.63309	 92.86675	710.77002	 45.10	
 20.392	-141.062	 75.02999	-15.15287	 75.36094	 -2.65648	 56.09490	 -2.57388	 92.83001	710.76001	 45.10	
 20.396	-136.227	 75.11008	-13.00064	 72.06016	 -5.76261	 60.59321	 -2.54022	 92.83121	710.71002	 45.10	
 20.408	-131.372	 75.14217	-10.60752	 68.58087	 -8.51523	 64.82533	 -2.47455	 92.82838	710.78003	 45.10	
 20.410	-126.511	 75.23748	 -7.70110	 64.63355	-10.99608	 68.66504	 -2.49308	 92.82960	710.77002	 45.10	
 20.400	-121.604	 75.37348	 -4.54022	 60.26333	-13.24962	 72.18429	 -2.44772	 92.88747	710.75000	 45.10	
 20.403	-116.741	 75.42619	 -1.32755	 55.83969	-15.39499	 75.41095	 -2.40673	 92.87996	710.63000	 45.10	
 20.413	-111.900	 75.48495	  2.12012	 51.17730	-17.17173	 78.16032	 -2.40641	 92.88188	710.66998	 45.10	
 20.398	-107.004	 75.49223	  5.86916	 46.25076	-18.64683	 80.37971	 -2.35042	 92.85125	710.75000	 45.10	
 20.394	-102.132	 75.48535	  9.81962	 41.37830	-19.81991	 82.18820	 -2.34597	 92.85481	710.81000	 45.10	
 20.403	-97.332	 75.48040	 13.73969	 36.45357	-20.74183	 83.58321	 -2.40809	 92.86323	710.79999	 45.10	
 20.392	-92.440	 75.46416	 18.34490	 31.48584	-21.35027	 84.42673	 -2.47135	 92.80794	710.82001	 45.10	
 20.392	-87.560	 75.51166	 23.34665	 26.65374	-21.66278	 84.85531	 -2.42412	 92.81547	710.67999	 45.10	
 20.403	-82.668	 75.52192	 27.33576	 22.44618	-21.68869	 84.87263	 -2.45064	 92.80694	710.79999	 45.10	
 20.394	-77.868	 75.54855	 31.74860	 17.77728	-21.38045	 84.38869	 -2.47123	 92.79469	710.65997	 45.10	
 20.398	-72.996	 75.65272	 36.65915	 13.17591	-20.71346	 83.50468	 -2.48549	 92.83984	710.71002	 45.10	
 20.413	-68.100	 75.66191	 41.86484	  8.89759	-19.80885	 82.05572	 -2.48878	 92.83569	710.65997	 45.10	
 20.403	-63.259	 75.69604	 46.62485	  4.92700	-18.64931	 80.16740	 -2.54897	 92.82246	710.63000	 45.10	
 20.400	-58.396	 75.69546	 51.47638	  1.52323	-17.19431	 77.88124	 -2.66151	 92.85884	710.64001	 45.10	
 20.410	-53.489	 75.74094	 56.18486	 -1.99026	-15.38708	 75.03745	 -2.79053	 92.88901	710.69000	 45.10	
 20.408	-48.628	 75.66293	 60.64646	 -5.28122	-13.35278	 71.76915	 -2.79601	 92.83754	710.64001	 45.10	
 20.396	-43.773	 75.61987	 64.92001	 -8.30935	-11.16571	 68.33548	 -2.83526	 92.86034	710.66998	 45.10	
 20.392	-38.938	 75.56030	 68.77721	-10.96770	 -8.50387	 64.33366	 -2.90675	 92.83172	710.59998	 45.10	
 20.397	-34.097	 75.50217	 72.31171	-13.43197	 -5.59671	 59.82045	 -3.03313	 92.84804	710.71997	 45.10	
 20.405	-29.165	 75.43455	 75.66120	-15.66946	 -2.36884	 55.33928	 -3.10530	 92.88136	710.71002	 45.10	
 20.401	-24.295	 75.34538	 78.44737	-17.48116	  1.08516	 50.66896	 -3.25987	 92.86340	710.54999	 45.10	
 20.392	-19.504	 75.29593	 80.73148	-18.92114	  4.90974	 45.72506	 -3.39877	 92.83128	710.59003	 45.10	
 20.410	-14.577	 75.09045	 82.69018	-20.33405	  8.89672	 40.59446	 -3.49741	 92.81617	710.65002	 45.10	
 20.407	 -9.736	 74.97533	 84.17896	-21.26809	 12.63732	 35.52776	 -3.74000	 92.85023	710.60999	 45.10	
 20.401	 -4.847	 74.78667	 85.18737	-22.13593	 17.44417	 30.46196	 -3.94473	 92.83257	710.69000	 45.10	
 20.400	  0.000	 74.64185	 85.68836	-22.55379	 22.24862	 25.64116	 -4.11383	 92.83057	710.58002	 45.00	
 20.401	  4.847	 74.39352	 85.75835	-22.84070	 26.01809	 21.65316	 -4.63800	 92.79314	710.62000	 45.00	
 20.407	  9.736	 74.26646	 85.47357	-22.80791	 30.69632	 16.82562	 -4.83002	 92.82888	710.72998	 45.10	
 20.410	 14.577	 74.05129	 84.64407	-22.43524	 35.20388	 12.37050	 -4.95139	 92.77627	710.58002	 45.10	
 20.392	 19.504	 74.02363	 83.35783	-21.81957	 40.29454	  7.98684	 -5.13849	 92.82570	710.73999	 45.10	
 20.401	 24.295	 73.93888	 81.67033	-21.05080	 45.00747	  3.86941	 -5.45191	 92.83628	710.65002	 45.10	
 20.405	 29.165	 73.90289	 79.54983	-19.78424	 49.74300	  0.17964	 -5.67903	 92.81287	710.71997	 45.10	
 20.397	 34.097	 73.79933	 76.95693	-18.24571	 54.46324	 -3.43177	 -5.85403	 92.83289	710.70001	 45.10	
 20.392	 38.938	 73.66347	 73.88692	-16.43455	 58.88358	 -6.78469	 -5.91028	 92.82518	710.71997	 45.10	
 20.396	 43.773	 73.54037	 70.55814	-14.32412	 63.22840	 -9.87393	 -5.96256	 92.76073	710.66998	 45.10	
 20.408	 48.628	 73.51781	 66.91328	-11.99372	 67.21593	-12.71438	 -6.01431	 92.80001	710.75000	 45.10	
 20.410	 53.489	 73.46123	 62.74871	 -9.31900	 70.92271	-15.36069	 -6.08820	 92.78191	710.72998	 45.10	
 20.400	 58.396	 73.40285	 58.28968	 -6.35542	 74.32949	-17.70358	 -6.12040	 92.73685	710.70001	 45.10	
 20.403	 63.259	 73.36262	 53.72258	 -3.17880	 77.39111	-19.72717	 -6.13698	 92.73618	710.77002	 45.10	
 20.413	 68.100	 73.28846	 48.94135	  0.25066	 79.97963	-21.49884	 -6.19717	 92.72912	710.84003	 45.10	
 20.398	 72.996	 73.23521	 44.23520	  4.02344	 82.14119	-23.02235	 -6.22403	 92.74641	710.59998	 45.10	
 20.394	 77.868	 73.17587	 39.25616	  7.97370	 83.93608	-24.17856	 -6.20845	 92.79008	710.69000	 45.10	
 20.403	 82.668	 73.15520	 34.32220	 11.88595	 85.20227	-24.87861	 -6.28151	 92.78082	710.63000	 45.10	
 20.392	 87.560	 73.09675	 29.32452	 16.52795	 86.09925	-25.53254	 -6.38622	 92.77552	710.71002	 45.10	
 20.392	 92.440	 73.07457	 24.67795	 21.19675	 86.57018	-25.87068	 -6.48792	 92.87091	710.70001	 45.10	
 20.403	 97.332	 73.02087	 20.83789	 25.20816	 86.48244	-25.62737	 -6.53667	 92.81796	710.78003	 45.10	
 20.394	102.132	 73.06134	 15.83882	 30.08614	 86.01443	-25.04107	 -6.47783	 92.79589	710.69000	 45.20	
 20.398	107.004	 73.09677	 11.39321	 35.04655	 85.08681	-24.39967	 -6.35852	 92.79539	710.66998	 45.20	
 20.413	111.900	 73.03485	  7.41392	 40.06068	 83.65469	-23.64165	 -6.23479	 92.75329	710.76001	 45.10	
 20.403	116.741	 73.12106	  3.46876	 44.95050	 81.77743	-22.40078	 -6.17506	 92.77921	710.75000	 45.20	
 20.400	121.604	 73.22095	 -0.23872	 49.86090	 79.55130	-20.88647	 -6.06939	 92.80379	710.67999	 45.20	
 20.410	126.511	 73.33482	 -3.76416	 54.66569	 76.84278	-19.15112	 -5.98752	 92.85293	710.78003	 45.20	
 20.408	131.372	 73.33756	 -6.92742	 59.18913	 73.65766	-17.07515	 -5.83589	 92.84710	710.78003	 45.20	
 20.396	136.227	 73.38655	 -9.70493	 63.51665	 70.22152	-14.79508	 -5.71770	 92.82959	710.79999	 45.20	
 20.392	141.062	 73.49829	-12.25953	 67.52954	 66.46846	-12.20312	 -5.55539	 92.83958	710.60999	 45.20	
 20.397	145.903	 73.55547	-14.60396	 71.12721	 62.28113	 -9.33815	 -5.39469	 92.78961	710.62000	 45.20	
 20.405	150.835	 73.65378	-16.79594	 74.59878	 57.80180	 -6.13293	 -5.19060	 92.85057	710.67999	 45.20	
 20.401	155.705	 73.69863	-18.59063	 77.50596	 53.25587	 -2.71012	 -5.12528	 92.81870	710.59998	 45.20	
 20.392	160.496	 73.84084	-20.04845	 79.99794	 48.55022	  1.02141	 -4.86236	 92.82706	710.66998	 45.20	
 20.410	165.423	 73.91595	-21.34735	 82.15768	 43.61433	  4.98231	 -4.57257	 92.83871	710.72998	 45.20	
 20.407	170.264	 73.94302	-22.34887	 83.76971	 38.69035	  8.97741	 -4.28532	 92.81637	710.65002	 45.20	
 20.401	175.153	 74.10525	-22.97921	 84.99906	 33.76419	 13.40619	 -4.01152	 92.86153	710.69000	 45.20	
  0.141	 45.000	 93.15801	 40.64778	 40.76939	 42.28270	 38.13987	  1.92609	 92.92815	710.67999	 45.20	
  4.001	128.691	 92.62362	 33.03315	 46.75664	 51.14983	 27.89542	  1.37873	 92.88409	710.65002	 45.10	
  4.002	 76.995	 92.60689	 42.96601	 36.68659	 52.84428	 26.47766	  1.68034	 92.85953	710.72998	 45.10	
  4.002	 25.892	 92.78713	 50.65796	 29.61428	 45.80863	 33.35271	  1.84719	 92.89688	710.67999	 45.20	
  4.002	-25.892	 92.91148	 50.01410	 30.49273	 35.73447	 43.67049	  1.71028	 92.88368	710.65002	 45.20	
  4.002	-76.995	 92.94783	 41.65442	 38.82021	 30.03759	 49.59311	  1.43044	 92.91041	710.69000	 45.20	
  4.001	-128.691	 92.87495	 31.99150	 48.44109	 33.01285	 46.39462	  1.22416	 92.89928	710.70001	 45.20	
  4.000	180.000	 92.73424	 28.16255	 52.18784	 42.30944	 36.77386	  1.18902	 92.91238	710.67999	 45.20	
  8.000	180.000	 90.83381	 15.84223	 62.55334	 41.30409	 33.80719	 -0.26916	 92.85791	710.67999	 45.20	
  7.991	-152.370	 91.05228	 17.69188	 60.93946	 30.52393	 45.14006	 -0.24579	 92.86956	710.72998	 45.20	
  7.997	-124.550	 91.22006	 23.90565	 53.74660	 22.27064	 54.96639	 -0.23404	 92.87124	710.63000	 45.20	
  8.006	-96.837	 91.35288	 33.67541	 43.38879	 18.04069	 60.29884	 -0.14324	 92.87920	710.69000	 45.20	
  7.988	-69.228	 91.45285	 44.86586	 32.63501	 18.60343	 59.74584	  0.07120	 92.90875	710.73999	 45.20	
  7.997	-41.563	 91.39433	 54.77000	 23.26423	 23.67032	 53.20661	  0.35078	 92.88712	710.63000	 45.20	
  8.008	-13.821	 91.28606	 61.01872	 17.84907	 32.56933	 43.18254	  0.65899	 92.91350	710.48999	 45.20	
  8.008	 13.821	 91.01159	 61.87934	 16.80595	 43.55997	 31.74070	  0.81586	 92.91335	710.59003	 45.20	
  7.997	 41.563	 90.76656	 56.96259	 20.46853	 53.93451	 21.94842	  0.76426	 92.89886	710.69000	 45.20	
  7.988	 69.228	 90.59515	 47.54799	 28.17645	 61.59517	 15.60667	  0.61002	 92.92252	710.65002	 45.20	
  8.006	 96.837	 90.41537	 36.37661	 38.67269	 63.72584	 13.75013	  0.33436	 92.87751	710.65997	 45.20	
  7.997	124.550	 90.48007	 25.98416	 49.72039	 60.37421	 16.47174	  0.05514	 92.85798	710.59998	 45.20	
  7.991	152.370	 90.63091	 18.78069	 58.57520	 52.17382	 23.41224	 -0.49566	 92.87852	710.65002	 45.20	
 12.009	161.059	 86.99580	  5.68742	 68.29930	 50.12231	 19.35237	 -2.81509	 92.86398	710.57001	 45.20	
 12.013	142.081	 86.76444	 10.70514	 61.38330	 60.53979	 10.90656	 -2.70271	 92.87393	710.64001	 45.20	
 12.006	123.113	 86.65429	 18.79047	 51.30432	 68.07486	  4.29185	 -2.55835	 92.85323	710.50000	 45.20	
 12.007	104.200	 86.61230	 28.35544	 40.08648	 72.14595	  1.23742	 -2.52573	 92.90283	710.64001	 45.20	
 11.989	 85.301	 86.64274	 39.53771	 28.84486	 72.24138	  1.13152	 -2.39692	 92.86192	710.71002	 45.10	
 12.013	 66.294	 86.79716	 50.88891	 19.07986	 68.28150	  4.11548	 -1.88665	 92.92126	710.59003	 45.20	
 12.012	 47.388	 86.91298	 60.96358	 11.26543	 60.98767	 10.31981	 -1.30941	 92.90335	710.58002	 45.20	
 11.990	 28.440	 87.13505	 67.78867	  5.69868	 50.71222	 18.95308	 -1.38995	 92.84665	710.75000	 45.10	
 11.991	  9.464	 87.46706	 71.14805	  3.55644	 39.46922	 29.34115	 -1.41793	 92.89040	710.73999	 45.10	
 11.991	 -9.464	 87.80552	 70.34051	  4.64314	 28.44215	 40.92608	 -1.59154	 92.89172	710.65997	 45.10	
 11.990	-28.440	 88.04890	 65.63500	  9.18130	 19.41151	 52.04673	 -1.75392	 92.91839	710.73999	 45.10	
 12.012	-47.388	 88.13734	 57.46867	 15.91509	 11.85496	 61.79731	 -1.75369	 92.91525	710.81000	 45.10	
 12.013	-66.294	 88.18439	 46.92416	 24.85973	  7.05434	 67.86745	 -2.15523	 92.88118	710.66998	 45.10	
 11.989	-85.301	 88.17313	 35.43106	 35.92630	  5.15155	 69.73305	 -1.96513	 92.88211	710.63000	 45.10	
 12.007	-104.200	 87.95584	 24.46309	 46.95055	  6.56754	 67.86246	 -2.27910	 92.83504	710.60999	 45.10	
 12.006	-123.113	 87.88732	 15.23728	 57.61432	 11.30416	 62.05592	 -2.38837	 92.92671	710.62000	 45.10	
 12.013	-142.081	 87.74070	  8.63063	 65.88148	 18.37455	 52.51076	 -2.51238	 92.86165	710.75000	 45.10	
 12.009	-161.059	 87.52779	  4.63657	 70.69043	 27.81582	 41.51958	 -2.14172	 92.87962	710.78003	 45.10	
 16.000	180.000	 81.94869	 -9.42057	 79.16709	 34.86221	 24.76767	 -4.05010	 92.87354	710.79999	 45.10	
 15.990	-165.604	 82.15993	 -8.91062	 78.80928	 24.30596	 35.75056	 -3.47179	 92.85735	710.75000	 45.10	
 16.002	-151.165	 82.46038	 -6.00068	 75.31866	 14.44258	 47.63939	 -3.18911	 92.88638	710.77002	 45.10	
 16.002	-136.836	 82.68261	 -0.94241	 68.83492	  5.38232	 58.38534	 -3.02065	 92.88166	710.75000	 45.10	
 15.995	-122.439	 82.77123	  5.76491	 59.85304	 -1.20589	 67.55817	 -2.94974	 92.88446	710.70001	 45.10	
 15.993	-107.966	 82.89821	 14.80947	 49.00585	 -5.01223	 74.03926	 -2.76855	 92.89706	710.83002	 45.10	
 16.005	-93.629	 83.01887	 24.92723	 37.68674	 -7.31358	 77.45852	 -2.83931	 92.88103	710.87000	 45.10	
 15.992	-79.234	 83.08324	 35.64439	 26.78376	 -7.57321	 77.69867	 -2.84968	 92.85387	710.91998	 45.10	
 16.009	-64.774	 83.10384	 47.26880	 16.37550	 -5.62316	 74.77188	 -2.95287	 92.91160	710.81000	 45.20	
 15.997	-50.364	 83.05064	 58.15043	  6.96919	 -1.36186	 68.59538	 -3.18127	 92.84624	710.79999	 45.20	
 15.997	-36.045	 82.97045	 67.57581	 -0.77549	  4.55779	 59.76257	 -3.23473	 92.88347	710.82001	 45.20	
 16.000	-21.597	 82.89441	 74.44675	 -5.10461	 13.87109	 48.81695	 -3.24962	 92.93417	710.81000	 45.10	
 16.003	 -7.169	 82.48714	 78.32889	 -8.16210	 23.99498	 36.89418	 -3.47842	 92.87405	710.65997	 45.10	
 16.003	  7.169	 82.13079	 79.06197	 -9.02113	 33.85574	 25.92650	 -3.69749	 92.87865	710.70001	 45.20	
 16.000	 21.597	 81.90154	 76.77598	 -7.85924	 45.45891	 15.18840	 -3.76256	 92.94708	710.82001	 45.20	
 15.997	 36.045	 81.58508	 71.04917	 -4.37408	 56.44435	  5.68338	 -3.95822	 92.85761	710.81000	 45.20	
 15.997	 50.364	 81.45555	 63.16585	  0.46453	 66.17843	 -1.64661	 -4.21784	 92.91578	710.63000	 45.20	
 16.009	 64.774	 81.27311	 52.74051	  8.16848	 73.67498	 -7.41527	 -4.38356	 92.88952	710.71997	 45.20	
 15.992	 79.234	 81.16005	 41.42240	 18.52894	 78.53396	-10.89875	 -4.42681	 92.89890	710.71002	 45.20	
 16.005	 93.629	 81.08353	 30.56469	 28.78511	 80.21953	-11.87360	 -4.62909	 92.89725	710.67999	 45.20	
 15.993	107.966	 81.04143	 19.79532	 40.13581	 78.90826	-11.12664	 -4.61696	 92.89859	710.72998	 45.20	
 15.995	122.439	 81.14823	  9.55052	 51.52058	 74.36311	 -7.79880	 -4.60066	 92.85483	710.71002	 45.20	
 16.002	136.836	 81.30940	  1.69502	 62.07784	 66.97175	 -2.55301	 -4.67996	 92.87850	710.65997	 45.10	
 16.002	151.165	 81.46505	 -4.25857	 70.46735	 57.28742	  4.64983	 -4.56787	 92.88799	710.70001	 45.10	
 15.990	165.604	 81.71934	 -7.98177	 76.43735	 46.38173	 14.42921	 -4.37961	 92.88857	710.70001	 45.10	
 20.003	168.362	 74.79912	-20.75951	 82.75026	 40.97602	  8.14218	 -4.52808	 92.90794	710.78998	 45.10	
 20.008	156.764	 74.49857	-17.85533	 77.74453	 52.38822	 -1.09081	 -5.16453	 92.86372	710.67999	 45.10	
 20.000	145.147	 74.32955	-13.18777	 70.36484	 62.91289	 -8.80188	 -5.49592	 92.83473	710.65002	 45.20	
 19.995	133.545	 74.16014	 -7.18483	 61.07972	 71.93279	-14.99767	 -5.79988	 92.88180	710.63000	 45.20	
 20.009	121.926	 74.08389	  0.44594	 50.36093	 79.10066	-19.63478	 -6.02209	 92.88816	710.69000	 45.20	
 20.005	110.327	 73.89296	  9.53693	 38.84629	 83.77065	-22.78551	 -6.19595	 92.86737	710.64001	 45.20	
 19.989	 98.733	 73.93477	 20.15352	 27.31039	 85.91629	-24.30751	 -6.42868	 92.89191	710.59998	 45.20	
 19.999	 87.075	 73.93529	 30.32704	 16.86561	 85.64766	-24.32239	 -6.33540	 92.85414	710.69000	 45.20	
 19.992	 75.457	 74.11360	 42.03707	  6.63469	 82.78093	-22.37734	 -6.17520	 92.89748	710.75000	 45.20	
 20.009	 63.844	 74.29549	 53.35070	 -1.70061	 77.51141	-18.75725	 -6.08216	 92.90530	710.69000	 45.20	
 19.989	 52.269	 74.43211	 63.79845	 -8.77450	 69.89817	-13.51003	 -5.96573	 92.88435	710.71997	 45.20	
 19.999	 40.602	 74.51665	 72.50853	-14.51083	 60.47438	 -6.87174	 -5.85744	 92.91281	710.71997	 45.20	
 20.004	 29.051	 74.79868	 79.22471	-18.50113	 49.97289	  1.15309	 -5.53825	 92.90079	710.67999	 45.20	
 20.005	 17.433	 74.95489	 83.55853	-20.93041	 38.60093	 10.59305	 -5.01436	 92.94595	710.65997	 45.10	
 20.006	  5.780	 75.25550	 85.27116	-21.78615	 27.50113	 21.47712	 -4.63710	 92.91787	710.71997	 45.10	
 20.006	 -5.780	 75.67516	 84.57496	-20.70237	 17.31787	 32.04904	 -3.96188	 92.94016	710.65997	 45.10	
 20.005	-17.433	 76.04956	 81.23267	-18.28340	  7.09465	 44.12370	 -3.51689	 92.95100	710.78003	 45.10	
 20.004	-29.051	 76.24905	 75.41444	-14.47188	 -1.17434	 55.27858	 -3.22276	 92.95299	710.78998	 45.10	
 19.999	-40.602	 76.34692	 67.35710	 -8.97272	 -8.22642	 65.54249	 -2.99467	 92.86082	710.76001	 45.10	
 19.989	-52.269	 76.52570	 57.42635	 -1.74050	-13.55450	 73.80697	 -2.84424	 92.92483	710.81000	 45.10	
 20.009	-63.844	 76.42575	 46.36486	  6.65754	-17.57403	 79.97676	 -2.65098	 92.86001	710.84998	 45.10	
 19.992	-75.457	 76.46154	 34.64144	 16.32698	-19.80089	 83.54043	 -2.49225	 92.90746	710.70001	 45.10	
 19.999	-87.075	 76.32407	 24.42898	 26.86521	-20.38964	 84.39268	 -2.46426	 92.91249	710.78003	 45.10	
 19.989	-98.733	 76.27347	 13.30863	 38.36982	-19.18796	 82.70536	 -2.48851	 92.89973	710.78998	 45.10	
 20.005	-110.327	 76.30614	  4.29060	 49.81984	-16.42986	 78.52109	 -2.51114	 92.91089	710.71997	 45.10	
 20.009	-121.926	 76.10695	 -3.73802	 60.52079	-11.99622	 71.65881	 -2.56354	 92.89491	710.78998	 45.10	
 19.995	-133.545	 75.90201	-10.62926	 69.94242	 -6.30138	 62.87031	 -2.63416	 92.87824	710.81000	 45.10	
 20.000	-145.147	 75.81903	-15.62677	 77.46561	  1.07784	 52.31868	 -2.77659	 92.95278	710.83002	 45.10	
 20.008	-156.764	 75.44937	-19.58244	 82.49619	  9.47553	 40.88935	 -2.96894	 92.87612	710.72998	 45.10	
 20.003	-168.362	 75.23627	-21.83753	 85.17770	 19.66800	 29.00020	 -3.32913	 92.89801	710.70001	 45.10	
 20.000	180.000	 74.92847	-22.17288	 85.22807	 29.86337	 18.59699	 -3.91314	 92.88913	710.75000	 45.20	
