FileType=PCF
NHL=14
Date=05/29/19	12:53:35
Facility=APL
Serial=16071-10
Customer=NASA
NP=6
Mach=0.550000
Calibration=1:1
CalPts=490
TstPts=95
PortNumbering=AP Standard
Units=Torr C m/s kg/m^3 deg mm 
Theta[deg]	Phi[deg]	P1[Torr]	P2[Torr]	P3[Torr]	P4[Torr]	P5[Torr]	P6[Torr]	Pt[Torr]	Ps[Abs,Torr]	Ts[C]	
  0.000	  0.000	160.05176	 74.83824	 76.32096	 72.09074	 75.62354	  6.24754	159.93613	702.23999	 43.40	
  1.691	128.401	160.02641	 70.25554	 80.63750	 78.73345	 68.77006	  6.13014	159.91046	702.17999	 43.40	
  1.692	 77.194	160.06430	 77.20115	 73.59731	 79.92076	 67.64419	  6.17679	159.92719	702.19000	 43.50	
  1.699	 26.182	160.07188	 81.88796	 68.49852	 75.28605	 72.30084	  6.18043	159.94678	702.17999	 43.60	
  1.699	-26.182	160.08737	 81.29338	 68.83795	 68.17792	 79.22747	  6.12556	159.97058	702.08002	 43.60	
  1.692	-77.194	160.05785	 75.73774	 74.85841	 64.37470	 83.03771	  6.07018	159.95819	702.22998	 43.60	
  1.691	-128.401	160.08739	 69.23479	 81.54873	 66.11599	 81.20760	  6.03248	160.00977	702.10999	 43.70	
  1.700	180.000	160.14389	 66.59470	 84.02996	 72.52930	 74.97323	  6.04071	160.05443	702.15997	 43.70	
  3.400	180.000	159.88216	 58.38219	 91.49963	 72.37720	 73.88592	  5.52608	160.06107	702.09003	 43.70	
  3.388	-152.325	159.87730	 59.69032	 90.00953	 65.01666	 81.23732	  5.55448	160.08778	702.17999	 43.80	
  3.397	-124.529	159.86049	 63.84786	 85.40941	 59.49680	 87.25034	  5.55453	160.10173	702.14001	 43.80	
  3.399	-96.763	159.87537	 71.05467	 78.62759	 56.63855	 90.34636	  5.57908	160.08493	702.07001	 43.80	
  3.394	-69.283	159.96591	 78.57440	 70.61391	 57.17133	 89.90809	  5.61249	160.14095	702.06000	 43.80	
  3.400	-41.398	160.00072	 85.21947	 64.56672	 60.81600	 85.94340	  5.64587	160.12581	702.14001	 43.80	
  3.401	-14.021	160.08037	 89.20681	 61.00944	 67.01926	 79.56782	  5.72720	160.13454	702.23999	 43.90	
  3.401	 14.021	160.14099	 89.95281	 60.55740	 74.85603	 71.86745	  5.84427	160.17215	702.15002	 43.90	
  3.400	 41.398	160.14267	 86.89227	 63.37884	 81.91846	 65.02523	  5.86182	160.16893	702.15002	 43.90	
  3.394	 69.283	160.15736	 81.33202	 68.79934	 86.49264	 60.63783	  5.90961	160.19302	702.08002	 43.90	
  3.399	 96.763	160.12535	 73.89267	 76.36733	 87.94178	 59.30106	  5.86626	160.17439	702.06000	 43.90	
  3.397	124.529	160.17555	 65.91085	 83.80860	 85.63409	 61.52290	  5.78529	160.24393	702.15002	 43.90	
  3.388	152.325	160.11803	 60.85287	 89.14981	 80.11681	 66.63728	  5.62868	160.26273	702.03998	 44.00	
  5.099	161.165	159.43909	 52.46124	 96.90261	 79.97820	 64.86793	  4.92313	160.26099	702.10999	 44.00	
  5.109	142.013	159.51912	 56.45289	 92.55056	 86.89606	 58.57172	  5.06087	160.27455	702.17999	 44.10	
  5.095	123.033	159.56226	 62.05752	 86.34188	 91.98038	 54.06060	  5.18570	160.23148	702.06000	 44.10	
  5.105	104.191	159.66217	 69.24638	 79.02621	 94.91636	 51.47031	  5.26213	160.26978	702.09003	 44.10	
  5.093	 85.207	159.72153	 77.76968	 70.68873	 95.02946	 51.46971	  5.31565	160.30983	702.04999	 44.10	
  5.104	 66.290	159.73288	 85.01709	 64.08458	 92.49800	 53.68792	  5.34432	160.32368	702.04999	 44.10	
  5.094	 47.331	159.73424	 91.08707	 58.32769	 87.67772	 58.00273	  5.28807	160.32072	702.13000	 44.10	
  5.089	 28.397	159.68219	 95.39748	 54.35515	 81.43137	 63.97953	  5.22569	160.29822	702.10999	 44.10	
  5.096	  9.576	159.77092	 97.36141	 52.61907	 73.71793	 71.39726	  5.19857	160.37424	702.14001	 44.10	
  5.096	 -9.576	159.66328	 96.71160	 53.06718	 65.60739	 79.38344	  5.12097	160.32957	702.06000	 44.20	
  5.089	-28.397	159.60625	 93.44637	 55.77612	 58.92420	 86.51324	  5.07980	160.34608	702.03003	 44.20	
  5.094	-47.331	159.54289	 88.10884	 60.56896	 53.43200	 92.54971	  5.01721	160.37457	702.12000	 44.30	
  5.104	-66.290	159.51381	 81.33897	 66.88445	 49.87410	 96.41849	  5.00496	160.40382	702.15997	 44.30	
  5.093	-85.207	159.47128	 73.59618	 74.68205	 48.45092	 98.02174	  4.92138	160.43361	702.08002	 44.40	
  5.105	-104.191	159.45622	 65.40169	 82.29784	 49.51369	 96.77238	  4.88278	160.43553	702.14001	 44.30	
  5.095	-123.033	159.47177	 59.26524	 89.00636	 52.73794	 93.04470	  4.88570	160.46727	702.06000	 44.30	
  5.109	-142.013	159.46440	 54.29312	 94.59908	 57.86726	 87.33369	  4.86578	160.46999	702.14001	 44.30	
  5.099	-161.165	159.51816	 51.40922	 98.23215	 64.41700	 80.27531	  4.88935	160.45598	702.00000	 44.40	
  5.100	180.000	159.53770	 50.74456	 99.10490	 71.85184	 72.69295	  4.82741	160.41733	702.14001	 44.40	
  6.800	180.000	158.43204	 42.66595	105.70360	 70.89404	 70.82267	  4.30367	160.46530	702.03998	 44.40	
  6.796	-166.229	158.34764	 42.88869	105.28889	 63.82375	 78.56223	  4.34143	160.49463	702.03003	 44.50	
  6.808	-152.311	158.31927	 44.73426	103.06543	 57.03390	 85.69656	  4.36031	160.51042	702.01001	 44.50	
  6.795	-138.383	158.27747	 48.24369	 99.24155	 51.15090	 92.39178	  4.33408	160.52917	701.98999	 44.50	
  6.792	-124.591	158.25015	 53.35803	 93.23283	 46.28693	 97.91003	  4.29826	160.50824	702.07001	 44.50	
  6.787	-110.754	158.25975	 59.39029	 86.83871	 42.72090	102.10703	  4.34896	160.52121	701.96997	 44.50	
  6.800	-96.985	158.28320	 65.69399	 79.73508	 40.79842	104.53130	  4.36439	160.51395	702.10999	 44.60	
  6.800	-83.015	158.36870	 73.76163	 72.16582	 40.33440	105.15091	  4.41674	160.57187	702.03998	 44.60	
  6.787	-69.246	158.39304	 81.35527	 64.82310	 41.57712	103.72752	  4.45950	160.51164	702.06000	 44.60	
  6.792	-55.409	158.40544	 88.33562	 58.27383	 44.33579	100.42174	  4.48524	160.45573	702.08002	 44.70	
  6.795	-41.617	158.54976	 94.44331	 52.82498	 48.85570	 95.51878	  4.53500	160.49010	702.06000	 44.70	
  6.808	-27.689	158.62154	 99.57060	 48.54439	 54.34496	 89.32324	  4.59108	160.50339	702.00000	 44.70	
  6.796	-13.771	158.77670	102.90728	 45.79302	 60.96974	 82.30978	  4.62099	160.54425	701.98999	 44.60	
  6.800	  0.000	158.80460	104.60316	 44.53109	 67.70719	 74.73586	  4.63722	160.54686	702.10999	 44.60	
  6.796	 13.771	158.87131	104.18633	 44.81566	 76.03406	 67.08186	  4.65304	160.54935	702.04999	 44.50	
  6.808	 27.689	158.90666	102.06301	 46.60949	 83.49091	 60.11037	  4.68223	160.56726	701.90997	 44.50	
  6.795	 41.617	158.93924	 98.18391	 50.23361	 89.78918	 54.05544	  4.65272	160.58784	701.90002	 44.50	
  6.792	 55.409	158.89789	 92.56965	 55.13268	 95.32397	 49.05674	  4.66936	160.54161	701.98999	 44.50	
  6.787	 69.246	158.95499	 86.30276	 61.14486	 99.62058	 45.50482	  4.70272	160.56544	702.10999	 44.60	
  6.800	 83.015	158.93590	 79.27500	 67.34841	101.90028	 43.43237	  4.65625	160.55537	702.08002	 44.60	
  6.800	 96.985	158.95845	 70.91190	 74.72619	102.49467	 43.01152	  4.61471	160.59917	702.03003	 44.60	
  6.787	110.754	158.88684	 63.55466	 82.85744	101.00227	 44.31524	  4.68861	160.58139	702.12000	 44.50	
  6.792	124.591	158.87712	 57.39331	 89.90840	 97.62805	 47.09837	  4.63503	160.62756	702.04999	 44.60	
  6.795	138.383	158.77940	 51.59790	 95.95242	 92.79988	 51.39845	  4.58018	160.60638	702.17999	 44.60	
  6.808	152.311	158.68356	 47.09071	101.06706	 86.51706	 56.90627	  4.41144	160.59373	702.00000	 44.60	
  6.796	166.229	158.69910	 44.14816	104.28300	 79.46555	 63.48351	  4.32387	160.66270	701.95001	 44.60	
  8.491	168.704	157.01328	 35.73148	111.02893	 78.59743	 61.44271	  4.04875	160.63765	702.09998	 44.60	
  8.502	157.493	157.10170	 38.21358	108.17500	 85.89716	 54.67973	  4.13702	160.60965	701.94000	 44.70	
  8.494	146.194	157.18398	 42.21748	103.75349	 92.75630	 48.54880	  4.22871	160.59746	701.97998	 44.70	
  8.495	135.039	157.25893	 47.00299	 98.38512	 98.82665	 43.46493	  4.29074	160.60770	702.06000	 44.70	
  8.487	123.723	157.36287	 52.86389	 91.79221	103.76776	 39.44580	  4.32699	160.66570	702.15997	 44.70	
  8.492	112.575	157.42880	 59.32486	 84.79309	107.07057	 36.71371	  4.24440	160.65245	702.12000	 44.60	
  8.510	101.220	157.49854	 66.16307	 76.45520	108.98049	 35.52961	  4.20729	160.66335	702.23999	 44.60	
  8.500	 90.000	157.54829	 74.52559	 68.81954	109.08253	 35.39639	  4.15459	160.67322	702.08002	 44.60	
  8.510	 78.780	157.48842	 82.13502	 62.30708	107.90472	 36.21213	  4.16602	160.62257	702.15997	 44.60	
  8.492	 67.425	157.58020	 89.36931	 55.66179	104.88537	 38.80952	  4.22264	160.69258	702.12000	 44.60	
  8.487	 56.277	157.54839	 95.86379	 49.77261	100.62853	 42.16725	  4.23132	160.67923	702.20001	 44.70	
  8.495	 44.961	157.59264	101.57832	 43.91051	 95.03665	 47.00026	  4.27983	160.71426	702.01001	 44.70	
  8.494	 33.806	157.51987	106.28625	 40.45052	 88.60126	 52.56333	  4.33730	160.72867	702.15002	 44.70	
  8.502	 22.507	157.47652	109.52022	 38.05062	 81.73652	 58.99508	  4.37548	160.70726	702.04999	 44.80	
  8.491	 11.296	157.43253	111.08814	 36.70300	 73.58124	 66.06885	  4.36539	160.68506	702.02002	 44.80	
  8.500	  0.000	157.40405	111.24311	 36.49545	 66.21339	 73.62694	  4.40645	160.70924	702.06000	 44.90	
  8.491	-11.296	157.32916	109.83498	 37.46957	 58.99191	 81.61683	  4.48034	160.67404	702.12000	 44.90	
  8.502	-22.507	157.25789	106.95550	 39.74514	 52.24234	 88.85790	  4.47665	160.69313	702.15997	 44.90	
  8.494	-33.806	157.18759	102.49561	 43.42925	 46.25954	 95.63460	  4.40316	160.69592	702.14001	 44.90	
  8.495	-44.961	157.09003	 96.77377	 48.13657	 41.11764	101.68051	  4.34738	160.69952	702.03998	 44.90	
  8.487	-56.277	157.02945	 90.32452	 53.89586	 37.02466	106.45920	  4.33880	160.72693	702.15997	 44.90	
  8.492	-67.425	156.84563	 83.26633	 60.49333	 34.16383	109.76250	  4.28406	160.68617	702.10999	 44.90	
  8.510	-78.780	156.80400	 75.46214	 67.41004	 32.62674	111.64290	  4.18398	160.71957	702.10999	 44.90	
  8.500	-90.000	156.76260	 67.35921	 74.96456	 32.62307	111.82999	  4.12532	160.72734	702.14001	 45.00	
  8.510	-101.220	156.69153	 60.55940	 82.59004	 33.54358	110.55326	  4.12328	160.72153	702.13000	 45.00	
  8.492	-112.575	156.70004	 53.78955	 89.90481	 35.81630	107.54746	  4.07912	160.72627	702.10999	 45.00	
  8.487	-123.723	156.75949	 47.86701	 96.58775	 39.36962	103.32018	  4.04655	160.80382	702.04999	 45.00	
  8.495	-135.039	156.74277	 42.88428	102.39805	 43.87356	 97.62627	  4.04272	160.75143	702.04999	 45.00	
  8.494	-146.194	156.86070	 38.93737	107.07262	 49.31717	 91.39069	  4.09508	160.78998	702.08002	 45.00	
  8.502	-157.493	156.89658	 36.24644	110.39755	 55.80489	 84.10458	  4.10602	160.76183	702.07001	 45.00	
  8.491	-168.704	156.97693	 34.73892	112.23363	 63.02702	 76.82189	  4.06970	160.77713	702.07001	 44.90	
  8.500	180.000	157.10063	 34.84823	112.44656	 69.92793	 68.78216	  4.03389	160.75848	702.04999	 44.90	
 10.200	180.000	155.05725	 26.85645	118.74310	 68.72511	 66.56544	  4.10440	160.81047	702.15002	 45.00	
 10.191	-170.497	154.87592	 26.62666	118.60102	 61.65017	 74.43658	  4.15380	160.75822	702.09998	 45.00	
 10.210	-161.034	154.75505	 27.61473	117.18420	 54.31539	 82.10980	  4.18245	160.78511	702.09998	 45.10	
 10.194	-151.526	154.70319	 29.90696	114.40663	 47.58871	 89.43119	  4.15692	160.77127	702.15002	 45.10	
 10.190	-142.105	154.64040	 33.19702	110.44610	 41.65240	 96.41492	  4.13769	160.80754	702.00000	 45.10	
 10.215	-132.646	154.49498	 37.33489	105.22371	 36.31850	102.82860	  4.11971	160.77371	702.21997	 45.10	
 10.203	-123.092	154.50426	 42.47668	 99.17741	 31.95464	108.31683	  4.24696	160.77419	702.21997	 45.10	
 10.192	-113.678	154.46866	 48.20007	 92.11202	 28.43269	112.70300	  4.15961	160.76180	702.04999	 45.10	
 10.208	-104.249	154.43904	 54.79470	 84.90482	 25.87820	116.00021	  4.23903	160.77898	702.16998	 45.20	
 10.210	-94.801	154.50735	 61.90072	 77.12001	 24.55466	118.00581	  4.25985	160.79063	702.14001	 45.20	
 10.210	-85.199	154.57178	 68.75874	 69.43284	 24.28312	118.42223	  4.26517	160.75641	702.14001	 45.30	
 10.208	-75.751	154.59917	 76.92478	 62.34351	 24.39058	117.71962	  4.36107	160.77284	702.14001	 45.30	
 10.192	-66.322	154.73589	 84.76173	 55.26631	 26.26714	115.49416	  4.36002	160.81784	702.15002	 45.40	
 10.203	-56.908	154.86165	 91.80891	 48.78026	 29.21444	112.06704	  4.44315	160.80966	702.15997	 45.40	
 10.215	-47.354	154.97615	 98.72604	 42.91871	 33.15979	107.53055	  4.50222	160.82510	702.15997	 45.50	
 10.190	-37.895	155.07726	104.77850	 38.16516	 37.94365	101.58950	  4.49655	160.79089	702.15002	 45.50	
 10.194	-28.474	155.22620	109.80378	 34.32603	 43.53180	 94.94759	  4.59132	160.77834	702.20001	 45.60	
 10.210	-18.966	155.20824	113.84438	 31.14443	 49.66339	 87.67052	  4.54121	160.69994	702.10999	 45.50	
 10.191	 -9.503	155.42502	116.22266	 29.25884	 56.76483	 80.30991	  4.54586	160.76404	702.14001	 45.60	
 10.200	  0.000	155.40089	117.57850	 28.34752	 63.98275	 72.23354	  4.55584	160.76196	702.21002	 45.60	
 10.191	  9.503	155.43500	117.52426	 28.55943	 71.18512	 64.70210	  4.44876	160.76167	702.17999	 45.60	
 10.210	 18.966	155.48163	116.33347	 29.45410	 79.61699	 57.56076	  4.40445	160.80367	702.13000	 45.60	
 10.194	 28.474	155.51422	113.76282	 31.85492	 86.82917	 50.77697	  4.37675	160.86189	702.04999	 45.60	
 10.190	 37.895	155.59393	109.80075	 35.10371	 93.60415	 44.87586	  4.29759	160.78815	702.03998	 45.60	
 10.215	 47.354	155.55589	104.70963	 39.27859	100.08237	 39.78834	  4.17506	160.76733	702.13000	 45.60	
 10.203	 56.908	155.68967	 98.58562	 44.33982	105.66501	 35.50740	  4.18792	160.84859	702.07001	 45.70	
 10.192	 66.322	155.71924	 91.98961	 50.15696	110.09664	 31.81114	  4.15623	160.84137	702.08002	 45.70	
 10.208	 75.751	155.69614	 85.00356	 56.53542	113.40198	 29.04256	  4.07818	160.86995	702.08002	 45.70	
 10.210	 85.199	155.65689	 77.33301	 63.43880	115.42891	 27.48190	  4.06938	160.82321	702.04999	 45.70	
 10.210	 94.801	155.67020	 68.71908	 70.27039	116.08117	 27.46898	  4.07333	160.88724	702.01001	 45.70	
 10.208	104.249	155.69055	 61.89370	 78.15990	115.08440	 28.09933	  4.13384	160.82852	702.09998	 45.70	
 10.192	113.678	155.57112	 54.72521	 86.23421	112.83274	 29.59044	  4.22535	160.81219	702.16998	 45.80	
 10.203	123.092	155.50934	 48.20161	 93.41366	109.37983	 32.20652	  4.23426	160.82407	702.15997	 45.70	
 10.215	132.646	155.46202	 42.27719	100.53938	104.59808	 35.90556	  4.28791	160.83099	702.17999	 45.70	
 10.190	142.105	155.38443	 37.26767	106.14423	 98.74933	 40.41857	  4.44853	160.81982	702.14001	 45.70	
 10.194	151.526	155.30199	 32.92952	111.13618	 92.18638	 45.87747	  4.24500	160.80887	702.20001	 45.70	
 10.210	161.034	155.28169	 29.92700	115.06342	 84.90771	 52.33646	  4.20111	160.85980	702.14001	 45.70	
 10.191	170.497	155.19678	 27.84911	117.54338	 77.12812	 59.39086	  4.11387	160.86694	701.45001	 45.70	
 11.899	171.783	152.57677	 19.42506	123.52600	 74.74886	 56.69088	  4.38653	160.81606	701.47998	 45.80	
 11.890	163.610	152.69987	 21.29737	121.32184	 83.35616	 49.62916	  4.39362	160.87738	702.14001	 45.70	
 11.889	155.445	152.76634	 24.15643	117.89843	 90.64036	 43.20962	  4.49683	160.83009	701.40997	 45.80	
 11.909	147.299	152.79099	 27.85522	113.32692	 97.75083	 37.53938	  4.65533	160.81589	701.65002	 45.80	
 11.902	139.148	152.89175	 32.37602	107.91757	104.32701	 32.58222	  4.56540	160.87614	702.13000	 45.80	
 11.894	130.867	152.94333	 37.41151	101.84499	110.05176	 27.91464	  4.32629	160.82726	702.15997	 45.80	
 11.897	122.732	152.95445	 43.09410	 94.48755	114.59467	 24.23590	  4.29075	160.76419	702.09998	 45.80	
 11.903	114.597	153.04855	 49.46439	 87.32725	118.29707	 21.55531	  4.22262	160.82306	702.15002	 45.80	
 11.893	106.346	153.12465	 56.62965	 79.59563	120.61935	 19.83870	  4.24490	160.82349	702.14001	 45.70	
 11.892	 98.155	153.22006	 64.07941	 71.84121	122.10908	 19.06843	  4.24995	160.86697	702.14001	 45.70	
 11.900	 90.000	153.26567	 71.14754	 64.49601	122.18375	 18.85789	  4.22631	160.86632	702.17999	 45.60	
 11.892	 81.845	153.23784	 79.46491	 57.34300	120.96535	 19.31171	  4.19610	160.83621	702.16998	 45.60	
 11.893	 73.654	153.27823	 87.04255	 50.46401	118.64218	 21.15323	  4.30689	160.88014	702.07001	 45.70	
 11.903	 65.403	153.28966	 94.40543	 43.91787	114.84802	 24.02267	  4.27285	160.88489	702.22998	 45.70	
 11.897	 57.268	153.26620	101.14625	 38.40166	110.26353	 27.79062	  4.45161	160.87386	701.64001	 45.70	
 11.894	 49.133	153.20877	107.30310	 33.43494	104.73783	 32.41429	  4.37457	160.84555	701.91998	 45.70	
 11.902	 40.852	153.09756	112.87608	 29.01230	 98.26830	 37.54612	  4.40905	160.84195	701.81000	 45.70	
 11.909	 32.701	153.02956	117.31203	 25.48110	 91.49018	 43.01950	  4.50962	160.85683	702.16998	 45.60	
 11.889	 24.555	153.06795	120.63573	 22.77663	 84.56321	 49.01921	  4.52794	160.87897	702.09003	 45.70	
 11.890	 16.390	152.99207	122.90810	 20.97033	 76.37003	 55.86209	  4.59001	160.86153	702.20001	 45.70	
 11.899	  8.217	152.96973	124.00417	 20.12743	 68.78450	 63.05039	  4.64035	160.87140	701.40997	 45.80	
 11.900	  0.000	152.91010	123.71435	 19.97543	 61.41480	 70.46294	  4.67423	160.84364	701.90997	 45.80	
 11.899	 -8.217	152.85243	122.70425	 20.55430	 54.08462	 78.36708	  4.73551	160.88998	702.15002	 45.80	
 11.890	-16.390	152.83199	120.02459	 22.38352	 47.28523	 86.11543	  4.63980	160.85178	701.45001	 45.80	
 11.889	-24.555	152.72920	116.56656	 25.01805	 41.05873	 93.52721	  4.65419	160.84705	701.88000	 45.80	
 11.909	-32.701	152.60957	111.98991	 28.55290	 34.98019	100.66623	  4.73150	160.86969	701.37000	 45.80	
 11.902	-40.852	152.42807	106.42342	 32.95927	 29.46184	107.12949	  4.65577	160.85466	701.44000	 45.80	
 11.894	-49.133	152.36665	 99.87323	 38.09922	 24.80483	112.77630	  4.66638	160.88463	701.44000	 45.80	
 11.897	-57.268	152.25011	 92.93409	 43.57328	 20.92715	117.38239	  4.63017	160.90321	701.41998	 45.90	
 11.903	-65.403	152.09801	 85.73506	 49.83878	 17.84919	120.95983	  4.57810	160.83943	701.42999	 45.90	
 11.893	-73.654	152.03845	 77.72034	 56.98733	 15.48096	123.65776	  4.52073	160.88861	701.81000	 45.90	
 11.892	-81.845	151.98677	 69.94720	 64.37675	 14.94149	124.79185	  4.48865	160.86249	701.53003	 45.90	
 11.900	-90.000	151.90701	 62.98092	 71.35406	 15.08260	124.83546	  4.46698	160.86905	701.42999	 45.90	
 11.892	-98.155	151.86354	 55.88240	 79.00970	 15.46020	123.66417	  4.47574	160.87274	701.46997	 45.90	
 11.893	-106.346	151.74878	 48.90860	 86.95774	 17.19674	121.15684	  4.45793	160.84305	701.34003	 45.90	
 11.903	-114.597	151.77921	 42.74683	 94.13640	 20.33294	117.47496	  4.43110	160.89769	701.42999	 45.90	
 11.897	-122.732	151.78546	 37.00166	101.31812	 24.20758	113.05472	  4.51234	160.90045	702.21997	 46.00	
 11.894	-130.867	151.87413	 31.95954	107.48737	 28.67484	107.55449	  4.32119	160.87839	701.41998	 46.00	
 11.902	-139.148	152.04079	 27.24267	113.27323	 33.90350	101.19881	  4.30338	160.95944	701.51001	 45.90	
 11.909	-147.299	152.06551	 23.51191	117.81458	 39.57928	 94.34484	  4.31964	160.90277	701.51001	 45.90	
 11.889	-155.445	152.20111	 20.79505	121.17553	 45.80581	 87.01635	  4.37405	160.90294	701.83002	 45.90	
 11.890	-163.610	152.33440	 18.91263	123.66420	 52.56098	 79.66878	  4.34539	160.93330	702.29999	 46.00	
 11.899	-171.783	152.47141	 18.19627	125.00999	 60.00964	 71.54073	  4.37101	160.92792	702.25000	 46.00	
 11.900	180.000	152.53485	 18.53014	124.78888	 67.66687	 63.94865	  4.31169	160.87296	702.15997	 46.10	
 13.600	180.000	149.48312	  9.94750	130.37642	 65.62147	 60.86470	  4.51818	160.90536	702.21002	 46.10	
 13.608	-172.853	149.29115	  9.36575	130.50113	 58.01942	 68.17123	  4.52688	160.86203	702.19000	 46.10	
 13.611	-165.583	149.20232	  9.73549	129.56357	 50.66610	 76.03386	  4.52467	160.91528	702.17999	 46.20	
 13.601	-158.353	149.07387	 11.30338	127.56326	 43.99962	 84.17924	  4.55343	160.87465	701.34998	 46.30	
 13.609	-151.210	148.96835	 13.60817	124.47095	 37.33360	 91.63969	  4.42121	160.93306	701.52002	 46.30	
 13.611	-143.999	148.86908	 16.80103	120.24767	 31.00949	 98.77245	  4.57099	160.92145	701.96002	 46.30	
 13.601	-136.825	148.81929	 20.71905	115.20527	 25.60090	105.59943	  4.41757	160.93051	702.17999	 46.30	
 13.596	-129.640	148.65092	 25.36220	109.37424	 20.58295	111.63783	  4.47648	160.84708	701.46997	 46.40	
 13.611	-122.431	148.59250	 30.64436	103.14235	 14.87884	117.06844	  4.68828	160.89130	701.38000	 46.40	
 13.604	-115.211	148.66534	 36.65383	 95.85548	 11.22583	121.85888	  4.60707	160.92059	701.53003	 46.40	
 13.595	-108.042	148.59579	 42.95385	 88.66764	  8.49316	125.64687	  4.54960	160.86494	701.33002	 46.30	
 13.607	-100.793	148.62811	 49.48024	 80.32719	  6.58091	128.29910	  4.63450	160.89703	701.47998	 46.30	
 13.601	-93.617	148.68916	 56.46983	 72.64523	  5.49847	129.86505	  4.53211	160.91415	701.52002	 46.30	
 13.601	-86.383	148.82077	 63.78452	 65.31687	  5.31863	130.44757	  4.53597	160.93689	701.50000	 46.30	
 13.607	-79.207	148.84557	 70.56795	 58.47615	  5.41347	129.98170	  4.60074	160.91321	701.46997	 46.30	
 13.595	-71.958	148.91100	 78.08481	 51.16723	  6.36183	128.61084	  4.64141	160.92749	701.31000	 46.30	
 13.604	-64.789	149.05663	 86.46980	 44.62449	  8.28973	126.12565	  4.70506	160.89778	701.40002	 46.30	
 13.611	-57.569	149.14749	 93.91516	 38.40914	 11.15021	122.25208	  4.71606	160.93343	702.21997	 46.30	
 13.596	-50.360	149.19579	100.82301	 32.42691	 15.54606	117.58152	  4.72137	160.85635	702.17999	 46.30	
 13.601	-43.175	149.33904	107.32182	 27.10755	 20.51793	112.25201	  4.71084	160.87445	701.47998	 46.30	
 13.611	-36.001	149.44722	113.29410	 22.46175	 25.62865	106.02593	  4.73039	160.86588	701.54999	 46.30	
 13.609	-28.790	149.56909	118.58207	 18.45903	 31.50076	 99.03405	  4.68360	160.86996	701.40002	 46.40	
 13.601	-21.647	149.73679	122.80824	 15.47953	 38.12058	 91.76067	  4.68088	160.91078	701.46997	 46.40	
 13.611	-14.417	149.77550	126.23970	 12.66642	 44.74260	 84.10863	  4.71901	160.90515	701.40997	 46.40	
 13.608	 -7.147	149.86040	128.45998	 10.28776	 51.49203	 75.85780	  4.76282	160.89961	701.46002	 46.50	
 13.600	  0.000	149.87071	129.48961	  9.49324	 58.63436	 68.14698	  4.76220	160.91415	701.50000	 46.50	
 13.608	  7.147	149.90607	129.52434	  9.60764	 65.74166	 60.99281	  4.61911	160.86713	701.48999	 46.50	
 13.611	 14.417	149.87036	128.93257	  9.93168	 73.21136	 53.58829	  4.61431	160.89313	701.44000	 46.50	
 13.601	 21.647	149.96945	127.12409	 11.34200	 81.68143	 47.02744	  4.63043	160.92830	701.45001	 46.50	
 13.609	 28.790	149.99396	123.98026	 13.80293	 89.00621	 40.96085	  4.57936	160.83832	701.35999	 46.50	
 13.611	 36.001	150.06635	119.98165	 17.54395	 96.05148	 34.81879	  4.60456	160.88690	701.37000	 46.50	
 13.601	 43.175	150.17982	115.18096	 22.48368	102.89575	 29.16745	  4.60068	160.93001	701.38000	 46.50	
 13.596	 50.360	150.23630	109.62439	 27.08893	108.99976	 24.28365	  4.51202	160.91100	701.37000	 46.40	
 13.611	 57.569	150.27727	103.06425	 31.94133	114.60297	 19.89003	  4.56237	160.92104	701.40997	 46.40	
 13.604	 64.789	150.29105	 96.12617	 37.67640	119.41275	 16.10748	  4.40062	160.85687	701.41998	 46.40	
 13.595	 71.958	150.32806	 88.94881	 43.91922	123.12251	 13.35988	  4.49195	160.89597	701.40997	 46.40	
 13.607	 79.207	150.31702	 81.32944	 50.71563	126.07781	 11.12773	  4.45271	160.93219	701.40997	 46.40	
 13.601	 86.383	150.30061	 72.92433	 57.87444	127.68807	 10.16145	  4.40012	160.92068	701.40997	 46.40	
 13.601	 93.617	150.26399	 65.79579	 65.19431	128.23830	 10.27634	  4.43509	160.91014	701.46997	 46.40	
 13.607	100.793	150.16508	 58.35688	 72.49827	127.76338	 10.30432	  4.46428	160.88902	701.51001	 46.40	
 13.595	108.042	150.10335	 51.09503	 80.48241	125.99488	 11.37636	  4.53113	160.88315	701.41998	 46.40	
 13.604	115.211	150.05476	 44.63522	 88.08981	123.31328	 13.18611	  4.53604	160.92915	701.32001	 46.30	
 13.611	122.431	150.05327	 38.54673	 95.52390	119.59782	 15.79266	  4.44949	160.90944	701.45001	 46.40	
 13.596	129.640	150.04901	 32.41225	103.06080	114.88721	 19.32398	  4.28375	160.95277	701.40997	 46.40	
 13.601	136.825	149.98920	 27.03284	109.07565	109.35272	 23.83841	  4.51725	160.92180	701.35999	 46.40	
 13.611	143.999	149.90538	 22.06987	114.83783	103.11975	 28.94436	  4.78476	160.90875	701.40997	 46.40	
 13.609	151.210	149.84918	 17.95825	119.98762	 96.13226	 34.72071	  4.77781	160.91655	701.41998	 46.50	
 13.601	158.353	149.78001	 14.65502	124.05950	 88.80450	 40.38697	  4.74485	160.87491	701.40997	 46.50	
 13.611	165.583	149.65993	 11.93225	127.37493	 80.97997	 46.70889	  4.52114	160.90909	701.39001	 46.60	
 13.608	172.853	149.53415	 10.40429	129.38277	 72.78694	 53.80775	  4.54248	160.87695	701.46002	 46.60	
 15.298	173.587	146.04263	  0.21815	134.67766	 70.35522	 50.59795	  4.52472	160.89226	701.38000	 46.60	
 15.291	167.167	146.14658	  1.62840	132.75851	 77.80478	 43.88108	  4.53019	160.91832	701.37000	 46.60	
 15.307	160.676	146.21735	  4.78406	129.82666	 86.42571	 37.69598	  4.71067	160.90787	701.34998	 46.60	
 15.300	154.261	146.32846	  8.09878	126.10087	 93.82876	 31.46150	  4.88499	160.91974	701.45001	 46.60	
 15.288	147.854	146.49060	 12.09088	121.28931	101.02464	 25.22422	  4.84519	160.93652	701.34998	 46.70	
 15.293	141.428	146.51791	 16.19780	115.79154	107.89853	 19.82083	  4.61955	160.92294	701.38000	 46.70	
 15.299	134.985	146.52380	 21.15347	109.70284	114.00496	 15.10095	  4.36277	160.89745	701.37000	 46.70	
 15.305	128.583	146.50052	 26.60445	103.36467	119.43053	 10.96408	  4.38837	160.90276	701.39001	 46.70	
 15.309	122.142	146.59732	 32.72381	 96.05215	124.09948	  7.60063	  4.51122	160.90456	701.40002	 46.70	
 15.304	115.711	146.51572	 39.46713	 88.55865	127.79668	  4.91715	  4.60903	160.88120	701.39001	 46.70	
 15.297	109.291	146.60596	 46.36394	 80.69035	130.53334	  2.51563	  4.69547	160.89500	701.39001	 46.80	
 15.293	102.897	146.71417	 52.76400	 72.88646	132.32378	  1.32242	  4.79823	160.89621	701.37000	 46.80	
 15.293	 96.458	146.76814	 59.98567	 65.09670	133.30347	  0.84931	  4.62310	160.87697	701.35999	 46.90	
 15.300	 90.000	146.86197	 66.98300	 58.14808	133.28972	  0.79754	  4.62318	160.91856	701.28998	 46.90	
 15.293	 83.542	146.84451	 74.42387	 51.00854	132.10864	  1.33666	  4.54207	160.87804	701.38000	 46.90	
 15.293	 77.103	146.85648	 82.63795	 43.92215	130.07350	  2.80266	  4.59416	160.86418	701.58002	 46.90	
 15.297	 70.709	146.85510	 90.40861	 37.36230	127.37336	  5.14577	  4.59376	160.87239	701.45001	 46.90	
 15.304	 64.289	146.92183	 97.69180	 31.17525	123.33359	  8.17165	  4.60573	160.88261	701.45001	 46.90	
 15.309	 57.858	146.80402	104.81762	 25.55373	118.45347	 11.81685	  4.68794	160.87567	701.40997	 46.90	
 15.305	 51.417	146.74352	111.22432	 19.58807	112.95709	 16.13860	  4.64894	160.87625	701.48999	 46.90	
 15.299	 45.015	146.67914	116.90032	 14.06652	106.89610	 20.80398	  4.70098	160.82327	701.40997	 46.90	
 15.293	 38.572	146.67136	122.22678	 10.16803	100.04900	 26.13842	  4.71377	160.89304	701.45001	 46.90	
 15.288	 32.146	146.54066	126.67502	  6.88818	 92.95518	 32.06564	  4.72424	160.87462	701.45001	 46.90	
 15.300	 25.739	146.45367	130.07962	  4.14411	 85.85500	 38.43488	  4.65157	160.85757	701.46002	 46.90	
 15.307	 19.324	146.24660	132.62392	  2.55792	 77.19252	 45.13136	  4.58368	160.84227	701.41998	 46.90	
 15.291	 12.833	146.26297	134.19218	  1.37530	 69.57539	 51.66426	  4.62640	160.86427	701.32001	 46.80	
 15.298	  6.413	146.32631	134.74673	  1.36080	 62.55758	 58.35736	  4.69650	160.87794	701.37000	 46.80	
 15.300	  0.000	146.29401	134.56801	  0.99041	 55.48905	 65.61141	  4.78790	160.85735	701.38000	 46.70	
 15.298	 -6.413	146.32628	133.55713	  1.49313	 48.72516	 73.50061	  4.77839	160.92020	701.39001	 46.70	
 15.291	-12.833	146.28258	131.56903	  2.83660	 41.93352	 81.32759	  4.76798	160.91530	701.45001	 46.80	
 15.307	-19.324	146.17604	128.58313	  5.19217	 34.62513	 89.40130	  4.67055	160.88353	701.40997	 46.80	
 15.300	-25.739	146.07680	124.62164	  8.81103	 28.03170	 96.84399	  4.73105	160.91469	701.52002	 46.90	
 15.288	-32.146	145.99185	119.79763	 12.35237	 22.09109	103.86539	  4.75961	160.87180	701.42999	 46.90	
 15.293	-38.572	145.88255	114.18168	 16.42959	 16.03236	110.71247	  4.76074	160.86995	701.46997	 46.90	
 15.299	-45.015	145.75000	108.00016	 21.08201	 10.18873	116.73510	  4.73879	160.86000	701.38000	 47.00	
 15.305	-51.417	145.75552	101.35470	 26.47694	  6.08154	121.99101	  4.76700	160.93181	701.44000	 47.00	
 15.309	-57.858	145.57085	 94.07570	 32.39280	  2.91606	126.88522	  4.68972	160.89677	701.38000	 47.10	
 15.304	-64.289	145.41495	 86.50641	 38.93303	  0.34420	130.35004	  4.63047	160.90559	701.35999	 47.00	
 15.297	-70.709	145.32993	 78.11167	 45.71077	 -1.53577	133.06499	  4.61183	160.91045	701.46997	 47.10	
 15.293	-77.103	145.19487	 70.66677	 52.42956	 -2.75488	134.94336	  4.54529	160.84850	701.35999	 47.10	
 15.293	-83.542	145.13971	 63.52140	 59.46021	 -2.90423	135.74701	  4.58240	160.91185	701.46997	 47.20	
 15.300	-90.000	145.03725	 56.56197	 66.26553	 -3.00338	135.61070	  4.57303	160.87585	701.44000	 47.20	
 15.293	-96.458	145.03172	 49.65552	 73.91228	 -2.29879	134.58795	  4.53087	160.88754	701.39001	 47.20	
 15.293	-102.897	144.96814	 42.88724	 81.28192	 -0.90500	132.40152	  4.57701	160.84929	701.33002	 47.20	
 15.297	-109.291	144.89928	 36.28878	 89.78664	  0.97690	129.50127	  4.59669	160.85591	701.35999	 47.10	
 15.304	-115.711	145.06178	 29.79276	 97.02716	  3.59475	125.85522	  4.63464	160.91327	701.51001	 47.10	
 15.309	-122.142	145.08063	 24.09402	104.35126	  6.93373	120.83398	  4.62326	160.89124	701.45001	 47.00	
 15.305	-128.583	145.11777	 18.99953	110.72321	 11.20213	115.47090	  4.57762	160.90068	701.52002	 47.00	
 15.299	-134.985	145.16512	 14.50108	116.66682	 16.92316	109.44580	  4.57120	160.89333	701.50000	 47.00	
 15.293	-141.428	145.23656	 10.25733	122.00028	 22.77628	102.77993	  4.52981	160.95053	701.40997	 47.00	
 15.288	-147.854	145.28253	  6.30880	126.73514	 28.49501	 95.60573	  4.46605	160.90228	701.44000	 47.00	
 15.300	-154.261	145.26018	  3.13995	130.48540	 34.60087	 88.19901	  4.49318	160.88133	701.35999	 47.00	
 15.307	-160.676	145.40306	  0.51571	133.22054	 41.67859	 80.40062	  4.51650	160.88667	701.38000	 47.00	
 15.291	-167.167	145.64099	 -0.63545	134.93512	 48.90738	 72.22255	  4.60776	160.91785	701.44000	 47.00	
 15.298	-173.587	145.83684	 -0.81643	135.68889	 55.79109	 64.67062	  4.57580	160.85590	701.40002	 47.10	
 15.300	180.000	145.93877	  0.10224	135.54030	 63.19773	 57.38469	  4.60278	160.90219	701.40997	 47.20	
 17.000	180.000	142.04901	 -9.23287	140.34335	 60.45567	 53.52449	  4.52956	160.88905	701.42999	 47.20	
 16.990	-174.179	141.85030	-10.04781	140.51659	 53.64339	 60.60891	  4.53104	160.94751	701.38000	 47.20	
 17.009	-168.383	141.68396	 -9.52832	139.70905	 46.50563	 68.32777	  4.55040	160.84407	701.40997	 47.20	
 17.000	-162.596	141.51109	 -8.48442	138.07939	 39.14536	 75.82058	  4.44796	160.85239	701.44000	 47.20	
 16.990	-156.759	141.37839	 -6.66489	135.75069	 32.04856	 84.31564	  4.39430	160.89581	701.34998	 47.30	
 16.995	-150.919	141.25638	 -4.15754	132.50836	 25.58939	 91.92424	  4.34001	160.88187	701.45001	 47.30	
 16.988	-145.161	141.11516	 -1.13679	128.37953	 19.65338	 99.12148	  4.38208	160.86420	701.41998	 47.30	
 17.014	-139.343	141.03769	  2.29737	123.32264	 13.67595	106.38811	  4.37171	160.88013	701.32001	 47.30	
 17.007	-133.546	140.89259	  6.92334	117.77990	  7.81939	112.88789	  4.39924	160.84358	701.45001	 47.30	
 17.001	-127.699	140.81514	 12.45020	111.64383	  3.27317	118.82267	  4.42805	160.82365	701.42999	 47.30	
 17.006	-121.937	140.74796	 17.43269	105.11836	 -0.33378	124.30665	  4.54587	160.86160	701.28003	 47.30	
 17.002	-116.134	140.79099	 23.08691	 97.90841	 -3.67440	129.17041	  4.52179	160.84119	701.38000	 47.30	
 17.001	-110.310	140.74159	 29.13539	 90.48955	 -6.51548	133.00157	  4.48966	160.86119	701.46997	 47.30	
 16.988	-104.517	140.78574	 35.74781	 82.15192	 -8.72054	136.22258	  4.40637	160.87926	701.40997	 47.30	
 17.008	-98.662	140.73857	 42.65154	 74.63017	-10.51077	138.37787	  4.44170	160.85770	701.31000	 47.30	
 16.996	-92.909	140.78072	 49.65451	 66.97842	-11.56202	139.82132	  4.44173	160.86194	701.40997	 47.30	
 16.996	-87.091	140.82855	 56.58759	 59.45648	-11.84159	140.36787	  4.45713	160.83766	701.41998	 47.30	
 17.012	-81.253	140.88708	 62.71723	 53.21519	-12.12329	140.18695	  4.48860	160.84412	701.42999	 47.30	
 16.988	-75.483	141.05336	 70.47894	 46.23403	-11.30864	139.00105	  4.46498	160.80099	701.56000	 47.30	
 17.001	-69.690	141.14366	 77.68880	 39.16720	 -9.99131	137.29025	  4.43309	160.85652	701.46997	 47.20	
 17.002	-63.866	141.31912	 86.20828	 32.50773	 -7.78010	134.48070	  4.56115	160.85950	701.53998	 47.20	
 17.006	-58.063	141.42055	 93.87906	 26.32902	 -5.11856	130.78059	  4.55893	160.91119	701.51001	 47.20	
 17.001	-52.301	141.63998	101.03802	 20.72899	 -1.76121	126.31474	  4.63204	160.91872	701.54999	 47.20	
 17.007	-46.454	141.66476	107.93681	 15.17286	  1.95641	120.93781	  4.60200	160.89014	701.47998	 47.20	
 17.014	-40.657	141.76932	114.34141	 10.29944	  6.12668	115.06248	  4.54593	160.85945	701.47998	 47.20	
 16.988	-34.839	141.95634	120.28091	  5.96501	 11.38452	108.51936	  4.57382	160.89569	701.52002	 47.10	
 16.995	-29.081	142.08299	125.44826	  2.12731	 17.93837	101.47359	  4.61652	160.82384	701.44000	 47.10	
 16.990	-23.241	142.28206	130.00912	 -1.19978	 24.44909	 94.17799	  4.55102	160.92671	701.46002	 47.20	
 17.000	-17.404	142.32123	133.66396	 -3.79322	 31.05119	 86.54722	  4.48892	160.88440	701.40002	 47.20	
 17.009	-11.617	142.27994	136.46591	 -5.60941	 38.10075	 78.29484	  4.63442	160.86185	701.42999	 47.20	
 16.990	 -5.821	142.33464	138.39029	 -6.83558	 45.57067	 70.43978	  4.67803	160.87903	701.45001	 47.20	
 17.000	  0.000	142.41521	139.48448	 -7.45287	 52.67624	 62.65070	  4.71443	160.87801	701.41998	 47.20	
 16.990	  5.821	142.36626	139.68745	 -7.28989	 59.35221	 55.37120	  4.68313	160.86209	701.47998	 47.20	
 17.009	 11.617	142.26547	139.29501	 -7.38297	 65.88110	 49.61771	  4.55012	160.91187	701.54999	 47.20	
 17.000	 17.404	142.38124	137.74280	 -6.13838	 73.67702	 42.59967	  4.47924	160.85851	701.56000	 47.20	
 16.990	 23.241	142.51978	135.62964	 -4.27189	 81.19887	 35.47027	  4.48756	160.91318	701.53003	 47.20	
 16.995	 29.081	142.59207	132.51283	 -2.13502	 89.68569	 28.97887	  4.62768	160.88339	701.53003	 47.10	
 16.988	 34.839	142.76878	128.60620	  0.42493	 96.80986	 23.18123	  4.69951	160.91876	701.54999	 47.10	
 17.014	 40.657	142.64294	123.90664	  3.68691	103.76582	 17.41259	  4.72376	160.89462	701.53003	 47.10	
 17.007	 46.454	142.80896	118.48084	  7.51047	110.52656	 12.38901	  4.66680	160.92247	701.53003	 47.00	
 17.001	 52.301	142.86662	112.37679	 11.96900	116.66557	  7.74629	  4.64680	160.89192	701.48999	 47.00	
 17.006	 58.063	142.89606	105.82983	 17.98200	122.10592	  3.62478	  4.56027	160.86021	701.56000	 47.00	
 17.002	 63.866	143.00824	 98.76157	 24.51455	127.03875	  0.16978	  4.54181	160.88686	701.45001	 47.00	
 17.001	 69.690	143.02827	 91.42475	 30.44348	131.01364	 -2.84330	  4.52735	160.89629	701.40997	 47.00	
 16.988	 75.483	143.02858	 83.30176	 37.01556	134.14339	 -5.14156	  4.52209	160.95633	701.51001	 46.90	
 17.012	 81.253	142.83533	 75.57647	 43.71063	136.33301	 -6.95184	  4.57852	160.86111	701.44000	 46.90	
 16.996	 87.091	142.92996	 67.78242	 51.10443	137.78394	 -7.88371	  4.63734	160.91798	701.46002	 46.90	
 16.996	 92.909	142.81969	 60.59441	 58.15552	138.29825	 -8.08866	  4.64416	160.84805	701.57001	 46.90	
 17.008	 98.662	142.76317	 54.39053	 64.72639	138.08749	 -8.12799	  4.73501	160.86824	701.50000	 46.90	
 16.988	104.517	142.74295	 47.50031	 72.72809	136.81245	 -7.37603	  4.73751	160.91760	701.53998	 46.90	
 17.001	110.310	142.68077	 40.21438	 80.18716	134.86026	 -6.00637	  4.73311	160.85313	701.52002	 46.90	
 17.002	116.134	142.63264	 33.20628	 88.56554	131.75519	 -3.62780	  4.59914	160.88443	701.52002	 46.90	
 17.006	121.937	142.66466	 26.57093	 96.05515	128.23885	 -0.67601	  4.41232	160.86920	701.53998	 46.90	
 17.001	127.699	142.68657	 20.81066	103.11708	123.47381	  2.62612	  4.34528	160.85875	701.53003	 46.90	
 17.007	133.546	142.59433	 15.28455	110.02735	118.15381	  6.44797	  4.23849	160.87012	701.47998	 46.90	
 17.014	139.343	142.50961	 10.33139	116.30904	112.15152	 10.84610	  4.40470	160.79001	701.51001	 46.90	
 16.988	145.161	142.44928	  5.78793	121.99264	105.60186	 16.00025	  4.60016	160.83423	701.65997	 46.90	
 16.995	150.919	142.43973	  1.19550	127.09129	 98.51267	 21.31392	  4.80187	160.84665	701.52002	 47.00	
 16.990	156.759	142.37479	 -2.47042	131.29654	 91.22767	 27.39793	  4.71199	160.76477	701.56000	 47.00	
 17.000	162.596	142.25414	 -5.38887	134.89989	 82.98703	 34.16138	  4.59838	160.75822	701.54999	 47.00	
 17.009	168.383	142.09261	 -7.14404	137.51698	 75.01490	 40.77637	  4.45788	160.75781	701.56000	 47.10	
 16.990	174.179	141.99232	 -8.56831	139.26050	 67.25500	 47.16496	  4.45043	160.81174	701.52002	 47.10	
 18.709	174.675	137.41452	-17.16381	143.74223	 63.86530	 43.35552	  4.36135	160.81705	701.47998	 47.10	
 18.703	169.441	137.59717	-15.73385	142.09064	 71.55226	 36.44851	  4.39332	160.80171	701.56000	 47.10	
 18.691	164.085	137.75534	-13.79304	139.41856	 79.44775	 29.64537	  4.44818	160.75165	701.41998	 47.10	
 18.706	158.818	137.85469	-11.42616	136.32101	 87.83648	 23.37739	  4.55301	160.74611	701.47998	 47.20	
 18.695	153.537	137.86534	 -8.45259	132.26039	 95.34905	 17.55175	  4.68720	160.72064	701.46002	 47.20	
 18.704	148.255	137.95705	 -5.17540	127.56892	102.59486	 11.90769	  4.62056	160.71198	701.47998	 47.30	
 18.698	142.952	137.96626	 -1.03070	122.04096	109.48888	  6.75928	  4.31345	160.68460	701.50000	 47.40	
 18.699	137.625	137.96640	  3.95094	116.27441	115.97350	  1.98755	  4.13551	160.71919	701.53003	 47.40	
 18.705	132.343	138.05542	  9.14362	109.75824	121.76536	 -2.12643	  4.14298	160.69061	701.58002	 47.40	
 18.713	127.067	138.06468	 14.71827	102.78152	127.13940	 -5.93479	  4.26164	160.66750	701.56000	 47.40	
 18.700	121.794	138.10876	 20.42010	 95.75349	131.67528	 -9.00379	  4.41958	160.72685	701.48999	 47.40	
 18.698	116.504	138.01750	 26.65503	 88.23817	135.42828	-11.74602	  4.48581	160.70905	701.56000	 47.40	
 18.707	111.165	138.05690	 33.41570	 79.76066	138.44879	-13.93984	  4.59424	160.71724	701.60999	 47.50	
 18.690	105.863	138.19075	 40.72163	 72.21479	140.67455	-15.42332	  4.67109	160.71129	701.59998	 47.50	
 18.696	100.583	138.24884	 48.27954	 64.42876	142.18915	-16.36559	  4.67133	160.75754	701.57001	 47.50	
 18.700	 95.309	138.30084	 54.95735	 57.52453	142.83311	-16.57970	  4.54272	160.75064	701.59003	 47.40	
 18.700	 90.000	138.43089	 60.92373	 50.81547	142.61749	-16.62373	  4.47839	160.77217	701.71002	 47.40	
 18.700	 84.691	138.44485	 68.44003	 43.50059	141.70305	-16.26698	  4.42745	160.78259	701.58002	 47.40	
 18.696	 79.417	138.47032	 76.23006	 36.44110	139.90749	-15.00838	  4.40512	160.76360	701.62000	 47.30	
 18.690	 74.137	138.53265	 83.72305	 29.96758	137.22118	-13.02745	  4.43047	160.75075	701.53998	 47.30	
 18.707	 68.835	138.52090	 91.88021	 23.66279	134.08980	-10.82269	  4.42878	160.75748	701.59998	 47.30	
 18.698	 63.496	138.57080	 99.37876	 17.10506	130.06065	 -7.90652	  4.41000	160.76997	701.59998	 47.30	
 18.700	 58.206	138.46069	106.48737	 10.45412	125.08953	 -4.49829	  4.47739	160.74545	701.59998	 47.20	
 18.713	 52.933	138.30261	112.95391	  5.82078	119.66945	 -0.60165	  4.46447	160.71722	701.66998	 47.10	
 18.705	 47.657	138.13933	119.28151	  1.54186	113.57957	  3.88512	  4.50049	160.73193	701.71997	 47.20	
 18.699	 42.375	138.08122	124.74312	 -2.46499	107.19414	  8.76767	  4.52985	160.74211	701.62000	 47.30	
 18.698	 37.048	138.05275	129.96346	 -6.04504	100.23501	 14.19179	  4.57527	160.78090	701.59003	 47.40	
 18.704	 31.745	137.99194	134.18799	 -9.07703	 93.03719	 19.91442	  4.50451	160.76192	701.62000	 47.40	
 18.695	 26.463	137.92725	137.60518	-11.60941	 84.94862	 26.06063	  4.47640	160.73361	701.73999	 47.40	
 18.706	 21.182	137.67662	140.40968	-13.84558	 77.03979	 32.39098	  4.38553	160.69836	701.71997	 47.40	
 18.691	 15.915	137.64359	142.41324	-15.32864	 69.31578	 39.23956	  4.38322	160.70377	701.71002	 47.40	
 18.703	 10.559	137.61835	143.54298	-16.24830	 61.58086	 46.83033	  4.41554	160.72891	701.62000	 47.40	
 18.709	  5.325	137.60384	143.86403	-16.42858	 56.05109	 52.84182	  4.51594	160.69884	701.66998	 47.40	
 18.700	  0.000	137.74290	143.61101	-16.25960	 49.09615	 59.49755	  4.58057	160.72047	701.60999	 47.40	
 18.709	 -5.325	137.59796	142.78908	-15.79250	 41.28356	 67.06777	  4.59443	160.74066	701.66998	 47.40	
 18.703	-10.559	137.64026	140.83760	-14.58144	 34.11758	 74.93671	  4.50411	160.70593	701.71997	 47.30	
 18.691	-15.915	137.69489	138.12764	-12.82323	 27.14983	 82.84223	  4.43919	160.73776	701.72998	 47.30	
 18.706	-21.182	137.62440	134.79649	-10.57915	 20.45485	 90.84568	  4.48369	160.72849	701.71002	 47.30	
 18.695	-26.463	137.55878	130.64310	 -7.67046	 13.33883	 98.36663	  4.45136	160.75470	701.59003	 47.30	
 18.704	-31.745	137.29259	125.69216	 -4.60611	  7.39403	105.46521	  4.44180	160.69205	701.71997	 47.20	
 18.698	-37.048	137.22922	120.22959	 -0.84928	  2.37872	112.33118	  4.45677	160.73752	701.60999	 47.20	
 18.699	-42.375	137.06357	113.95471	  3.50982	 -2.37276	118.72715	  4.46812	160.72389	701.67999	 47.20	
 18.705	-47.657	136.93393	107.55824	  8.71158	 -6.56630	124.31983	  4.43962	160.68591	701.65002	 47.20	
 18.713	-52.933	136.82437	100.46780	 14.36072	-10.37640	129.88054	  4.48749	160.75163	701.78003	 47.20	
 18.700	-58.206	136.73427	 93.14098	 20.17326	-13.59261	134.15706	  4.42870	160.74295	701.69000	 47.30	
 18.698	-63.496	136.56894	 85.14026	 26.17502	-16.18165	137.76361	  4.41028	160.72476	701.73999	 47.30	
 18.707	-68.835	136.48322	 77.34325	 32.83812	-18.25332	140.61697	  4.31921	160.69064	701.71002	 47.30	
 18.690	-74.137	136.38071	 69.60164	 39.65241	-19.75089	142.79259	  4.32283	160.72794	701.78003	 47.30	
 18.696	-79.417	136.19362	 61.86605	 46.75533	-20.73568	144.13519	  4.36329	160.74040	701.81000	 47.30	
 18.700	-84.691	136.10402	 55.89616	 52.84166	-20.78002	144.64609	  4.32817	160.73863	701.69000	 47.40	
 18.700	-90.000	136.07297	 49.21406	 59.93146	-20.50331	144.42183	  4.32662	160.74814	701.77002	 47.50	
 18.700	-95.309	135.93935	 41.88157	 67.62865	-19.91158	143.39522	  4.28725	160.71416	701.88000	 47.50	
 18.696	-100.583	135.92688	 34.77797	 75.34649	-18.62991	141.69334	  4.25758	160.75101	701.64001	 47.50	
 18.690	-105.863	135.91225	 28.32086	 82.73290	-16.81379	139.14284	  4.29266	160.73415	701.67999	 47.50	
 18.707	-111.165	135.92987	 22.11612	 90.76644	-14.63709	135.96930	  4.34203	160.72319	701.71002	 47.50	
 18.698	-116.504	136.02583	 16.01324	 98.54020	-11.59670	131.84885	  4.34181	160.77484	701.79999	 47.40	
 18.700	-121.794	135.99850	  9.94584	105.64507	 -8.32281	127.10790	  4.31362	160.78468	701.71997	 47.40	
 18.713	-127.067	135.97585	  4.35343	112.20536	 -4.61936	121.62632	  4.34929	160.75462	701.67999	 47.40	
 18.705	-132.343	136.12469	 -0.10883	118.48488	 -0.32352	115.73975	  4.28420	160.74722	701.73999	 47.40	
 18.699	-137.625	136.30801	 -3.98997	124.17952	  4.23761	109.15373	  4.28125	160.75000	701.64001	 47.50	
 18.698	-142.952	136.34367	 -7.59783	129.38943	  9.68249	102.25446	  4.25289	160.74925	701.69000	 47.40	
 18.704	-148.255	136.39104	-10.88196	133.89220	 16.21792	 95.08661	  4.25028	160.78287	701.63000	 47.40	
 18.695	-153.537	136.56822	-13.64160	137.47591	 22.57904	 87.49717	  4.21303	160.76262	701.71997	 47.40	
 18.706	-158.818	136.67943	-15.60907	140.43753	 29.23052	 79.24674	  4.27923	160.72966	701.67999	 47.30	
 18.691	-164.085	136.89835	-16.75404	142.66859	 36.20876	 71.84190	  4.36471	160.72992	701.65002	 47.30	
 18.703	-169.441	136.97693	-17.86879	144.14154	 43.58343	 63.76323	  4.44846	160.72495	701.71002	 47.30	
 18.709	-174.675	137.12529	-18.57086	144.80045	 50.89069	 56.36099	  4.50531	160.78612	701.67999	 47.30	
 18.700	180.000	137.29042	-17.76032	144.61583	 57.34514	 49.75761	  4.40194	160.78613	701.67999	 47.40	
 20.400	180.000	132.39233	-26.50438	148.24692	 53.85057	 45.73847	  4.37573	160.77074	701.69000	 47.40	
 20.401	-175.153	132.26071	-27.32466	148.45529	 47.57115	 52.05800	  4.40156	160.78961	701.65002	 47.50	
 20.407	-170.264	132.14813	-26.49571	147.98166	 40.19445	 59.45755	  4.43843	160.80035	701.82001	 47.60	
 20.410	-165.423	131.96460	-25.65599	146.81372	 33.02511	 67.00206	  4.35570	160.79031	701.72998	 47.50	
 20.392	-160.496	131.85907	-24.22537	144.85515	 25.91660	 74.91862	  4.21636	160.78809	701.71997	 47.50	
 20.401	-155.705	131.63631	-23.12679	142.13908	 19.00612	 82.32235	  4.17767	160.74847	701.71002	 47.50	
 20.405	-150.835	131.53513	-20.14589	138.67300	 12.16662	 90.40545	  4.13061	160.75494	701.69000	 47.50	
 20.397	-145.903	131.45923	-17.16750	134.65114	  6.16442	 97.89828	  4.19586	160.76086	701.63000	 47.60	
 20.392	-141.062	131.36945	-13.88232	129.91643	  0.91084	105.02288	  4.23788	160.76985	701.66998	 47.70	
 20.396	-136.227	131.20268	-10.35307	124.63296	 -4.08356	111.82635	  4.20284	160.76718	701.63000	 47.70	
 20.408	-131.372	130.96370	 -6.39966	118.78139	 -8.69013	118.17034	  4.19006	160.71744	701.59003	 47.70	
 20.410	-126.511	130.97093	 -1.94278	112.45258	-12.75354	124.07874	  4.21549	160.76041	701.57001	 47.80	
 20.400	-121.604	130.94102	  2.91654	105.64499	-16.34488	129.55728	  4.23933	160.77824	701.63000	 47.80	
 20.403	-116.741	130.86710	  7.91462	 98.57888	-19.59765	134.24780	  4.23050	160.70827	701.65002	 47.80	
 20.413	-111.900	130.87740	 14.04832	 90.95953	-22.42979	138.33455	  4.25753	160.75552	701.64001	 47.80	
 20.398	-107.004	130.86917	 20.87589	 82.88367	-24.75661	141.84653	  4.17557	160.73953	701.60999	 47.80	
 20.394	-102.132	130.82088	 27.46780	 75.46978	-26.73378	144.57491	  4.20682	160.75060	701.67999	 47.80	
 20.403	-97.332	130.86942	 33.94361	 67.84086	-28.19986	146.58205	  4.20094	160.77165	701.71002	 47.70	
 20.392	-92.440	130.94659	 40.95208	 60.05941	-29.07481	147.73621	  4.17887	160.74287	701.66998	 47.70	
 20.392	-87.560	130.97610	 48.27288	 52.52810	-29.61318	148.30380	  4.22158	160.70850	701.75000	 47.70	
 20.403	-82.668	130.99974	 54.19789	 46.52296	-29.85728	148.23882	  4.30931	160.71918	701.75000	 47.70	
 20.394	-77.868	131.21835	 61.14180	 39.81758	-29.25113	147.50511	  4.31801	160.69801	701.71002	 47.70	
 20.398	-72.996	131.37466	 68.58700	 33.00948	-28.17661	146.07886	  4.26690	160.70731	701.73999	 47.70	
 20.413	-68.100	131.48132	 76.56290	 26.14231	-26.69379	143.87242	  4.29186	160.73888	701.64001	 47.70	
 20.403	-63.259	131.68549	 84.12209	 19.64585	-24.45623	140.76968	  4.30203	160.72733	701.63000	 47.80	
 20.400	-58.396	131.82173	 92.09139	 13.05803	-21.90442	137.28218	  4.39030	160.69562	701.71997	 47.80	
 20.410	-53.489	131.91678	 99.53413	  7.33797	-18.90716	132.97676	  4.39260	160.73953	701.64001	 47.80	
 20.408	-48.628	132.03253	106.61906	  2.17618	-15.36849	127.82123	  4.33754	160.73531	701.73999	 47.70	
 20.396	-43.773	132.12402	113.39136	 -2.63680	-11.41945	122.04388	  4.34095	160.70149	701.63000	 47.70	
 20.392	-38.938	132.28925	119.53636	 -6.91335	 -6.90027	116.03533	  4.34928	160.73361	701.58002	 47.70	
 20.397	-34.097	132.39224	125.32515	-10.84085	 -2.12159	109.62813	  4.38981	160.72752	701.59998	 47.60	
 20.405	-29.165	132.49428	130.68283	-14.34947	  3.29947	102.33150	  4.45890	160.71855	701.59998	 47.60	
 20.401	-24.295	132.63643	135.27109	-17.25780	  9.18112	 94.91174	  4.41496	160.73882	701.58002	 47.60	
 20.392	-19.504	132.82399	139.09560	-19.58010	 15.38647	 87.11134	  4.42128	160.70886	701.66998	 47.60	
 20.410	-14.577	132.82133	142.27895	-21.83962	 22.96157	 79.27946	  4.39211	160.69235	701.71997	 47.60	
 20.407	 -9.736	132.84242	144.90854	-23.36693	 29.99656	 71.30815	  4.48311	160.75858	701.70001	 47.60	
 20.401	 -4.847	132.85982	146.53302	-24.51555	 37.15886	 63.52213	  4.52813	160.72757	701.62000	 47.60	
 20.400	  0.000	132.83400	147.44905	-25.14929	 44.63599	 56.68055	  4.52193	160.69788	701.62000	 47.60	
 20.401	  4.847	132.78589	147.71416	-25.29985	 52.06205	 49.09956	  4.48807	160.68813	701.64001	 47.50	
 20.407	  9.736	132.83029	147.42538	-25.21259	 58.21239	 43.22828	  4.36912	160.73262	701.59998	 47.50	
 20.410	 14.577	132.81384	146.45560	-24.41017	 64.73309	 36.17579	  4.33298	160.71924	701.71002	 47.40	
 20.392	 19.504	132.92050	144.72966	-22.93232	 72.64424	 29.34843	  4.36199	160.75696	701.72998	 47.40	
 20.401	 24.295	132.91345	142.35156	-21.25537	 80.18877	 22.96004	  4.34935	160.71422	701.69000	 47.40	
 20.405	 29.165	133.04469	139.23737	-19.14988	 88.30202	 16.67241	  4.45254	160.78990	701.60999	 47.40	
 20.397	 34.097	133.01299	135.25580	-16.42186	 96.23410	 10.50768	  4.46270	160.75014	701.69000	 47.50	
 20.392	 38.938	133.19130	130.74467	-13.04497	103.07905	  5.16361	  4.45596	160.76686	701.67999	 47.50	
 20.396	 43.773	133.23824	125.42897	 -9.46132	110.07175	 -0.05536	  4.46314	160.75240	701.71997	 47.50	
 20.408	 48.628	133.27425	119.76751	 -5.43797	116.35216	 -4.90323	  4.35538	160.74695	701.67999	 47.50	
 20.410	 53.489	133.44788	113.33302	 -0.85565	122.32593	 -9.29352	  4.35580	160.68521	701.65997	 47.50	
 20.400	 58.396	133.57948	106.64883	  4.08566	127.88194	-13.11321	  4.35410	160.74414	701.71997	 47.50	
 20.403	 63.259	133.70255	 99.44678	  9.18798	132.76367	-16.33185	  4.34897	160.73375	701.63000	 47.50	
 20.413	 68.100	133.64819	 92.21033	 15.86019	136.85809	-19.38934	  4.32361	160.73956	701.57001	 47.60	
 20.398	 72.996	133.63542	 84.02307	 22.78365	140.26830	-21.55313	  4.36056	160.72012	701.62000	 47.60	
 20.394	 77.868	133.61670	 76.48783	 29.28298	143.09146	-23.43509	  4.32566	160.77187	701.60999	 47.70	
 20.403	 82.668	133.48865	 68.77949	 35.78009	145.07469	-24.85808	  4.34831	160.74670	701.62000	 47.70	
 20.392	 87.560	133.55165	 61.51944	 42.97905	146.32603	-25.64382	  4.43277	160.73740	701.54999	 47.80	
 20.392	 92.440	133.47612	 54.82232	 50.02595	146.91483	-25.72984	  4.44239	160.77814	701.62000	 47.80	
 20.403	 97.332	133.37459	 48.32671	 56.21840	146.69427	-25.46976	  4.44226	160.75595	701.71002	 47.80	
 20.394	102.132	133.32372	 41.02274	 63.72760	145.80492	-24.91901	  4.49239	160.68138	701.60999	 47.90	
 20.398	107.004	133.26538	 33.79373	 71.62622	144.22560	-23.94024	  4.51975	160.73729	701.60999	 47.90	
 20.413	111.900	133.18568	 26.81761	 79.50608	141.79608	-22.39945	  4.47331	160.71326	701.71997	 47.90	
 20.403	116.741	133.11337	 20.37643	 87.19048	138.56908	-20.31616	  4.39665	160.63364	701.64001	 47.90	
 20.400	121.604	133.18112	 13.85492	 95.00976	134.84227	-17.66088	  4.37104	160.65408	701.63000	 47.80	
 20.410	126.511	133.19534	  7.70820	102.37849	130.49530	-14.51114	  4.20752	160.78416	701.62000	 47.80	
 20.408	131.372	133.16742	  2.17609	109.44875	125.12155	-11.03263	  4.11984	160.77892	701.57001	 47.80	
 20.396	136.227	133.06831	 -2.74759	115.87418	119.35528	 -6.94478	  4.07708	160.66940	701.65997	 47.80	
 20.392	141.062	133.17520	 -7.08362	121.85881	113.12357	 -2.39029	  4.20577	160.65674	701.63000	 47.80	
 20.397	145.903	133.11928	-10.98540	127.44694	106.52713	  2.31067	  4.42486	160.72653	701.71002	 47.80	
 20.405	150.835	133.09087	-14.61617	132.57315	 99.37017	  7.80348	  4.52502	160.78310	701.66998	 47.90	
 20.401	155.705	132.99841	-17.88651	137.02515	 91.91607	 13.36962	  4.59248	160.72589	701.65997	 48.00	
 20.392	160.496	132.87979	-20.56790	140.51253	 83.69135	 19.25939	  4.49981	160.74013	701.83002	 48.00	
 20.410	165.423	132.69258	-22.85798	143.73463	 75.87124	 25.53640	  4.31500	160.67809	701.75000	 48.00	
 20.407	170.264	132.66019	-24.59798	145.97574	 68.01273	 32.12553	  4.24173	160.65497	701.76001	 48.10	
 20.401	175.153	132.43677	-25.98234	147.48862	 60.51272	 39.05958	  4.27045	160.68707	701.67999	 48.20	
  0.141	 45.000	160.81880	 75.88009	 76.11240	 73.13654	 75.50504	  6.25887	160.63538	701.67999	 48.20	
  4.001	128.691	160.45293	 63.47808	 86.31370	 87.34292	 59.74855	  5.48118	160.65747	701.64001	 48.30	
  4.002	 76.995	160.53992	 80.28965	 69.74408	 89.98375	 57.41301	  5.69131	160.68584	701.69000	 48.30	
  4.002	 25.892	160.54626	 91.65361	 59.01732	 79.27908	 67.58434	  5.63610	160.70120	701.56000	 48.30	
  4.002	-25.892	160.43953	 90.20464	 60.06519	 62.74805	 83.99847	  5.47842	160.69153	701.58002	 48.30	
  4.002	-76.995	160.29770	 77.01257	 72.63659	 53.95378	 93.26970	  5.36438	160.68471	701.71002	 48.30	
  4.001	-128.691	160.24728	 61.18550	 88.21584	 58.28095	 88.56143	  5.29977	160.69043	701.66998	 48.30	
  4.000	180.000	160.32175	 55.92270	 94.34985	 72.60851	 73.80431	  5.31276	160.69698	701.58002	 48.40	
  8.000	180.000	157.59059	 37.10716	110.64505	 70.23668	 69.42095	  4.04525	160.74129	701.70001	 48.40	
  7.991	-152.370	157.34212	 39.48664	107.32792	 53.94351	 86.99445	  4.08619	160.66246	701.60999	 48.30	
  7.997	-124.550	157.19952	 49.14102	 96.07408	 41.46047	101.55840	  4.05502	160.70573	701.59003	 48.30	
  8.006	-96.837	157.26114	 63.92731	 79.76502	 35.26995	109.40341	  4.12750	160.70091	701.66998	 48.30	
  7.988	-69.228	157.41118	 81.91378	 62.67839	 36.20685	108.27869	  4.27510	160.66222	701.56000	 48.40	
  7.997	-41.563	157.64497	 97.41522	 48.57437	 44.46949	 98.66500	  4.34916	160.68188	701.57001	 48.40	
  8.008	-13.821	157.79330	107.60215	 40.17045	 58.49821	 82.94336	  4.43657	160.64754	701.60999	 48.30	
  8.008	 13.821	157.90692	108.92659	 39.12044	 76.05372	 65.19624	  4.37447	160.63478	701.56000	 48.20	
  7.997	 41.563	158.00974	101.54382	 44.87075	 92.36993	 50.09528	  4.32150	160.67226	701.57001	 48.20	
  7.988	 69.228	158.00475	 87.73961	 58.00740	103.82629	 40.17775	  4.26957	160.62622	701.59003	 48.10	
  8.006	 96.837	158.00626	 69.61154	 73.65659	107.33312	 37.42038	  4.21155	160.67145	701.57001	 48.00	
  7.997	124.550	157.86609	 53.78708	 91.69167	101.84527	 41.79763	  4.33911	160.67322	701.56000	 48.00	
  7.991	152.370	157.71957	 42.00309	104.86348	 88.36970	 53.38046	  4.14546	160.65370	701.52002	 47.90	
 12.009	161.059	152.38345	 21.45369	120.58600	 85.59624	 47.10643	  4.40244	160.68089	701.63000	 47.90	
 12.013	142.081	152.50993	 30.11068	110.09479	102.05207	 33.87166	  4.55615	160.64781	701.57001	 48.00	
 12.006	123.113	152.73466	 42.50855	 94.90707	114.67484	 23.79261	  4.26772	160.69646	701.58002	 48.10	
 12.007	104.200	152.82936	 58.29099	 76.89108	121.45750	 18.86696	  4.20707	160.67845	701.60999	 48.20	
 11.989	 85.301	152.97046	 75.52142	 60.19020	121.91308	 18.54722	  4.20975	160.69438	701.53003	 48.20	
 12.013	 66.294	152.94316	 93.47865	 44.18543	115.54869	 23.09267	  4.22422	160.67093	701.59003	 48.20	
 12.012	 47.388	152.87030	108.78035	 31.91631	103.50361	 32.94268	  4.37321	160.71236	701.57001	 48.20	
 11.990	 28.440	152.68758	119.15830	 23.50234	 87.79008	 45.70186	  4.42865	160.63635	701.59003	 48.20	
 11.991	  9.464	152.60770	124.05789	 19.68310	 69.64966	 61.74527	  4.55036	160.64825	701.62000	 48.20	
 11.991	 -9.464	152.60794	122.42093	 20.42098	 52.75954	 79.58315	  4.67970	160.70284	701.54999	 48.20	
 11.990	-28.440	152.40399	114.65517	 26.21823	 37.74942	 96.98969	  4.67224	160.72136	701.69000	 48.20	
 12.012	-47.388	152.07323	101.40164	 36.62703	 25.15732	111.84109	  4.64656	160.72490	701.59998	 48.20	
 12.013	-66.294	151.78865	 84.84709	 50.28679	 17.10609	121.53882	  4.54416	160.68481	701.59003	 48.20	
 11.989	-85.301	151.72365	 66.91445	 67.31449	 14.70223	125.11056	  4.48365	160.74898	701.64001	 48.20	
 12.007	-104.200	151.45520	 50.20785	 85.05687	 16.03280	122.11105	  4.48239	160.69876	701.64001	 48.10	
 12.006	-123.113	151.46785	 36.29148	101.87561	 24.01191	112.76525	  4.49442	160.70316	701.59998	 48.20	
 12.013	-142.081	151.64368	 25.18434	115.18246	 35.47493	 98.59954	  4.33507	160.69687	701.65002	 48.20	
 12.009	-161.059	151.86749	 18.65140	123.23764	 50.08625	 81.73013	  4.38820	160.66661	701.67999	 48.20	
 16.000	180.000	144.16762	 -4.03692	137.32790	 62.01700	 55.78312	  4.53718	160.68391	701.59998	 48.30	
 15.990	-165.604	143.89043	 -4.07663	136.25194	 45.52966	 72.96926	  4.51368	160.67821	701.53998	 48.30	
 16.002	-151.165	143.38347	  0.55127	130.31285	 29.13252	 91.58778	  4.36674	160.64801	701.57001	 48.30	
 16.002	-136.836	143.39709	 10.00827	119.36023	 15.73915	108.10313	  4.49333	160.71417	701.58002	 48.30	
 15.995	-122.439	143.20219	 21.02196	105.13125	  4.19581	121.75873	  4.52176	160.68634	701.57001	 48.20	
 15.993	-107.966	143.17880	 35.00606	 88.00716	 -2.51652	131.73314	  4.55323	160.70816	701.56000	 48.20	
 16.005	-93.629	143.10342	 50.86513	 69.53713	 -6.24808	136.73286	  4.46733	160.68013	701.71002	 48.00	
 15.992	-79.234	143.32739	 67.03783	 53.13034	 -6.55535	136.85847	  4.49662	160.67552	701.53998	 48.00	
 16.009	-64.774	143.60080	 85.42640	 37.01536	 -3.16820	132.25317	  4.57984	160.69560	701.64001	 47.90	
 15.997	-50.364	144.03300	102.65807	 22.87280	  3.72461	122.44162	  4.69416	160.71500	701.58002	 47.90	
 15.997	-36.045	144.23158	117.49399	 11.55018	 15.15796	108.83172	  4.65379	160.71962	701.65002	 47.90	
 16.000	-21.597	144.43408	128.76956	  2.86317	 29.66816	 92.03407	  4.59855	160.68942	701.58002	 47.90	
 16.003	 -7.169	144.56146	135.21330	 -1.61677	 46.35262	 73.43889	  4.70203	160.72925	701.60999	 47.90	
 16.003	  7.169	144.65065	136.66982	 -2.01653	 62.26032	 55.96790	  4.63593	160.71471	701.62000	 47.80	
 16.000	 21.597	144.63547	133.54839	 -0.09434	 79.60381	 40.62917	  4.61351	160.66789	701.50000	 47.80	
 15.997	 36.045	144.88686	125.43743	  5.35229	 97.62775	 25.66727	  4.71016	160.65782	701.46997	 47.80	
 15.997	 50.364	145.12604	112.97002	 14.82866	113.10706	 13.73484	  4.69427	160.70992	701.54999	 47.80	
 16.009	 64.774	145.13026	 97.28889	 29.01189	125.33247	  4.37633	  4.60743	160.70711	701.47998	 47.80	
 15.992	 79.234	145.10028	 78.76927	 44.24245	132.77921	 -1.39853	  4.58221	160.68855	701.53003	 47.80	
 16.005	 93.629	145.04683	 61.69228	 60.53072	135.31116	 -2.92124	  4.63096	160.70097	701.59003	 47.80	
 15.993	107.966	144.87663	 45.94095	 77.95937	132.86923	 -1.50557	  4.74107	160.70197	701.58002	 47.80	
 15.995	122.439	144.90092	 29.76935	 96.45477	125.39646	  4.42075	  4.43769	160.68871	701.56000	 47.80	
 16.002	136.836	144.79784	 16.62625	112.35585	113.27766	 13.23435	  4.42662	160.68445	701.46997	 47.80	
 16.002	151.165	144.61111	  6.48451	125.24480	 97.61172	 25.41088	  4.85343	160.67232	701.51001	 47.80	
 15.990	165.604	144.45302	 -1.42969	133.80940	 79.17181	 40.68826	  4.62223	160.66678	701.41998	 47.80	
 20.003	168.362	133.76408	-21.93864	144.35052	 71.63177	 30.82172	  4.32879	160.67590	701.48999	 47.80	
 20.008	156.764	134.03979	-16.62887	137.19351	 90.33460	 16.10579	  4.55715	160.67874	701.59003	 47.80	
 20.000	145.147	134.21935	 -8.62780	126.03418	107.43011	  3.25136	  4.34996	160.68883	701.53998	 47.80	
 19.995	133.545	134.22754	  1.59144	112.02977	122.19660	 -7.40317	  4.10381	160.66206	701.54999	 47.90	
 20.009	121.926	134.27007	 15.09794	 95.60625	133.91988	-15.47064	  4.32318	160.68217	701.59003	 48.00	
 20.005	110.327	134.34129	 30.48503	 77.35335	141.74306	-20.85187	  4.50795	160.64719	701.64001	 48.00	
 19.989	 98.733	134.56958	 47.27221	 59.29927	145.63007	-23.08828	  4.51963	160.70938	701.48999	 48.10	
 19.999	 87.075	134.65663	 62.64244	 43.35203	145.32143	-23.33005	  4.43251	160.69742	701.53003	 48.10	
 19.992	 75.457	134.75908	 80.74001	 27.43143	140.85158	-20.32084	  4.34824	160.69182	701.39001	 48.10	
 20.009	 63.844	134.79414	 98.61716	 11.47187	132.60304	-14.59607	  4.33098	160.68681	701.53003	 48.10	
 19.989	 52.269	134.59137	114.75262	 -0.14033	120.41212	 -6.08071	  4.41408	160.65948	701.41998	 48.10	
 19.999	 40.602	134.30255	128.40448	 -9.96550	105.29336	  5.06483	  4.50390	160.66560	701.41998	 48.00	
 20.004	 29.051	134.20804	138.45610	-17.09636	 88.36838	 18.37286	  4.47296	160.67455	701.47998	 48.00	
 20.005	 17.433	133.96162	144.70061	-21.56065	 69.75326	 33.25041	  4.39164	160.62987	701.47998	 48.00	
 20.006	  5.780	133.92766	146.79172	-23.21280	 54.12659	 49.09321	  4.44016	160.65807	701.42999	 48.00	
 20.006	 -5.780	133.94179	145.32881	-22.30807	 36.82929	 65.73225	  4.44706	160.65062	701.47998	 48.00	
 20.005	-17.433	133.95052	139.70950	-18.64501	 20.33988	 84.10351	  4.40790	160.66855	701.46002	 47.90	
 20.004	-29.051	133.63652	130.20200	-12.46620	  5.17019	102.05753	  4.43812	160.65456	701.40997	 48.00	
 19.999	-40.602	133.45560	117.21058	 -3.61580	 -6.57234	117.78120	  4.42241	160.67238	701.39001	 48.00	
 19.989	-52.269	133.19896	101.40058	  7.67556	-15.98433	131.04019	  4.35531	160.65851	701.45001	 48.20	
 20.009	-63.844	132.87053	 83.47393	 22.11300	-22.66977	140.34833	  4.29402	160.64719	701.37000	 48.20	
 19.992	-75.457	132.55695	 65.32222	 37.71369	-26.62023	146.02859	  4.27770	160.68024	701.47998	 48.20	
 19.999	-87.075	132.19392	 49.97284	 52.85748	-27.53938	147.40602	  4.18181	160.66179	701.48999	 48.20	
 19.989	-98.733	132.11586	 33.25783	 70.71001	-25.66381	145.14960	  4.19538	160.70491	701.50000	 48.10	
 20.005	-110.327	132.11797	 18.16178	 88.51728	-21.26839	138.72185	  4.17377	160.67953	701.46002	 48.10	
 20.009	-121.926	132.08154	  4.01533	106.02769	-14.26915	128.63962	  4.25486	160.68140	701.40997	 48.20	
 19.995	-133.545	132.27808	 -6.35220	121.08488	 -4.80835	115.04351	  4.21798	160.67876	701.54999	 48.10	
 20.000	-145.147	132.54596	-14.81065	133.25519	  6.73215	 99.14636	  4.17849	160.67113	701.40002	 48.20	
 20.008	-156.764	132.88130	-21.56880	141.97668	 22.15116	 80.92963	  4.14509	160.69925	701.37000	 48.20	
 20.003	-168.362	133.19127	-24.16986	146.67200	 38.49356	 63.01311	  4.32941	160.68227	701.41998	 48.20	
 20.000	180.000	133.47899	-24.45097	147.31538	 55.07127	 46.43430	  4.35639	160.66789	701.44000	 48.20	
