FileType=PCF
NHL=14
Date=03/13/19	13:48:29
Facility=APL
Serial=16071-4
Customer=NASA
NP=6
Mach=0.230000
Calibration=1:1
CalPts=490
TstPts=95
PortNumbering=AP Standard
Units=Torr C m/s kg/m^3 deg mm 
Theta[deg]	Phi[deg]	P1[Torr]	P2[Torr]	P3[Torr]	P4[Torr]	P5[Torr]	P6[Torr]	Pt[Torr]	Ps[Abs,Torr]	Ts[C]	
  0.000	  0.000	 26.00708	 11.86346	 10.49291	 11.76353	 10.67764	  0.60832	 25.97663	710.81000	 32.70	
  1.691	128.401	 25.98375	 10.97683	 11.30445	 12.77201	  9.63665	  0.57977	 25.96609	710.73999	 32.60	
  1.692	 77.194	 25.97377	 12.13735	 10.10657	 12.99875	  9.39947	  0.62754	 25.97299	710.89001	 32.60	
  1.699	 26.182	 25.97798	 13.08792	  9.21941	 12.23979	 10.03310	  0.64539	 25.97074	710.76001	 32.60	
  1.699	-26.182	 25.97927	 13.08494	  9.27337	 11.11406	 11.23503	  0.62679	 25.96229	710.71997	 32.60	
  1.692	-77.194	 25.97688	 12.10394	 10.20787	 10.43841	 11.96787	  0.57918	 25.95894	710.67999	 32.60	
  1.691	-128.401	 25.97780	 10.94874	 11.37803	 10.71220	 11.69684	  0.54155	 25.95461	710.71002	 32.50	
  1.700	180.000	 25.98112	 10.46870	 11.88481	 11.76373	 10.63375	  0.54890	 25.96210	710.76001	 32.50	
  3.400	180.000	 25.94850	  9.08030	 13.25313	 11.71216	 10.51413	  0.44640	 25.94587	710.78003	 32.50	
  3.388	-152.325	 25.96110	  9.35521	 12.96540	 10.48364	 11.79394	  0.43609	 25.95718	710.70001	 32.50	
  3.397	-124.529	 25.96530	 10.16575	 12.07894	  9.49416	 12.80113	  0.44135	 25.95487	710.77002	 32.50	
  3.399	-96.763	 25.96992	 11.35666	 10.80451	  9.05093	 13.30432	  0.45991	 25.96755	710.71002	 32.40	
  3.394	-69.283	 25.93088	 12.66772	  9.51932	  9.09904	 13.14123	  0.49894	 25.93932	710.69000	 32.40	
  3.400	-41.398	 25.93222	 13.81034	  8.45918	  9.76222	 12.38824	  0.55349	 25.96885	710.71002	 32.40	
  3.401	-14.021	 25.89848	 14.46594	  7.81212	 10.83735	 11.22083	  0.60232	 25.96274	710.70001	 32.40	
  3.401	 14.021	 25.87232	 14.50189	  7.73748	 12.09850	  9.88517	  0.63528	 25.95831	710.66998	 32.40	
  3.400	 41.398	 25.88290	 13.83778	  8.30261	 13.29487	  8.81950	  0.63525	 25.97199	710.72998	 32.40	
  3.394	 69.283	 25.88595	 12.69195	  9.30670	 14.14542	  8.10137	  0.60754	 25.96600	710.64001	 32.30	
  3.399	 96.763	 25.89797	 11.38889	 10.56677	 14.37697	  7.93555	  0.56906	 25.95240	710.73999	 32.30	
  3.397	124.529	 25.92652	 10.22860	 11.86555	 13.93446	  8.41031	  0.51638	 25.96465	710.71002	 32.30	
  3.388	152.325	 25.94803	  9.38220	 12.86860	 12.92978	  9.32786	  0.47395	 25.96394	710.71997	 32.30	
  5.099	161.165	 25.85134	  7.86135	 14.26499	 12.88528	  9.05433	  0.31493	 25.96691	710.77002	 32.30	
  5.109	142.013	 25.81321	  8.44071	 13.50013	 14.14324	  7.91249	  0.35907	 25.95404	710.71002	 32.20	
  5.095	123.033	 25.78890	  9.40194	 12.35703	 15.06381	  7.11014	  0.40645	 25.96633	710.73999	 32.20	
  5.105	104.191	 25.74679	 10.56565	 11.02170	 15.59516	  6.62683	  0.44912	 25.95656	710.69000	 32.20	
  5.093	 85.207	 25.71213	 11.88625	  9.66209	 15.63664	  6.46536	  0.49063	 25.95530	710.70001	 32.20	
  5.104	 66.290	 25.68349	 13.25047	  8.40178	 15.21311	  6.77247	  0.51861	 25.95723	710.78998	 32.20	
  5.094	 47.331	 25.66490	 14.43672	  7.38057	 14.35613	  7.46976	  0.57541	 25.95083	710.71997	 32.20	
  5.089	 28.397	 25.65622	 15.31556	  6.63370	 13.17457	  8.47460	  0.56721	 25.93958	710.78003	 32.20	
  5.096	  9.576	 25.68376	 15.81559	  6.27319	 11.88656	  9.70887	  0.57226	 25.95780	710.69000	 32.10	
  5.096	 -9.576	 25.69122	 15.77137	  6.36470	 10.57887	 11.08454	  0.51482	 25.93789	710.72998	 32.10	
  5.089	-28.397	 25.73698	 15.28650	  6.87176	  9.40865	 12.38006	  0.48393	 25.95758	710.70001	 32.10	
  5.094	-47.331	 25.77574	 14.41480	  7.66323	  8.44913	 13.48006	  0.37955	 25.94978	710.76001	 32.10	
  5.104	-66.290	 25.80617	 13.21039	  8.73520	  7.83188	 14.27841	  0.37412	 25.93222	710.72998	 32.10	
  5.093	-85.207	 25.85411	 11.88146	 10.00520	  7.62951	 14.62460	  0.33595	 25.95333	710.59003	 32.10	
  5.105	-104.191	 25.85988	 10.53844	 11.36323	  7.78502	 14.46918	  0.31417	 25.94250	710.73999	 32.10	
  5.095	-123.033	 25.87564	  9.36873	 12.67335	  8.27652	 13.87211	  0.28815	 25.94279	710.70001	 32.00	
  5.109	-142.013	 25.88261	  8.43613	 13.72803	  9.13601	 12.89433	  0.29207	 25.94953	710.71997	 32.00	
  5.099	-161.165	 25.88401	  7.88140	 14.37980	 10.31380	 11.67278	  0.29787	 25.94553	710.71997	 32.00	
  5.100	180.000	 25.86558	  7.67718	 14.57149	 11.59284	 10.31705	  0.30130	 25.95290	710.78003	 32.00	
  6.800	180.000	 25.67235	  6.27923	 15.80553	 11.44080	 10.05811	  0.03628	 25.92509	710.81000	 32.00	
  6.796	-166.229	 25.70363	  6.37598	 15.70891	 10.17186	 11.38789	  0.04927	 25.93440	710.69000	 32.00	
  6.808	-152.311	 25.71543	  6.71928	 15.26284	  8.95756	 12.64337	  0.10302	 25.93782	710.75000	 31.90	
  6.795	-138.383	 25.71435	  7.40092	 14.45706	  7.94119	 13.82099	  0.02327	 25.93997	710.65002	 31.90	
  6.792	-124.591	 25.69269	  8.29085	 13.42806	  7.13000	 14.77348	  0.04966	 25.92842	710.76001	 31.90	
  6.787	-110.754	 25.68929	  9.36804	 12.18793	  6.55469	 15.48394	  0.03530	 25.93709	710.72998	 31.90	
  6.800	-96.985	 25.66600	 10.59068	 10.86690	  6.21004	 15.90062	  0.11312	 25.93925	710.76001	 31.90	
  6.800	-83.015	 25.61609	 11.92686	  9.51093	  6.13157	 15.89208	  0.08832	 25.92881	710.77002	 31.90	
  6.787	-69.246	 25.60204	 13.22270	  8.30789	  6.33471	 15.55861	  0.10762	 25.93621	710.72998	 31.90	
  6.792	-55.409	 25.54855	 14.48019	  7.18270	  6.80513	 14.86155	  0.14159	 25.93230	710.84998	 31.90	
  6.795	-41.617	 25.51518	 15.54724	  6.25630	  7.53712	 13.92266	  0.18930	 25.94455	710.77002	 31.80	
  6.808	-27.689	 25.46495	 16.38726	  5.51302	  8.47847	 12.74802	  0.24781	 25.93323	710.84998	 31.80	
  6.796	-13.771	 25.41675	 16.90577	  4.99189	  9.63777	 11.46908	  0.29477	 25.93325	710.81000	 31.80	
  6.800	  0.000	 25.38829	 17.08893	  4.76791	 10.89324	 10.12796	  0.33105	 25.93323	710.75000	 31.80	
  6.796	 13.771	 25.36634	 16.92172	  4.85656	 12.16669	  8.85224	  0.36697	 25.93437	710.77002	 31.80	
  6.808	 27.689	 25.36324	 16.42409	  5.22164	 13.48290	  7.62868	  0.37555	 25.95272	710.82001	 31.80	
  6.795	 41.617	 25.35761	 15.58683	  5.86512	 14.67743	  6.60665	  0.36428	 25.93752	710.75000	 31.80	
  6.792	 55.409	 25.35748	 14.52232	  6.73751	 15.65763	  5.85126	  0.34674	 25.93182	710.77002	 31.80	
  6.787	 69.246	 25.37989	 13.27942	  7.81076	 16.39226	  5.36388	  0.30541	 25.92838	710.82001	 31.70	
  6.800	 83.015	 25.40054	 11.95089	  9.02682	 16.86466	  5.08860	  0.27658	 25.92967	710.83002	 31.70	
  6.800	 96.985	 25.44957	 10.63903	 10.34491	 16.94991	  5.05851	  0.22453	 25.94528	710.82001	 31.70	
  6.787	110.754	 25.46948	  9.41625	 11.69142	 16.62430	  5.30781	  0.18298	 25.92880	710.82001	 31.70	
  6.792	124.591	 25.51871	  8.34389	 12.96219	 16.00779	  5.80920	  0.15586	 25.92480	710.82001	 31.70	
  6.795	138.383	 25.56149	  7.44885	 14.09357	 15.10825	  6.58713	  0.12418	 25.93292	710.84003	 31.70	
  6.808	152.311	 25.61755	  6.77326	 15.00646	 13.97789	  7.60765	  0.07855	 25.94514	710.90002	 31.70	
  6.796	166.229	 25.64761	  6.38360	 15.59629	 12.69726	  8.80715	  0.10621	 25.93419	710.82001	 31.70	
  8.491	168.704	 25.35577	  4.81361	 16.83934	 12.48241	  8.41838	 -0.17659	 25.92879	710.72998	 31.70	
  8.502	157.493	 25.30600	  5.12369	 16.32823	 13.80354	  7.15918	 -0.16714	 25.92181	710.81000	 31.60	
  8.494	146.194	 25.27139	  5.66781	 15.54256	 15.05528	  6.03130	 -0.13440	 25.92776	710.63000	 31.60	
  8.495	135.039	 25.22777	  6.40706	 14.54303	 16.12209	  5.11224	 -0.09336	 25.93632	710.83002	 31.60	
  8.487	123.723	 25.18138	  7.34957	 13.33971	 17.03587	  4.41623	 -0.05629	 25.93361	710.84003	 31.60	
  8.492	112.575	 25.12334	  8.42927	 12.04645	 17.67106	  3.93843	 -0.04471	 25.92123	710.78998	 31.60	
  8.510	101.220	 25.07834	  9.66822	 10.64756	 18.05980	  3.58315	 -0.02184	 25.93328	710.83002	 31.60	
  8.500	 90.000	 25.03446	 10.98082	  9.27456	 18.19850	  3.45629	  0.02968	 25.91929	710.79999	 31.60	
  8.510	 78.780	 24.99976	 12.34275	  7.96453	 17.98084	  3.59613	  0.06541	 25.92331	710.89001	 31.60	
  8.492	 67.425	 24.98445	 13.70993	  6.72977	 17.39023	  3.90960	  0.07786	 25.94077	710.82001	 31.50	
  8.487	 56.277	 24.96064	 14.95414	  5.66650	 16.60292	  4.41553	  0.10455	 25.93069	710.65002	 31.50	
  8.495	 44.961	 24.94709	 16.08683	  4.74470	 15.61024	  5.13567	  0.15277	 25.92781	710.78003	 31.50	
  8.494	 33.806	 24.93225	 17.00335	  4.05265	 14.45502	  6.06656	  0.16612	 25.91831	710.81000	 31.50	
  8.502	 22.507	 24.95385	 17.72780	  3.56529	 13.16423	  7.20376	  0.15674	 25.94270	710.87000	 31.50	
  8.491	 11.296	 24.96998	 18.14960	  3.27504	 11.82045	  8.47699	  0.15641	 25.94072	710.84003	 31.50	
  8.500	  0.000	 24.98653	 18.28527	  3.19705	 10.50469	  9.81114	  0.12296	 25.93170	710.79999	 31.50	
  8.491	-11.296	 25.02885	 18.11994	  3.43161	  9.20498	 11.21556	  0.08547	 25.93452	710.71002	 31.50	
  8.502	-22.507	 25.07433	 17.69759	  3.85206	  8.01072	 12.53237	  0.02519	 25.94069	710.82001	 31.50	
  8.494	-33.806	 25.11457	 16.96223	  4.44881	  6.95942	 13.79399	 -0.01292	 25.92472	710.87000	 31.50	
  8.495	-44.961	 25.16651	 16.03105	  5.22374	  6.08255	 14.92018	 -0.05050	 25.92625	710.78998	 31.50	
  8.487	-56.277	 25.21765	 14.89391	  6.19466	  5.37745	 15.89198	 -0.10836	 25.93349	710.76001	 31.50	
  8.492	-67.425	 25.25640	 13.63394	  7.33127	  4.95017	 16.63424	 -0.14832	 25.92848	710.81000	 31.40	
  8.510	-78.780	 25.29306	 12.28036	  8.57014	  4.68480	 17.08780	 -0.18837	 25.92115	710.82001	 31.40	
  8.500	-90.000	 25.33770	 10.93898	  9.90310	  4.67515	 17.22923	 -0.14105	 25.91805	710.77002	 31.40	
  8.510	-101.220	 25.36469	  9.63645	 11.26432	  4.82613	 17.05209	 -0.22205	 25.93315	710.79999	 31.40	
  8.492	-112.575	 25.39670	  8.39152	 12.63889	  5.16578	 16.57027	 -0.23503	 25.92933	710.69000	 31.40	
  8.487	-123.723	 25.41778	  7.32904	 13.89857	  5.74387	 15.78842	 -0.22034	 25.93755	710.82001	 31.40	
  8.495	-135.039	 25.42549	  6.41401	 15.01054	  6.54141	 14.80898	 -0.20907	 25.91494	710.84003	 31.40	
  8.494	-146.194	 25.43259	  5.67908	 15.92418	  7.49099	 13.67122	 -0.20405	 25.92274	710.90002	 31.40	
  8.502	-157.493	 25.43073	  5.11397	 16.59507	  8.58473	 12.40275	 -0.21466	 25.93275	710.76001	 31.40	
  8.491	-168.704	 25.40153	  4.76686	 16.97072	  9.83384	 11.09016	 -0.20146	 25.91563	710.78998	 31.40	
  8.500	180.000	 25.37678	  4.67944	 17.07074	 11.17620	  9.72222	 -0.19346	 25.91511	710.82001	 31.40	
 10.200	180.000	 24.99733	  3.09993	 18.23985	 10.85613	  9.31172	 -0.43201	 25.90930	710.82001	 31.40	
 10.191	-170.497	 25.02333	  3.18230	 18.16290	  9.52580	 10.69792	 -0.44079	 25.91534	710.72998	 31.30	
 10.210	-161.034	 25.02892	  3.46111	 17.84738	  8.21002	 12.06698	 -0.45239	 25.90857	710.77002	 31.30	
 10.194	-151.526	 25.07831	  3.92368	 17.30315	  7.04759	 13.38935	 -0.44023	 25.94947	710.90997	 31.30	
 10.190	-142.105	 25.06885	  4.52864	 16.49992	  5.98144	 14.64042	 -0.42871	 25.93001	710.75000	 31.30	
 10.215	-132.646	 25.05197	  5.31543	 15.49840	  5.04206	 15.79613	 -0.44520	 25.92413	710.89001	 31.30	
 10.203	-123.092	 25.02327	  6.26964	 14.31715	  4.28184	 16.78100	 -0.46450	 25.91303	710.78998	 31.30	
 10.192	-113.678	 25.01400	  7.35947	 13.03350	  3.70681	 17.52963	 -0.46181	 25.91692	710.78998	 31.30	
 10.208	-104.249	 24.98469	  8.55357	 11.67839	  3.25412	 18.03718	 -0.44346	 25.91287	710.89001	 31.30	
 10.210	-94.801	 24.93890	  9.86714	 10.25161	  3.06231	 18.38689	 -0.43219	 25.90157	710.85999	 31.30	
 10.210	-85.199	 24.90596	 11.23711	  8.85369	  3.02852	 18.33165	 -0.42481	 25.90837	710.78998	 31.30	
 10.208	-75.751	 24.87298	 12.60574	  7.55192	  3.20111	 18.08995	 -0.41933	 25.91908	710.88000	 31.30	
 10.192	-66.322	 24.83215	 13.95446	  6.30946	  3.51960	 17.59433	 -0.40182	 25.92284	710.97998	 31.20	
 10.203	-56.908	 24.77883	 15.21923	  5.19713	  3.93014	 16.87873	 -0.36117	 25.92168	710.88000	 31.20	
 10.215	-47.354	 24.72187	 16.41352	  4.17249	  4.54055	 15.91861	 -0.32198	 25.92221	710.96002	 31.20	
 10.190	-37.895	 24.66949	 17.43584	  3.32399	  5.37175	 14.76974	 -0.28449	 25.92569	710.85999	 31.20	
 10.194	-28.474	 24.59919	 18.25917	  2.64733	  6.36533	 13.51443	 -0.24578	 25.90714	710.88000	 31.20	
 10.210	-18.966	 24.56614	 18.90078	  2.14169	  7.48016	 12.22476	 -0.20732	 25.92540	711.00000	 31.20	
 10.191	 -9.503	 24.53017	 19.27341	  1.79302	  8.73526	 10.83045	 -0.14941	 25.93047	711.01001	 31.20	
 10.200	  0.000	 24.47413	 19.40915	  1.59699	 10.07721	  9.41215	 -0.09986	 25.91926	711.06000	 31.20	
 10.191	  9.503	 24.46001	 19.27961	  1.66158	 11.41809	  8.06412	 -0.08841	 25.92648	710.90002	 31.20	
 10.210	 18.966	 24.43497	 18.91994	  1.89420	 12.73742	  6.76286	 -0.07560	 25.91922	710.84003	 31.20	
 10.194	 28.474	 24.42916	 18.31015	  2.30533	 14.09711	  5.57803	 -0.07180	 25.92527	710.88000	 31.20	
 10.190	 37.895	 24.43875	 17.48069	  2.89619	 15.32426	  4.61163	 -0.06261	 25.92248	710.81000	 31.20	
 10.215	 47.354	 24.42179	 16.47402	  3.58941	 16.49914	  3.86164	 -0.10095	 25.92601	710.81000	 31.20	
 10.203	 56.908	 24.44035	 15.28314	  4.54607	 17.50586	  3.16275	 -0.15588	 25.92088	710.89001	 31.20	
 10.192	 66.322	 24.45122	 13.98699	  5.60743	 18.28707	  2.62747	 -0.18214	 25.91237	710.96997	 31.20	
 10.208	 75.751	 24.47630	 12.61956	  6.81605	 18.94199	  2.25050	 -0.20439	 25.91749	710.84003	 31.10	
 10.210	 85.199	 24.50832	 11.22495	  8.09712	 19.27255	  2.04092	 -0.20805	 25.92153	710.90002	 31.10	
 10.210	 94.801	 24.54370	  9.85757	  9.46081	 19.33981	  2.02156	 -0.24143	 25.91512	710.96997	 31.10	
 10.208	104.249	 24.59681	  8.57005	 10.87338	 19.12478	  2.22253	 -0.28836	 25.92134	710.96002	 31.10	
 10.192	113.678	 24.64666	  7.38126	 12.27507	 18.70406	  2.60775	 -0.31899	 25.91600	710.84998	 31.10	
 10.203	123.092	 24.69404	  6.27638	 13.62037	 18.00112	  3.08807	 -0.31677	 25.91641	710.90997	 31.10	
 10.215	132.646	 24.76195	  5.27500	 14.89224	 17.12113	  3.76221	 -0.33006	 25.92360	710.85999	 31.10	
 10.190	142.105	 24.83289	  4.52854	 15.99066	 16.02032	  4.48003	 -0.36832	 25.92270	710.83002	 31.10	
 10.194	151.526	 24.86210	  3.89732	 16.87535	 14.84947	  5.47831	 -0.41159	 25.90320	710.90997	 31.10	
 10.210	161.034	 24.91765	  3.44050	 17.58208	 13.56219	  6.67225	 -0.42209	 25.91372	710.98999	 31.10	
 10.191	170.497	 24.96087	  3.19157	 18.02423	 12.17292	  7.96913	 -0.42001	 25.91089	710.87000	 31.10	
 11.899	171.783	 24.48276	  1.60587	 19.16175	 11.81814	  7.46842	 -0.63528	 25.92333	710.94000	 31.10	
 11.890	163.610	 24.43655	  1.85659	 18.74493	 13.20108	  6.15983	 -0.64374	 25.91530	710.98999	 31.10	
 11.889	155.445	 24.38805	  2.21317	 18.11302	 14.53305	  4.91422	 -0.66300	 25.91005	711.00000	 31.10	
 11.909	147.299	 24.32296	  2.66566	 17.32847	 15.78265	  4.03758	 -0.63398	 25.92076	710.97998	 31.10	
 11.902	139.148	 24.26689	  3.36899	 16.31874	 16.94928	  3.14238	 -0.60452	 25.91603	711.06000	 31.10	
 11.894	130.867	 24.21572	  4.22377	 15.13829	 17.99645	  2.34558	 -0.57759	 25.92120	710.96997	 31.00	
 11.897	122.732	 24.15755	  5.17675	 13.85709	 18.87357	  1.68383	 -0.58047	 25.93631	710.89001	 31.00	
 11.903	114.597	 24.09437	  6.27435	 12.49590	 19.54225	  1.21483	 -0.58490	 25.91373	710.90002	 31.00	
 11.893	106.346	 24.04706	  7.48797	 11.08429	 19.99029	  0.88862	 -0.55972	 25.91395	711.00000	 31.00	
 11.892	 98.155	 23.99932	  8.76259	  9.64508	 20.25262	  0.62406	 -0.51124	 25.90548	710.88000	 31.00	
 11.900	 90.000	 23.95948	 10.09172	  8.26542	 20.32561	  0.53626	 -0.47221	 25.92152	710.94000	 31.00	
 11.892	 81.845	 23.93213	 11.47719	  6.94876	 20.10440	  0.69251	 -0.46159	 25.91530	710.88000	 31.00	
 11.893	 73.654	 23.90640	 12.88343	  5.67859	 19.70452	  0.94538	 -0.46558	 25.92926	710.96002	 31.00	
 11.903	 65.403	 23.87160	 14.26298	  4.49425	 19.08347	  1.31251	 -0.44724	 25.92598	710.90997	 31.00	
 11.897	 57.268	 23.84343	 15.55496	  3.43394	 18.28739	  1.81441	 -0.40940	 25.92538	710.90002	 31.00	
 11.894	 49.133	 23.82257	 16.76139	  2.50843	 17.32319	  2.48044	 -0.35434	 25.90762	710.96002	 31.00	
 11.902	 40.852	 23.82518	 17.85773	  1.70935	 16.16202	  3.31236	 -0.30424	 25.91523	710.96002	 31.00	
 11.909	 32.701	 23.81974	 18.76551	  1.09705	 14.92462	  4.23009	 -0.31197	 25.91708	711.01001	 31.00	
 11.889	 24.555	 23.84413	 19.47285	  0.70362	 13.63288	  5.10103	 -0.31690	 25.91989	710.94000	 31.00	
 11.890	 16.390	 23.85280	 19.99979	  0.37661	 12.30940	  6.27628	 -0.32174	 25.91965	711.02002	 31.00	
 11.899	  8.217	 23.87455	 20.32463	  0.16958	 10.91263	  7.62958	 -0.33779	 25.92407	710.95001	 31.00	
 11.900	  0.000	 23.88541	 20.42149	  0.11025	  9.56025	  8.97828	 -0.33939	 25.91463	710.90997	 30.90	
 11.899	 -8.217	 23.92891	 20.30969	  0.25723	  8.22274	 10.39573	 -0.38289	 25.91494	710.87000	 30.90	
 11.890	-16.390	 23.96480	 19.96789	  0.55151	  6.95022	 11.82592	 -0.43091	 25.90651	710.90002	 30.90	
 11.889	-24.555	 24.02042	 19.43654	  0.95902	  5.81299	 13.13121	 -0.47533	 25.90811	710.97998	 30.90	
 11.909	-32.701	 24.07779	 18.71429	  1.52365	  4.70325	 14.46127	 -0.51094	 25.93116	711.02002	 30.90	
 11.902	-40.852	 24.12741	 17.79170	  2.18927	  3.93455	 15.69299	 -0.53224	 25.92336	710.98999	 30.90	
 11.894	-49.133	 24.18448	 16.68422	  3.07815	  3.20447	 16.79914	 -0.54855	 25.92023	711.00000	 30.90	
 11.897	-57.268	 24.24373	 15.46998	  4.09996	  2.61251	 17.74543	 -0.56666	 25.90783	711.03003	 30.90	
 11.903	-65.403	 24.29707	 14.19138	  5.23121	  2.17758	 18.48746	 -0.59929	 25.91845	711.03998	 30.90	
 11.893	-73.654	 24.32655	 12.80287	  6.47269	  1.83995	 19.11402	 -0.60381	 25.90822	711.01001	 30.90	
 11.892	-81.845	 24.38200	 11.39249	  7.80010	  1.61308	 19.44939	 -0.60239	 25.91695	710.97998	 30.90	
 11.900	-90.000	 24.41395	 10.02203	  9.15165	  1.55214	 19.51605	 -0.58468	 25.91384	711.03003	 30.90	
 11.892	-98.155	 24.45301	  8.70708	 10.52711	  1.67796	 19.40337	 -0.58913	 25.91463	711.00000	 30.90	
 11.893	-106.346	 24.50302	  7.43333	 11.96775	  1.99398	 19.07497	 -0.60769	 25.91858	711.03998	 30.90	
 11.903	-114.597	 24.51498	  6.23498	 13.35081	  2.43048	 18.46662	 -0.62457	 25.91227	710.96997	 30.90	
 11.897	-122.732	 24.55268	  5.17333	 14.66163	  3.01120	 17.63338	 -0.63443	 25.91684	711.00000	 30.90	
 11.894	-130.867	 24.57261	  4.21606	 15.86763	  3.66312	 16.69695	 -0.61119	 25.92471	711.09003	 30.80	
 11.902	-139.148	 24.58278	  3.42817	 16.95345	  4.43667	 15.57189	 -0.60999	 25.92435	711.01001	 30.80	
 11.909	-147.299	 24.59210	  2.75013	 17.84014	  5.43893	 14.32948	 -0.62348	 25.92158	711.01001	 30.80	
 11.889	-155.445	 24.60305	  2.24390	 18.53329	  6.60206	 12.99371	 -0.63602	 25.92739	710.94000	 30.80	
 11.890	-163.610	 24.55607	  1.83587	 19.00689	  7.78346	 11.64038	 -0.65459	 25.90379	711.01001	 30.80	
 11.899	-171.783	 24.55292	  1.59444	 19.30367	  9.13005	 10.24064	 -0.64611	 25.92400	710.97998	 30.80	
 11.900	180.000	 24.51157	  1.53529	 19.34590	 10.49331	  8.82191	 -0.63694	 25.91834	711.07001	 30.80	
 13.600	180.000	 23.94145	 -0.01292	 20.37907	 10.03241	  8.27490	 -0.81446	 25.92536	711.02002	 30.80	
 13.608	-172.853	 23.96445	  0.05617	 20.34936	  8.66703	  9.67593	 -0.80975	 25.90693	710.96002	 30.80	
 13.611	-165.583	 23.99798	  0.25554	 20.13369	  7.31633	 11.10927	 -0.81220	 25.93324	710.95001	 30.80	
 13.601	-158.353	 24.02014	  0.62428	 19.69012	  6.08278	 12.49977	 -0.79648	 25.92309	711.09003	 30.80	
 13.609	-151.210	 24.02996	  1.10323	 19.06454	  4.90560	 13.86777	 -0.76267	 25.91565	710.98999	 30.80	
 13.611	-143.999	 24.01516	  1.58923	 18.26344	  3.98814	 15.17824	 -0.71305	 25.91876	710.97998	 30.80	
 13.601	-136.825	 24.02555	  2.29622	 17.29953	  3.10191	 16.38166	 -0.70430	 25.92563	710.96002	 30.80	
 13.596	-129.640	 24.02432	  3.14262	 16.20337	  2.37027	 17.46435	 -0.70175	 25.92831	711.09998	 30.80	
 13.611	-122.431	 23.97033	  4.07359	 14.94250	  1.66864	 18.42062	 -0.71025	 25.90720	710.98999	 30.80	
 13.604	-115.211	 23.93516	  5.12472	 13.60995	  1.08870	 19.23804	 -0.69417	 25.90803	711.09003	 30.80	
 13.595	-108.042	 23.90822	  6.26503	 12.22688	  0.61253	 19.83457	 -0.67412	 25.91848	710.96002	 30.80	
 13.607	-100.793	 23.88681	  7.51500	 10.78951	  0.24672	 20.27362	 -0.66277	 25.92852	711.01001	 30.80	
 13.601	-93.617	 23.83699	  8.82001	  9.40265	  0.04080	 20.50954	 -0.66903	 25.92052	711.03998	 30.80	
 13.601	-86.383	 23.79726	 10.17896	  8.02162	  0.06353	 20.49379	 -0.67499	 25.92149	711.04999	 30.80	
 13.607	-79.207	 23.75633	 11.57526	  6.66776	  0.23050	 20.30697	 -0.68614	 25.91273	711.00000	 30.80	
 13.595	-71.958	 23.70194	 12.98034	  5.36330	  0.51321	 19.92126	 -0.70530	 25.90171	711.01001	 30.80	
 13.604	-64.789	 23.65938	 14.31400	  4.16927	  0.80455	 19.33698	 -0.70463	 25.90099	711.09998	 30.80	
 13.611	-57.569	 23.60254	 15.63791	  3.02662	  1.23417	 18.53881	 -0.70671	 25.89718	710.83002	 30.80	
 13.596	-50.360	 23.56573	 16.88866	  2.04639	  1.84753	 17.60028	 -0.70202	 25.90378	710.84003	 30.70	
 13.601	-43.175	 23.49952	 18.01192	  1.17609	  2.50642	 16.52931	 -0.71706	 25.91354	710.94000	 30.80	
 13.611	-36.001	 23.44215	 19.01168	  0.44645	  3.27784	 15.35175	 -0.72190	 25.92719	710.96997	 30.70	
 13.609	-28.790	 23.38351	 19.84851	 -0.14431	  4.20431	 14.03622	 -0.70383	 25.91175	710.97998	 30.70	
 13.601	-21.647	 23.33258	 20.52654	 -0.62405	  5.23403	 12.67540	 -0.66795	 25.92104	710.90002	 30.70	
 13.611	-14.417	 23.28659	 21.01083	 -0.96868	  6.30848	 11.34496	 -0.63620	 25.91695	710.96002	 30.70	
 13.608	 -7.147	 23.25104	 21.30855	 -1.23340	  7.63056	  9.89138	 -0.59280	 25.92294	710.82001	 30.70	
 13.600	  0.000	 23.21496	 21.39909	 -1.33655	  8.96489	  8.48897	 -0.57531	 25.91733	710.90002	 30.70	
 13.608	  7.147	 23.17316	 21.31533	 -1.30255	 10.32623	  7.11737	 -0.56706	 25.91786	710.97998	 30.70	
 13.611	 14.417	 23.16611	 21.03514	 -1.12785	 11.77072	  5.77260	 -0.57558	 25.92635	710.91998	 30.70	
 13.601	 21.647	 23.14403	 20.54213	 -0.87023	 13.06803	  4.76589	 -0.55930	 25.91920	710.90997	 30.70	
 13.609	 28.790	 23.13874	 19.89894	 -0.49670	 14.38846	  3.73527	 -0.54940	 25.90798	710.97998	 30.70	
 13.611	 36.001	 23.13398	 19.07923	 -0.02246	 15.70008	  2.72468	 -0.55629	 25.91843	710.90002	 30.70	
 13.601	 43.175	 23.12550	 18.09900	  0.59398	 16.91936	  1.81647	 -0.59124	 25.92106	710.85999	 30.70	
 13.596	 50.360	 23.13919	 16.98782	  1.38102	 18.02213	  1.07294	 -0.62748	 25.91393	710.95001	 30.70	
 13.611	 57.569	 23.14688	 15.74720	  2.30609	 18.98731	  0.44798	 -0.70241	 25.91088	710.95001	 30.70	
 13.604	 64.789	 23.16627	 14.43542	  3.35685	 19.80240	 -0.04736	 -0.74555	 25.91045	710.92999	 30.70	
 13.595	 71.958	 23.20498	 13.08019	  4.48977	 20.45824	 -0.38321	 -0.76483	 25.90391	710.92999	 30.70	
 13.607	 79.207	 23.23844	 11.67792	  5.72258	 20.92795	 -0.63496	 -0.76313	 25.92675	710.96002	 30.70	
 13.601	 86.383	 23.26022	 10.27110	  7.01781	 21.19046	 -0.81016	 -0.75235	 25.91622	710.97998	 30.70	
 13.601	 93.617	 23.30169	  8.90157	  8.37367	 21.27244	 -0.91925	 -0.76172	 25.91928	710.90002	 30.70	
 13.607	100.793	 23.35677	  7.60079	  9.78338	 21.14938	 -0.74044	 -0.80727	 25.92407	710.85999	 30.70	
 13.595	108.042	 23.40357	  6.35730	 11.21703	 20.82003	 -0.44854	 -0.83417	 25.90824	710.97998	 30.70	
 13.604	115.211	 23.45749	  5.19224	 12.63227	 20.32811	 -0.12050	 -0.84023	 25.91428	710.95001	 30.70	
 13.611	122.431	 23.51366	  4.09609	 14.01582	 19.64723	  0.29572	 -0.82488	 25.92632	710.88000	 30.70	
 13.596	129.640	 23.57570	  3.14087	 15.32417	 18.80680	  0.90538	 -0.83336	 25.92253	710.90002	 30.70	
 13.601	136.825	 23.62259	  2.32570	 16.50116	 17.80033	  1.65837	 -0.84808	 25.90106	710.88000	 30.60	
 13.611	143.999	 23.69475	  1.62281	 17.58993	 16.67513	  2.50450	 -0.89168	 25.92683	710.89001	 30.60	
 13.609	151.210	 23.74394	  1.03034	 18.51150	 15.42104	  3.46307	 -0.89505	 25.92107	710.96002	 30.60	
 13.601	158.353	 23.79186	  0.56529	 19.25762	 14.13008	  4.48573	 -0.86922	 25.91184	710.90997	 30.60	
 13.611	165.583	 23.84853	  0.30542	 19.83706	 12.76778	  5.54941	 -0.83534	 25.91266	710.96997	 30.60	
 13.608	172.853	 23.90184	  0.05873	 20.21579	 11.36935	  6.89811	 -0.81811	 25.91168	710.78998	 30.60	
 15.298	173.587	 23.22582	 -1.40807	 21.16542	 10.87171	  6.27620	 -0.95724	 25.91338	710.91998	 30.60	
 15.291	167.167	 23.20614	 -1.21542	 20.82609	 12.23085	  5.18784	 -1.00311	 25.93098	710.81000	 30.60	
 15.307	160.676	 23.13328	 -0.95419	 20.31227	 13.60165	  3.99254	 -1.04223	 25.91511	710.83002	 30.60	
 15.300	154.261	 23.08983	 -0.56025	 19.62213	 14.92461	  2.91766	 -1.09656	 25.91572	710.87000	 30.60	
 15.288	147.854	 23.02543	 -0.07905	 18.77437	 16.20535	  1.90066	 -1.11388	 25.91160	710.91998	 30.60	
 15.293	141.428	 22.97592	  0.53526	 17.77026	 17.42566	  1.03187	 -1.08946	 25.92139	710.94000	 30.60	
 15.299	134.985	 22.92269	  1.25808	 16.64068	 18.51957	  0.26781	 -1.06345	 25.91057	710.84998	 30.60	
 15.305	128.583	 22.86077	  2.08243	 15.41691	 19.51001	 -0.48678	 -1.07588	 25.91686	710.95001	 30.60	
 15.309	122.142	 22.79996	  3.02823	 14.10685	 20.36228	 -1.14924	 -1.07472	 25.91533	710.95001	 30.60	
 15.304	115.711	 22.74529	  4.09880	 12.71988	 21.06436	 -1.59874	 -1.10747	 25.92074	710.85999	 30.60	
 15.297	109.291	 22.68669	  5.23036	 11.31044	 21.56880	 -1.89415	 -1.12820	 25.91746	710.78998	 30.60	
 15.293	102.897	 22.63978	  6.42069	  9.89979	 21.92117	 -2.10153	 -1.10613	 25.91521	710.89001	 30.60	
 15.293	 96.458	 22.58485	  7.71160	  8.46924	 22.10819	 -2.25312	 -1.05505	 25.90540	710.89001	 30.60	
 15.300	 90.000	 22.54381	  9.02329	  7.09161	 22.13658	 -2.27009	 -1.03205	 25.92906	710.87000	 30.60	
 15.293	 83.542	 22.50422	 10.41602	  5.77581	 21.96786	 -2.18836	 -1.03546	 25.91470	710.83002	 30.60	
 15.293	 77.103	 22.46606	 11.79236	  4.53100	 21.63710	 -2.07901	 -1.05089	 25.91322	710.78003	 30.50	
 15.297	 70.709	 22.43371	 13.16857	  3.34588	 21.14490	 -1.87197	 -1.04894	 25.92127	710.95001	 30.50	
 15.304	 64.289	 22.41405	 14.53732	  2.25766	 20.48557	 -1.52385	 -1.04188	 25.93828	710.94000	 30.50	
 15.309	 57.858	 22.38518	 15.86554	  1.23652	 19.63448	 -1.05908	 -0.99511	 25.91405	710.96997	 30.50	
 15.305	 51.417	 22.38172	 17.12436	  0.36265	 18.65783	 -0.45569	 -0.90943	 25.92841	710.90002	 30.50	
 15.299	 45.015	 22.37441	 18.26503	 -0.44557	 17.58017	  0.38132	 -0.85484	 25.93085	710.85999	 30.50	
 15.293	 38.572	 22.37415	 19.27599	 -1.10008	 16.39311	  1.22129	 -0.82452	 25.92328	710.84998	 30.50	
 15.288	 32.146	 22.38271	 20.18816	 -1.61291	 15.11632	  2.14959	 -0.81469	 25.93296	710.85999	 30.50	
 15.300	 25.739	 22.37521	 20.93956	 -2.03460	 13.77588	  3.16639	 -0.81742	 25.93697	710.89001	 30.50	
 15.307	 19.324	 22.37763	 21.52132	 -2.38465	 12.49396	  4.22480	 -0.82222	 25.92235	710.96997	 30.50	
 15.291	 12.833	 22.39050	 21.92844	 -2.59227	 11.10977	  5.42469	 -0.81506	 25.91109	710.78998	 30.50	
 15.298	  6.413	 22.41242	 22.18868	 -2.68451	  9.71889	  6.57843	 -0.80840	 25.91469	710.83002	 30.50	
 15.300	  0.000	 22.44177	 22.27049	 -2.72967	  8.35784	  7.90796	 -0.79503	 25.92277	710.85999	 30.50	
 15.298	 -6.413	 22.47820	 22.17164	 -2.61912	  6.96465	  9.33838	 -0.79687	 25.91757	710.81000	 30.50	
 15.291	-12.833	 22.51086	 21.91026	 -2.44900	  5.72722	 10.75389	 -0.81244	 25.91908	710.87000	 30.50	
 15.307	-19.324	 22.54234	 21.47857	 -2.16847	  4.65371	 12.10207	 -0.83321	 25.90539	710.90002	 30.50	
 15.300	-25.739	 22.58987	 20.87584	 -1.76678	  3.59469	 13.47843	 -0.84308	 25.91267	710.76001	 30.50	
 15.288	-32.146	 22.66940	 20.09981	 -1.19686	  2.64983	 14.83448	 -0.82626	 25.91396	710.84003	 30.50	
 15.293	-38.572	 22.74034	 19.18455	 -0.57073	  1.81164	 16.09604	 -0.81140	 25.92173	710.82001	 30.50	
 15.299	-45.015	 22.80453	 18.13906	  0.16177	  1.06819	 17.27824	 -0.78395	 25.91718	710.81000	 30.50	
 15.305	-51.417	 22.85169	 16.97966	  1.01037	  0.41298	 18.34012	 -0.75303	 25.91427	710.78003	 30.50	
 15.309	-57.858	 22.88329	 15.72512	  1.96683	 -0.17343	 19.26632	 -0.74677	 25.90529	710.89001	 30.50	
 15.304	-64.289	 22.94716	 14.39937	  3.06947	 -0.64164	 20.05615	 -0.72940	 25.91975	710.91998	 30.50	
 15.297	-70.709	 23.00201	 13.04663	  4.24693	 -0.93055	 20.62950	 -0.70619	 25.89953	710.89001	 30.50	
 15.293	-77.103	 23.06750	 11.70958	  5.48671	 -1.17013	 21.05335	 -0.69347	 25.89981	710.91998	 30.50	
 15.293	-83.542	 23.10933	 10.31017	  6.84204	 -1.35289	 21.31224	 -0.67603	 25.91838	710.90997	 30.50	
 15.300	-90.000	 23.13811	  8.94059	  8.21466	 -1.41548	 21.38837	 -0.66223	 25.90567	710.85999	 30.50	
 15.293	-96.458	 23.19902	  7.63244	  9.61824	 -1.32995	 21.29569	 -0.66809	 25.91693	710.85999	 30.50	
 15.293	-102.897	 23.24068	  6.33794	 11.02602	 -1.13154	 21.00228	 -0.65672	 25.91867	710.84003	 30.50	
 15.297	-109.291	 23.25564	  5.15794	 12.42142	 -0.83230	 20.55235	 -0.66462	 25.90551	711.00000	 30.50	
 15.304	-115.711	 23.28298	  4.01720	 13.80493	 -0.26806	 19.95856	 -0.68670	 25.92305	710.79999	 30.50	
 15.309	-122.142	 23.31084	  2.96164	 15.15798	  0.29470	 19.14609	 -0.68587	 25.92561	710.83002	 30.50	
 15.305	-128.583	 23.34291	  2.06103	 16.39798	  0.97086	 18.20364	 -0.70648	 25.92036	710.83002	 30.50	
 15.299	-134.985	 23.36527	  1.22687	 17.54443	  1.69570	 17.12506	 -0.71050	 25.92114	710.98999	 30.50	
 15.293	-141.428	 23.37068	  0.51677	 18.56942	  2.52477	 15.92701	 -0.72601	 25.91850	710.88000	 30.50	
 15.288	-147.854	 23.36168	 -0.10030	 19.45607	  3.44696	 14.66661	 -0.77129	 25.93028	710.91998	 30.50	
 15.300	-154.261	 23.36512	 -0.57459	 20.17789	  4.50476	 13.30590	 -0.81790	 25.92135	710.96997	 30.50	
 15.307	-160.676	 23.36698	 -0.89825	 20.73145	  5.50910	 11.94138	 -0.86972	 25.92800	710.82001	 30.50	
 15.291	-167.167	 23.33331	 -1.22222	 21.10296	  6.80074	 10.54873	 -0.91747	 25.91860	710.85999	 30.50	
 15.298	-173.587	 23.31557	 -1.38887	 21.28884	  8.14266	  9.09035	 -0.93433	 25.91012	710.87000	 30.50	
 15.300	180.000	 23.28931	 -1.44107	 21.32776	  9.52135	  7.66258	 -0.92351	 25.92539	710.94000	 30.50	
 17.000	180.000	 22.52553	 -2.80213	 22.18183	  8.94483	  7.05230	 -0.99235	 25.91747	710.97998	 30.50	
 16.990	-174.179	 22.57387	 -2.79012	 22.18787	  7.57917	  8.50308	 -0.95658	 25.92700	710.95001	 30.40	
 17.009	-168.383	 22.58347	 -2.63367	 22.00176	  6.22095	  9.91329	 -0.92668	 25.90060	710.88000	 30.40	
 17.000	-162.596	 22.61753	 -2.38231	 21.66630	  5.15162	 11.27208	 -0.88612	 25.91039	710.92999	 30.40	
 16.990	-156.759	 22.63974	 -2.06889	 21.17845	  4.01140	 12.66215	 -0.82955	 25.92566	710.95001	 30.40	
 16.995	-150.919	 22.63435	 -1.66009	 20.51580	  2.92311	 14.05472	 -0.75976	 25.92905	710.95001	 30.40	
 16.988	-145.161	 22.65228	 -1.15700	 19.73012	  1.98070	 15.34392	 -0.72481	 25.93205	710.87000	 30.40	
 17.014	-139.343	 22.63103	 -0.56054	 18.79877	  1.07580	 16.60522	 -0.68242	 25.92510	710.84003	 30.40	
 17.007	-133.546	 22.61046	  0.15609	 17.70619	  0.28386	 17.78639	 -0.66550	 25.91702	710.96002	 30.40	
 17.001	-127.699	 22.58270	  0.98839	 16.51866	 -0.66933	 18.85748	 -0.64885	 25.91547	710.92999	 30.40	
 17.006	-121.937	 22.55769	  1.88889	 15.27596	 -1.23642	 19.78514	 -0.63211	 25.91330	710.96997	 30.40	
 17.002	-116.134	 22.54738	  2.92110	 13.93325	 -1.66805	 20.58462	 -0.61509	 25.91213	710.96002	 30.40	
 17.001	-110.310	 22.51648	  4.02525	 12.53660	 -2.03006	 21.24358	 -0.60694	 25.90906	711.03003	 30.40	
 16.988	-104.517	 22.50056	  5.17054	 11.14149	 -2.30984	 21.72672	 -0.59748	 25.92933	711.01001	 30.40	
 17.008	-98.662	 22.44373	  6.36901	  9.70750	 -2.52868	 22.07440	 -0.59306	 25.91289	710.96997	 30.40	
 16.996	-92.909	 22.39542	  7.63339	  8.32797	 -2.65032	 22.23696	 -0.58253	 25.90974	710.90002	 30.40	
 16.996	-87.091	 22.35701	  8.97585	  6.99129	 -2.67353	 22.25751	 -0.59625	 25.92178	710.94000	 30.40	
 17.012	-81.253	 22.30826	 10.34083	  5.61212	 -2.63071	 22.12270	 -0.61231	 25.93256	711.00000	 30.40	
 16.988	-75.483	 22.27475	 11.71064	  4.35368	 -2.42089	 21.79144	 -0.64046	 25.91913	711.01001	 30.40	
 17.001	-69.690	 22.21812	 13.05229	  3.15439	 -2.30069	 21.33531	 -0.65796	 25.90956	711.06000	 30.40	
 17.002	-63.866	 22.16862	 14.41361	  2.01068	 -2.06332	 20.71119	 -0.68732	 25.93062	711.02002	 30.40	
 17.006	-58.063	 22.11504	 15.73201	  0.94036	 -1.70088	 19.94034	 -0.70610	 25.93419	710.96002	 30.40	
 17.001	-52.301	 22.05218	 16.97380	 -0.00859	 -1.21078	 19.03798	 -0.72887	 25.93841	710.96002	 30.40	
 17.007	-46.454	 21.99538	 18.16638	 -0.86270	 -0.56193	 17.98402	 -0.76575	 25.92348	710.95001	 30.40	
 17.014	-40.657	 21.91157	 19.25579	 -1.62531	  0.23083	 16.79297	 -0.79831	 25.91110	710.94000	 30.40	
 16.988	-34.839	 21.88710	 20.25820	 -2.23904	  1.10778	 15.55477	 -0.85622	 25.93964	710.98999	 30.40	
 16.995	-29.081	 21.81820	 21.08659	 -2.76325	  1.99424	 14.26636	 -0.88957	 25.91364	710.89001	 30.40	
 16.990	-23.241	 21.75616	 21.78563	 -3.17951	  2.99458	 12.90052	 -0.89810	 25.91019	710.95001	 30.40	
 17.000	-17.404	 21.71000	 22.35734	 -3.57163	  4.06120	 11.52134	 -0.92713	 25.92418	710.98999	 30.40	
 17.009	-11.617	 21.65782	 22.74976	 -3.85800	  5.11902	 10.14750	 -0.91622	 25.93268	710.92999	 30.40	
 16.990	 -5.821	 21.64012	 22.97485	 -3.99312	  6.31999	  8.73223	 -0.94405	 25.91899	710.98999	 30.40	
 17.000	  0.000	 21.60423	 23.06053	 -4.05811	  7.61013	  7.32047	 -0.96862	 25.92430	711.03003	 30.40	
 16.990	  5.821	 21.56880	 22.98854	 -4.07761	  9.02049	  6.10034	 -0.99415	 25.92746	711.03998	 30.40	
 17.009	 11.617	 21.53844	 22.77576	 -3.99978	 10.38885	  4.86230	 -1.02154	 25.93003	711.00000	 30.40	
 17.000	 17.404	 21.52966	 22.40043	 -3.80668	 11.77703	  3.66842	 -1.03303	 25.93868	711.03998	 30.40	
 16.990	 23.241	 21.51923	 21.85334	 -3.51809	 13.07539	  2.56820	 -1.05004	 25.92951	711.01001	 30.40	
 16.995	 29.081	 21.50841	 21.16471	 -3.15357	 14.44692	  1.50406	 -1.06440	 25.92449	710.90997	 30.40	
 16.988	 34.839	 21.50748	 20.35195	 -2.67384	 15.74538	  0.43217	 -1.06898	 25.93333	710.94000	 30.40	
 17.014	 40.657	 21.50972	 19.41768	 -2.14652	 16.98099	 -0.38627	 -1.09400	 25.92774	710.85999	 30.40	
 17.007	 46.454	 21.51799	 18.33784	 -1.48931	 18.16426	 -1.11368	 -1.13758	 25.93532	710.90002	 30.30	
 17.001	 52.301	 21.53273	 17.15402	 -0.72333	 19.24287	 -1.75621	 -1.19606	 25.93818	710.90002	 30.30	
 17.006	 58.063	 21.53393	 15.91115	  0.13354	 20.19761	 -2.31989	 -1.27368	 25.93457	710.88000	 30.30	
 17.002	 63.866	 21.56638	 14.58390	  1.11637	 21.03657	 -2.78953	 -1.32388	 25.93332	710.90002	 30.30	
 17.001	 69.690	 21.59368	 13.22237	  2.17929	 21.72786	 -3.12377	 -1.33031	 25.93428	710.95001	 30.30	
 16.988	 75.483	 21.62963	 11.85475	  3.33951	 22.24873	 -3.29320	 -1.31738	 25.91929	710.83002	 30.30	
 17.012	 81.253	 21.66814	 10.49887	  4.51966	 22.64274	 -3.38083	 -1.30779	 25.92452	710.90997	 30.30	
 16.996	 87.091	 21.70956	  9.15371	  5.77847	 22.86920	 -3.43941	 -1.31062	 25.92042	710.89001	 30.30	
 16.996	 92.909	 21.76196	  7.77005	  7.10216	 22.94842	 -3.49705	 -1.32499	 25.93353	710.92999	 30.30	
 17.008	 98.662	 21.78570	  6.48542	  8.47570	 22.85710	 -3.42572	 -1.35390	 25.91812	710.84003	 30.30	
 16.988	104.517	 21.84793	  5.25633	  9.92481	 22.60913	 -3.22603	 -1.38499	 25.91985	710.84998	 30.30	
 17.001	110.310	 21.89325	  4.08355	 11.32363	 22.23979	 -3.02850	 -1.39896	 25.93404	710.82001	 30.30	
 17.002	116.134	 21.94820	  2.98884	 12.72956	 21.70759	 -2.74264	 -1.36708	 25.93614	710.91998	 30.30	
 17.006	121.937	 21.97868	  1.95477	 14.08671	 21.01030	 -2.44039	 -1.32838	 25.92578	710.85999	 30.30	
 17.001	127.699	 22.05098	  1.03217	 15.40556	 20.18010	 -1.97221	 -1.30199	 25.93409	710.87000	 30.30	
 17.007	133.546	 22.10178	  0.18590	 16.66564	 19.19438	 -1.35976	 -1.28431	 25.92213	710.81000	 30.30	
 17.014	139.343	 22.15482	 -0.54795	 17.85077	 18.08910	 -0.61339	 -1.28107	 25.91128	710.84003	 30.30	
 16.988	145.161	 22.23520	 -1.13461	 18.89451	 16.94261	  0.31697	 -1.28834	 25.92495	710.92999	 30.30	
 16.995	150.919	 22.29389	 -1.63003	 19.82303	 15.69825	  1.26498	 -1.28570	 25.93666	710.89001	 30.30	
 16.990	156.759	 22.35048	 -2.05083	 20.60715	 14.37011	  2.31742	 -1.23493	 25.92756	710.84003	 30.30	
 17.000	162.596	 22.39896	 -2.42217	 21.25862	 13.02476	  3.39233	 -1.16453	 25.92898	710.87000	 30.30	
 17.009	168.383	 22.44215	 -2.67743	 21.72535	 11.67910	  4.55428	 -1.09274	 25.92569	710.84003	 30.30	
 16.990	174.179	 22.50248	 -2.79858	 22.04329	 10.31422	  5.78181	 -1.03151	 25.93128	710.89001	 30.30	
 18.709	174.675	 21.65590	 -4.15879	 22.84425	  9.66828	  5.16447	 -1.05598	 25.92301	710.89001	 30.30	
 18.703	169.441	 21.61060	 -4.01028	 22.54330	 11.03862	  3.96598	 -1.14564	 25.92318	710.84003	 30.30	
 18.691	164.085	 21.56461	 -3.76769	 22.08438	 12.38723	  2.79979	 -1.21033	 25.92888	710.79999	 30.30	
 18.706	158.818	 21.50355	 -3.46867	 21.49932	 13.70872	  1.69557	 -1.29390	 25.91394	710.90002	 30.30	
 18.695	153.537	 21.45289	 -3.06511	 20.76658	 15.04426	  0.59552	 -1.36632	 25.92316	710.89001	 30.20	
 18.704	148.255	 21.39802	 -2.63421	 19.89766	 16.34817	 -0.42401	 -1.41270	 25.93418	710.85999	 30.20	
 18.698	142.952	 21.34093	 -2.12487	 18.94387	 17.55147	 -1.25946	 -1.44351	 25.92528	710.75000	 30.30	
 18.699	137.625	 21.27659	 -1.54404	 17.85664	 18.69894	 -2.03885	 -1.44048	 25.92696	710.89001	 30.20	
 18.705	132.343	 21.21856	 -0.85710	 16.67303	 19.76601	 -2.72178	 -1.45737	 25.93246	710.79999	 30.20	
 18.713	127.067	 21.16291	 -0.03465	 15.39728	 20.72170	 -3.25874	 -1.49956	 25.93104	710.78003	 30.30	
 18.700	121.794	 21.11881	  0.87665	 14.08088	 21.52965	 -3.61550	 -1.54266	 25.92035	710.71997	 30.20	
 18.698	116.504	 21.07580	  1.85781	 12.73410	 22.22969	 -3.94056	 -1.59067	 25.91878	710.70001	 30.20	
 18.707	111.165	 21.00149	  2.92739	 11.30922	 22.80618	 -4.25178	 -1.63578	 25.91956	710.75000	 30.20	
 18.690	105.863	 20.95555	  4.06459	  9.87377	 23.21653	 -4.47336	 -1.64337	 25.92129	710.78998	 30.20	
 18.696	100.583	 20.91620	  5.26007	  8.48478	 23.51216	 -4.62683	 -1.64324	 25.93736	710.81000	 30.20	
 18.700	 95.309	 20.85826	  6.52348	  7.08766	 23.63835	 -4.73530	 -1.60446	 25.92793	710.82001	 30.20	
 18.700	 90.000	 20.81756	  7.82095	  5.74674	 23.65406	 -4.75097	 -1.57963	 25.94045	710.83002	 30.20	
 18.700	 84.691	 20.77409	  9.14439	  4.45674	 23.50475	 -4.69405	 -1.56653	 25.92451	710.83002	 30.20	
 18.696	 79.417	 20.72611	 10.48962	  3.23185	 23.21248	 -4.60146	 -1.57345	 25.91548	710.75000	 30.20	
 18.690	 74.137	 20.72147	 11.85126	  2.09549	 22.79541	 -4.46668	 -1.57322	 25.94198	710.89001	 30.20	
 18.707	 68.835	 20.66501	 13.18632	  1.01903	 22.22402	 -4.32314	 -1.57536	 25.92804	710.76001	 30.20	
 18.698	 63.496	 20.64172	 14.55618	 -0.01984	 21.50726	 -3.99824	 -1.55809	 25.92078	710.79999	 30.20	
 18.700	 58.206	 20.62746	 15.88872	 -0.95024	 20.66848	 -3.52613	 -1.51221	 25.92558	710.88000	 30.20	
 18.713	 52.933	 20.59455	 17.14376	 -1.80278	 19.73331	 -3.02375	 -1.45252	 25.92444	710.81000	 30.20	
 18.705	 47.657	 20.59160	 18.32545	 -2.51667	 18.68137	 -2.46783	 -1.38311	 25.93270	710.81000	 30.20	
 18.699	 42.375	 20.58777	 19.42773	 -3.14633	 17.53131	 -1.80702	 -1.33719	 25.92986	710.82001	 30.20	
 18.698	 37.048	 20.57803	 20.42470	 -3.67874	 16.29568	 -1.04784	 -1.31165	 25.91951	710.83002	 30.20	
 18.704	 31.745	 20.55868	 21.28868	 -4.14157	 15.02960	 -0.21401	 -1.29173	 25.91882	710.78003	 30.20	
 18.695	 26.463	 20.56778	 22.03059	 -4.50590	 13.69255	  0.76672	 -1.27968	 25.91211	710.85999	 30.20	
 18.706	 21.182	 20.58225	 22.67583	 -4.86085	 12.36906	  1.81865	 -1.24164	 25.93022	710.78003	 30.20	
 18.691	 15.915	 20.56726	 23.15489	 -5.12646	 10.99353	  3.01284	 -1.19996	 25.91494	710.78998	 30.20	
 18.703	 10.559	 20.57951	 23.51898	 -5.32339	  9.59125	  4.23375	 -1.18400	 25.92292	710.85999	 30.20	
 18.709	  5.325	 20.61588	 23.71085	 -5.37549	  8.17139	  5.44360	 -1.13002	 25.90843	710.88000	 30.20	
 18.700	  0.000	 20.66935	 23.76969	 -5.34395	  6.88509	  6.69141	 -1.07767	 25.91524	710.84998	 30.20	
 18.709	 -5.325	 20.69027	 23.69714	 -5.30662	  5.61905	  8.04915	 -1.03812	 25.90898	710.83002	 30.20	
 18.703	-10.559	 20.72024	 23.48164	 -5.15921	  4.45534	  9.45413	 -0.98404	 25.92152	710.75000	 30.20	
 18.691	-15.915	 20.77948	 23.12138	 -4.89586	  3.35242	 10.86158	 -0.94602	 25.91720	710.84998	 30.20	
 18.706	-21.182	 20.81156	 22.61025	 -4.62299	  2.30408	 12.19681	 -0.92857	 25.91099	710.81000	 30.20	
 18.695	-26.463	 20.87907	 21.96052	 -4.22373	  1.29247	 13.57441	 -0.88483	 25.92423	710.84003	 30.20	
 18.704	-31.745	 20.94890	 21.18429	 -3.72370	  0.29182	 14.90665	 -0.85294	 25.92122	710.82001	 30.20	
 18.698	-37.048	 21.01227	 20.27508	 -3.21110	 -0.51162	 16.18928	 -0.80120	 25.92442	710.91998	 30.20	
 18.699	-42.375	 21.06530	 19.25314	 -2.58920	 -1.24839	 17.42138	 -0.73587	 25.91640	710.88000	 30.20	
 18.705	-47.657	 21.10821	 18.12428	 -1.86231	 -1.97771	 18.55539	 -0.69453	 25.90780	710.76001	 30.20	
 18.713	-52.933	 21.16723	 16.92542	 -1.01911	 -2.49352	 19.57034	 -0.65237	 25.90346	710.89001	 30.20	
 18.700	-58.206	 21.23835	 15.68552	 -0.09306	 -2.89592	 20.47889	 -0.63605	 25.90805	710.82001	 30.20	
 18.698	-63.496	 21.29113	 14.36263	  0.92212	 -3.20313	 21.25738	 -0.59724	 25.91282	710.79999	 30.10	
 18.707	-68.835	 21.34978	 13.00963	  2.02422	 -3.43833	 21.92141	 -0.58983	 25.91059	710.90002	 30.20	
 18.690	-74.137	 21.41046	 11.67391	  3.19027	 -3.59527	 22.40497	 -0.55509	 25.90228	710.84003	 30.10	
 18.696	-79.417	 21.42807	 10.30970	  4.39447	 -3.80078	 22.75681	 -0.53604	 25.90209	710.87000	 30.10	
 18.700	-84.691	 21.48722	  8.96100	  5.69152	 -3.89757	 22.96335	 -0.50785	 25.89773	710.87000	 30.10	
 18.700	-90.000	 21.53758	  7.63536	  7.03543	 -3.91747	 23.03132	 -0.51305	 25.92175	710.84003	 30.10	
 18.700	-95.309	 21.56973	  6.34408	  8.41016	 -3.85353	 22.93591	 -0.51616	 25.90493	710.83002	 30.10	
 18.696	-100.583	 21.62797	  5.12982	  9.82716	 -3.66205	 22.70883	 -0.51135	 25.90459	710.84003	 30.10	
 18.690	-105.863	 21.67339	  3.99698	 11.20777	 -3.46830	 22.33698	 -0.52954	 25.91488	710.75000	 30.10	
 18.707	-111.165	 21.69027	  2.87163	 12.60416	 -3.22965	 21.81514	 -0.53767	 25.91308	710.75000	 30.10	
 18.698	-116.504	 21.71168	  1.79211	 13.99438	 -2.90651	 21.12436	 -0.54094	 25.89413	710.78998	 30.10	
 18.700	-121.794	 21.74406	  0.82797	 15.32426	 -2.47610	 20.31000	 -0.54425	 25.89741	710.85999	 30.10	
 18.713	-127.067	 21.76306	 -0.07998	 16.59404	 -1.95878	 19.39034	 -0.56142	 25.91597	710.87000	 30.10	
 18.705	-132.343	 21.79263	 -0.87928	 17.79360	 -1.31979	 18.35612	 -0.58560	 25.92447	710.94000	 30.10	
 18.699	-137.625	 21.80309	 -1.56487	 18.88315	 -0.56501	 17.18755	 -0.60905	 25.90936	710.88000	 30.10	
 18.698	-142.952	 21.82711	 -2.13503	 19.88082	  0.29141	 15.94726	 -0.64838	 25.92013	710.79999	 30.10	
 18.704	-148.255	 21.82230	 -2.72268	 20.75103	  1.36232	 14.64113	 -0.66285	 25.92386	710.84998	 30.10	
 18.695	-153.537	 21.81585	 -3.15161	 21.48389	  2.34000	 13.30927	 -0.72688	 25.92274	710.83002	 30.10	
 18.706	-158.818	 21.78558	 -3.56052	 22.08482	  3.40282	 11.96735	 -0.78154	 25.90849	710.75000	 30.10	
 18.691	-164.085	 21.78149	 -3.83250	 22.53123	  4.54111	 10.58549	 -0.80541	 25.90843	710.78998	 30.10	
 18.703	-169.441	 21.76205	 -4.00586	 22.83982	  5.68246	  9.17900	 -0.86692	 25.92443	710.82001	 30.10	
 18.709	-174.675	 21.73279	 -4.10865	 22.97939	  6.91959	  7.77270	 -0.92025	 25.91375	710.84998	 30.10	
 18.700	180.000	 21.69309	 -4.20824	 22.98361	  8.28519	  6.42753	 -0.97376	 25.91634	710.76001	 30.10	
 20.400	180.000	 20.78486	 -5.44622	 23.66520	  7.61110	  5.75724	 -0.94434	 25.91300	710.78998	 30.10	
 20.401	-175.153	 20.81381	 -5.37832	 23.66498	  6.31950	  7.05774	 -0.90125	 25.90931	710.82001	 30.10	
 20.407	-170.264	 20.85534	 -5.30782	 23.55700	  5.08976	  8.42672	 -0.83187	 25.92656	710.84003	 30.10	
 20.410	-165.423	 20.88118	 -5.16882	 23.29697	  3.89961	  9.79720	 -0.77691	 25.91510	710.78003	 30.10	
 20.392	-160.496	 20.88819	 -4.95990	 22.88114	  2.80517	 11.24073	 -0.73245	 25.91850	710.82001	 30.10	
 20.401	-155.705	 20.90727	 -4.57481	 22.34880	  1.61196	 12.62747	 -0.70595	 25.92261	710.75000	 30.10	
 20.405	-150.835	 20.89394	 -4.17363	 21.66174	  0.61164	 13.92587	 -0.65848	 25.90150	710.76001	 30.10	
 20.397	-145.903	 20.91203	 -3.71781	 20.85096	 -0.35220	 15.28944	 -0.62415	 25.91850	710.77002	 30.10	
 20.392	-141.062	 20.91380	 -3.17269	 19.93439	 -1.18618	 16.56797	 -0.58959	 25.91867	710.72998	 30.10	
 20.396	-136.227	 20.90253	 -2.56463	 18.91882	 -1.92540	 17.74673	 -0.55504	 25.91771	710.75000	 30.10	
 20.408	-131.372	 20.88434	 -1.89864	 17.81952	 -2.59921	 18.85573	 -0.52766	 25.91912	710.83002	 30.10	
 20.410	-126.511	 20.85369	 -1.13251	 16.59924	 -3.19966	 19.87739	 -0.50124	 25.91575	710.84998	 30.10	
 20.400	-121.604	 20.83126	 -0.25232	 15.31199	 -3.65833	 20.79201	 -0.48926	 25.90208	710.82001	 30.10	
 20.403	-116.741	 20.80676	  0.67117	 13.99498	 -4.05563	 21.60138	 -0.48521	 25.90769	710.84998	 30.10	
 20.413	-111.900	 20.78122	  1.69159	 12.63609	 -4.36816	 22.28543	 -0.48210	 25.90325	710.84003	 30.10	
 20.398	-107.004	 20.77590	  2.79402	 11.23454	 -4.63002	 22.84911	 -0.48523	 25.92036	710.82001	 30.10	
 20.394	-102.132	 20.74540	  3.90900	  9.84454	 -4.87406	 23.26756	 -0.49595	 25.91637	710.76001	 30.10	
 20.403	-97.332	 20.68727	  5.06883	  8.46121	 -5.05498	 23.54698	 -0.48576	 25.92358	710.78003	 30.10	
 20.392	-92.440	 20.65485	  6.29080	  7.10147	 -5.13586	 23.68040	 -0.48200	 25.91636	710.76001	 30.10	
 20.392	-87.560	 20.59581	  7.54476	  5.78514	 -5.18113	 23.69913	 -0.48843	 25.92311	710.78998	 30.10	
 20.403	-82.668	 20.53393	  8.85480	  4.46182	 -5.15487	 23.58801	 -0.50423	 25.91250	710.73999	 30.10	
 20.394	-77.868	 20.51464	 10.22108	  3.21021	 -5.00132	 23.33272	 -0.50586	 25.92673	710.69000	 30.10	
 20.398	-72.996	 20.46113	 11.56399	  2.02408	 -4.84975	 22.95178	 -0.52710	 25.91908	710.83002	 30.10	
 20.413	-68.100	 20.38805	 12.91051	  0.87168	 -4.66367	 22.43237	 -0.53014	 25.92665	710.83002	 30.10	
 20.403	-63.259	 20.32279	 14.23640	 -0.19223	 -4.41249	 21.77191	 -0.56905	 25.92658	710.82001	 30.10	
 20.400	-58.396	 20.27014	 15.54384	 -1.16483	 -4.11552	 20.98792	 -0.58408	 25.91372	710.90997	 30.10	
 20.410	-53.489	 20.21705	 16.80883	 -2.03779	 -3.73362	 20.07957	 -0.60083	 25.91253	710.88000	 30.10	
 20.408	-48.628	 20.15815	 18.03256	 -2.81995	 -3.27243	 19.07331	 -0.62690	 25.92890	710.79999	 30.10	
 20.396	-43.773	 20.09973	 19.13948	 -3.50867	 -2.68710	 17.96124	 -0.66855	 25.90767	710.71002	 30.10	
 20.392	-38.938	 20.04343	 20.17939	 -4.11228	 -2.00452	 16.80070	 -0.72285	 25.91554	710.79999	 30.10	
 20.397	-34.097	 19.98200	 21.12764	 -4.63919	 -1.24511	 15.54685	 -0.76709	 25.91707	710.79999	 30.10	
 20.405	-29.165	 19.90616	 21.97728	 -5.13077	 -0.39995	 14.19135	 -0.82749	 25.90249	710.79999	 30.10	
 20.401	-24.295	 19.84971	 22.71807	 -5.56912	  0.44955	 12.85456	 -0.85611	 25.92154	710.87000	 30.10	
 20.392	-19.504	 19.81312	 23.31822	 -5.88761	  1.41850	 11.54512	 -0.91675	 25.92789	710.84998	 30.10	
 20.410	-14.577	 19.75607	 23.79775	 -6.17944	  2.52240	 10.13447	 -0.96059	 25.92725	710.75000	 30.10	
 20.407	 -9.736	 19.72531	 24.12089	 -6.34939	  3.66705	  8.76102	 -1.02104	 25.91767	710.88000	 30.10	
 20.401	 -4.847	 19.69715	 24.31922	 -6.52780	  4.94566	  7.33254	 -1.05313	 25.91862	710.75000	 30.10	
 20.400	  0.000	 19.66853	 24.37497	 -6.58853	  6.19194	  6.03585	 -1.15374	 25.91357	710.78003	 30.00	
 20.401	  4.847	 19.63646	 24.32856	 -6.58187	  7.44313	  4.76731	 -1.20196	 25.92723	710.83002	 30.00	
 20.407	  9.736	 19.58307	 24.15942	 -6.56824	  8.78320	  3.57897	 -1.25504	 25.92684	710.78998	 30.00	
 20.410	 14.577	 19.56069	 23.85278	 -6.41469	 10.18017	  2.30627	 -1.32419	 25.93232	710.75000	 30.00	
 20.392	 19.504	 19.56355	 23.39015	 -6.22534	 11.56638	  1.19395	 -1.37418	 25.92098	710.76001	 30.00	
 20.401	 24.295	 19.54862	 22.81711	 -5.93412	 12.93350	  0.12242	 -1.41699	 25.92843	710.66998	 30.00	
 20.405	 29.165	 19.54195	 22.11081	 -5.53273	 14.24066	 -0.88233	 -1.48494	 25.92545	710.78998	 30.00	
 20.397	 34.097	 19.56165	 21.28963	 -5.10476	 15.56052	 -1.78228	 -1.52180	 25.93680	710.67999	 30.00	
 20.392	 38.938	 19.56342	 20.35263	 -4.59738	 16.82164	 -2.58686	 -1.55482	 25.92361	710.77002	 30.00	
 20.396	 43.773	 19.56257	 19.32120	 -4.03744	 18.01915	 -3.27359	 -1.59040	 25.92578	710.71002	 30.00	
 20.408	 48.628	 19.56633	 18.20455	 -3.45707	 19.12248	 -3.85016	 -1.62190	 25.91874	710.77002	 30.00	
 20.410	 53.489	 19.58553	 17.02014	 -2.81246	 20.13977	 -4.35114	 -1.66688	 25.92251	710.85999	 30.00	
 20.400	 58.396	 19.59890	 15.74256	 -2.06424	 21.09114	 -4.82704	 -1.71329	 25.92244	710.76001	 30.00	
 20.403	 63.259	 19.59822	 14.41028	 -1.19144	 21.92022	 -5.30487	 -1.74120	 25.91449	710.82001	 30.00	
 20.413	 68.100	 19.61670	 13.04066	 -0.21917	 22.64805	 -5.68120	 -1.75991	 25.91729	710.85999	 30.00	
 20.398	 72.996	 19.65568	 11.70850	  0.82897	 23.22639	 -5.82810	 -1.76396	 25.92077	710.82001	 30.00	
 20.394	 77.868	 19.70726	 10.39159	  1.94105	 23.68747	 -5.88825	 -1.77282	 25.92702	710.78003	 30.00	
 20.403	 82.668	 19.74021	  9.04844	  3.11715	 24.00834	 -5.98794	 -1.77780	 25.91152	710.87000	 30.00	
 20.392	 87.560	 19.78365	  7.72471	  4.36882	 24.20969	 -6.06630	 -1.79382	 25.92067	710.87000	 30.00	
 20.392	 92.440	 19.82174	  6.44336	  5.64651	 24.27081	 -6.07372	 -1.80721	 25.90409	710.87000	 30.00	
 20.403	 97.332	 19.86565	  5.17970	  6.98482	 24.22580	 -6.04901	 -1.81070	 25.91187	710.79999	 30.00	
 20.394	102.132	 19.91322	  4.00740	  8.34366	 24.05252	 -5.94912	 -1.83161	 25.91748	710.89001	 30.00	
 20.398	107.004	 19.95280	  2.82272	  9.73667	 23.74283	 -5.81107	 -1.81137	 25.92406	710.78998	 30.00	
 20.413	111.900	 20.00510	  1.70579	 11.16338	 23.29279	 -5.56042	 -1.79567	 25.92289	710.76001	 30.00	
 20.403	116.741	 20.08033	  0.67908	 12.57607	 22.71992	 -5.23968	 -1.76201	 25.92377	710.81000	 30.00	
 20.400	121.604	 20.14571	 -0.22216	 13.94149	 22.01752	 -4.83760	 -1.71094	 25.92871	710.77002	 30.00	
 20.410	126.511	 20.20704	 -1.07750	 15.28019	 21.20341	 -4.43817	 -1.65073	 25.92636	710.76001	 30.00	
 20.408	131.372	 20.23613	 -1.85850	 16.53347	 20.28621	 -3.99581	 -1.60809	 25.91522	710.83002	 30.00	
 20.396	136.227	 20.29913	 -2.51067	 17.72305	 19.28007	 -3.47921	 -1.56584	 25.91629	710.81000	 30.00	
 20.392	141.062	 20.36734	 -3.07657	 18.85239	 18.17293	 -2.76241	 -1.52587	 25.91957	710.81000	 30.00	
 20.397	145.903	 20.43849	 -3.61174	 19.89618	 16.99823	 -1.98775	 -1.47830	 25.93180	710.82001	 30.00	
 20.405	150.835	 20.47451	 -4.08587	 20.82690	 15.73013	 -1.13342	 -1.40808	 25.92545	710.77002	 30.00	
 20.401	155.705	 20.53084	 -4.50373	 21.60015	 14.41061	 -0.19474	 -1.33601	 25.91539	710.79999	 30.00	
 20.392	160.496	 20.61122	 -4.82569	 22.28527	 13.07631	  0.86403	 -1.26645	 25.91644	710.82001	 30.00	
 20.410	165.423	 20.64751	 -5.13473	 22.85835	 11.69846	  2.08795	 -1.18168	 25.92189	710.81000	 30.00	
 20.407	170.264	 20.71307	 -5.32691	 23.27526	 10.36772	  3.27708	 -1.09248	 25.92127	710.78998	 30.00	
 20.401	175.153	 20.75230	 -5.43599	 23.53771	  8.98388	  4.53192	 -0.99194	 25.91234	710.85999	 30.00	
  0.141	 45.000	 25.97766	 11.95843	 10.39790	 11.88717	 10.52715	  0.65009	 25.92089	710.69000	 30.00	
  4.001	128.691	 25.86810	  9.73691	 12.28169	 14.22392	  8.06783	  0.50338	 25.91746	710.77002	 30.00	
  4.002	 76.995	 25.81508	 12.40447	  9.46502	 14.76148	  7.46504	  0.59594	 25.92603	710.72998	 30.00	
  4.002	 25.892	 25.79725	 14.69746	  7.44028	 12.82181	  9.08576	  0.65400	 25.92246	710.78003	 30.00	
  4.002	-25.892	 25.84589	 14.68396	  7.57941	 10.12302	 11.87617	  0.59037	 25.91953	710.65997	 30.00	
  4.002	-76.995	 25.92584	 12.38577	  9.73398	  8.60821	 13.66666	  0.48192	 25.94148	710.70001	 30.00	
  4.001	-128.691	 25.93399	  9.69290	 12.52631	  9.26657	 12.95267	  0.42796	 25.92088	710.71997	 30.00	
  4.000	180.000	 25.93376	  8.60203	 13.71554	 11.73685	 10.38374	  0.42029	 25.93811	710.79999	 30.00	
  8.000	180.000	 25.49168	  5.17056	 16.70573	 11.30623	  9.77250	 -0.09223	 25.92214	710.85999	 30.00	
  7.991	-152.370	 25.53964	  5.79667	 16.01081	  8.37697	 12.86544	 -0.10587	 25.92522	710.82001	 30.00	
  7.997	-124.550	 25.52889	  7.57469	 13.82786	  6.23698	 15.39828	 -0.12575	 25.92884	710.81000	 30.00	
  8.006	-96.837	 25.48624	 10.32032	 10.76943	  5.20310	 16.77550	 -0.10291	 25.94488	710.84998	 30.00	
  7.988	-69.228	 25.39506	 13.39202	  7.77106	  5.39880	 16.33215	 -0.02965	 25.92997	710.75000	 30.00	
  7.997	-41.563	 25.28017	 16.12310	  5.37366	  6.73466	 14.35604	  0.05559	 25.92972	710.78003	 30.00	
  8.008	-13.821	 25.16507	 17.74665	  3.94247	  9.17739	 11.47075	  0.16595	 25.93304	710.59998	 30.00	
  8.008	 13.821	 25.09255	 17.75944	  3.76174	 12.17963	  8.32298	  0.23722	 25.92970	710.77002	 30.00	
  7.997	 41.563	 25.08530	 16.17052	  4.90670	 15.14926	  5.70923	  0.24555	 25.93313	710.79999	 30.00	
  7.988	 69.228	 25.11216	 13.44293	  7.17757	 17.21479	  4.25624	  0.16885	 25.92448	710.83002	 30.00	
  8.006	 96.837	 25.18574	 10.32744	 10.15507	 17.82841	  3.90977	  0.08959	 25.93982	710.76001	 30.00	
  7.997	124.550	 25.29267	  7.59475	 13.29048	 16.74736	  4.77679	  0.02642	 25.93169	710.72998	 30.00	
  7.991	152.370	 25.41358	  5.78519	 15.69979	 14.31871	  6.85164	 -0.05713	 25.93273	710.71997	 30.00	
 12.009	161.059	 24.41085	  1.87174	 18.63793	 13.67756	  5.64800	 -0.63652	 25.92826	710.75000	 30.00	
 12.013	142.081	 24.27081	  3.04612	 16.73426	 16.62102	  3.33074	 -0.61970	 25.92338	710.72998	 30.00	
 12.006	123.113	 24.12696	  5.08328	 13.92732	 18.92295	  1.58527	 -0.57494	 25.93012	710.71997	 30.00	
 12.007	104.200	 24.01150	  7.75751	 10.68878	 20.18136	  0.64467	 -0.54526	 25.91592	710.70001	 30.00	
 11.989	 85.301	 23.91162	 10.85371	  7.46659	 20.32698	  0.47250	 -0.46177	 25.93420	710.71997	 30.00	
 12.013	 66.294	 23.83559	 14.12858	  4.52432	 19.24702	  1.12440	 -0.46123	 25.92598	710.78998	 30.00	
 12.012	 47.388	 23.80630	 17.05707	  2.22531	 17.16680	  2.50110	 -0.33806	 25.92895	710.75000	 29.90	
 11.990	 28.440	 23.81807	 19.22050	  0.78107	 14.29846	  4.66131	 -0.29469	 25.92864	710.70001	 30.00	
 11.991	  9.464	 23.84728	 20.36847	  0.10137	 11.13703	  7.32571	 -0.31078	 25.92605	710.73999	 30.00	
 11.991	 -9.464	 23.93102	 20.36366	  0.21682	  8.01504	 10.57685	 -0.37057	 25.92053	710.83002	 30.00	
 11.990	-28.440	 24.04369	 19.18723	  1.16490	  5.23427	 13.76463	 -0.47869	 25.92763	710.73999	 30.00	
 12.012	-47.388	 24.15632	 16.98460	  2.80049	  3.27231	 16.61074	 -0.52021	 25.92739	710.65997	 30.00	
 12.013	-66.294	 24.30749	 14.08596	  5.31185	  2.06003	 18.60853	 -0.56502	 25.94542	710.70001	 29.90	
 11.989	-85.301	 24.40086	 10.80041	  8.35429	  1.50388	 19.52284	 -0.57604	 25.92346	710.69000	 29.90	
 12.007	-104.200	 24.47143	  7.71792	 11.59588	  1.81736	 19.21966	 -0.57812	 25.91528	710.69000	 29.90	
 12.006	-123.113	 24.55228	  5.06602	 14.77462	  2.96956	 17.62858	 -0.59867	 25.93323	710.71997	 29.90	
 12.013	-142.081	 24.57920	  3.08134	 17.35840	  4.67781	 15.14196	 -0.58477	 25.92933	710.67999	 29.90	
 12.009	-161.059	 24.56323	  1.84962	 18.96649	  7.36527	 12.02625	 -0.63029	 25.91609	710.81000	 29.90	
 16.000	180.000	 23.01442	 -2.02770	 21.71245	  9.30893	  7.39051	 -0.94698	 25.92537	710.79999	 29.90	
 15.990	-165.604	 23.06290	 -1.71829	 21.38504	  6.13886	 10.73632	 -0.88701	 25.90858	710.66998	 29.90	
 16.002	-151.165	 23.10009	 -0.90357	 20.17962	  3.59328	 13.96566	 -0.75861	 25.93734	710.81000	 29.90	
 16.002	-136.836	 23.09875	  0.49687	 18.08787	  1.46000	 16.92320	 -0.67110	 25.93567	710.78998	 29.90	
 15.995	-122.439	 23.02921	  2.48478	 15.29248	 -0.21260	 19.32651	 -0.64887	 25.90903	710.77002	 29.90	
 15.993	-107.966	 22.99531	  5.04340	 12.09183	 -1.39854	 20.97824	 -0.62005	 25.92486	710.78003	 29.90	
 16.005	-93.629	 22.89269	  7.92208	  8.83135	 -1.90143	 21.71591	 -0.59795	 25.91928	710.66998	 29.90	
 15.992	-79.234	 22.79371	 11.09741	  5.62970	 -1.82934	 21.51708	 -0.63756	 25.92790	710.84998	 29.90	
 16.009	-64.774	 22.66755	 14.28420	  2.77253	 -1.35176	 20.39730	 -0.67976	 25.92175	710.84998	 29.90	
 15.997	-50.364	 22.54652	 17.29338	  0.38095	 -0.05205	 18.38362	 -0.73102	 25.93379	710.76001	 29.90	
 15.997	-36.045	 22.41854	 19.81296	 -1.37073	  1.66068	 15.68412	 -0.81026	 25.93258	710.85999	 29.90	
 16.000	-21.597	 22.27643	 21.61915	 -2.54274	  3.89643	 12.54832	 -0.84196	 25.93421	710.79999	 29.90	
 16.003	 -7.169	 22.17773	 22.52091	 -3.18853	  6.49983	  9.29389	 -0.83081	 25.93374	710.72998	 29.90	
 16.003	  7.169	 22.08209	 22.53304	 -3.29329	  9.67741	  6.18972	 -0.85395	 25.92599	710.70001	 29.90	
 16.000	 21.597	 22.05552	 21.66097	 -2.82678	 12.90078	  3.41198	 -0.88514	 25.94073	710.82001	 29.90	
 15.997	 36.045	 22.03362	 19.89223	 -1.87512	 15.96477	  1.03590	 -0.90517	 25.92354	710.78003	 29.90	
 15.997	 50.364	 22.04628	 17.43984	 -0.27893	 18.68454	 -0.89290	 -0.99302	 25.91785	710.81000	 29.90	
 16.009	 64.774	 22.07047	 14.42702	  1.87553	 20.81793	 -2.15317	 -1.13536	 25.92113	710.78003	 29.90	
 15.992	 79.234	 22.16604	 11.20856	  4.59371	 22.11473	 -2.65988	 -1.12183	 25.92146	710.88000	 29.90	
 16.005	 93.629	 22.25291	  8.02821	  7.61136	 22.51145	 -2.82247	 -1.13388	 25.93387	710.83002	 29.90	
 15.993	107.966	 22.36320	  5.09983	 10.91261	 22.00087	 -2.45928	 -1.20985	 25.93011	710.78998	 29.90	
 15.995	122.439	 22.49178	  2.54187	 14.19395	 20.60750	 -1.71880	 -1.16355	 25.92649	710.84998	 29.90	
 16.002	136.836	 22.63039	  0.50086	 17.15381	 18.40485	 -0.14222	 -1.12723	 25.93184	710.87000	 29.90	
 16.002	151.165	 22.76209	 -0.89580	 19.50965	 15.62326	  1.91351	 -1.15505	 25.92004	710.84003	 29.90	
 15.990	165.604	 22.90001	 -1.74458	 21.06590	 12.49960	  4.48085	 -1.03306	 25.92601	710.72998	 29.90	
 20.003	168.362	 20.91042	 -4.95597	 22.98122	 10.98956	  3.02845	 -1.11090	 25.92225	710.79999	 29.90	
 20.008	156.764	 20.78485	 -4.27035	 21.66402	 14.16625	  0.29689	 -1.32243	 25.93135	710.75000	 29.90	
 20.000	145.147	 20.64898	 -3.24909	 19.65913	 17.17079	 -1.84443	 -1.45590	 25.92324	710.84003	 29.90	
 19.995	133.545	 20.50582	 -1.89472	 17.06913	 19.78989	 -3.49217	 -1.54651	 25.93307	710.75000	 29.90	
 20.009	121.926	 20.38214	 -0.01759	 14.05621	 21.85709	 -4.53521	 -1.67119	 25.91010	710.72998	 29.90	
 20.005	110.327	 20.24426	  2.31587	 10.80928	 23.34881	 -5.34807	 -1.76485	 25.93636	710.75000	 29.90	
 19.989	 98.733	 20.12890	  5.03916	  7.54647	 24.05011	 -5.71268	 -1.76306	 25.91815	710.71002	 29.90	
 19.999	 87.075	 20.02250	  8.01744	  4.43378	 24.06586	 -5.74632	 -1.73125	 25.92040	710.79999	 29.90	
 19.992	 75.457	 19.93478	 11.16410	  1.61050	 23.35164	 -5.53289	 -1.71520	 25.92768	710.73999	 29.90	
 20.009	 63.844	 19.85426	 14.31724	 -0.82721	 21.92788	 -5.06698	 -1.70114	 25.91969	710.75000	 29.90	
 19.989	 52.269	 19.84811	 17.32750	 -2.72420	 19.84288	 -3.92255	 -1.59814	 25.93299	710.65997	 29.90	
 19.999	 40.602	 19.81618	 19.97719	 -4.15334	 17.25018	 -2.57315	 -1.49767	 25.93671	710.73999	 29.90	
 20.004	 29.051	 19.79256	 22.03012	 -5.26014	 14.27588	 -0.59864	 -1.42043	 25.92600	710.64001	 29.90	
 20.005	 17.433	 19.81225	 23.48088	 -6.01611	 11.09599	  1.86776	 -1.32679	 25.93376	710.72998	 29.90	
 20.006	  5.780	 19.87064	 24.18299	 -6.27643	  7.83741	  4.72575	 -1.18505	 25.93131	710.73999	 29.90	
 20.006	 -5.780	 19.95474	 24.17631	 -6.22610	  4.92578	  7.73251	 -1.04001	 25.93195	710.65997	 29.90	
 20.005	-17.433	 20.03790	 23.44014	 -5.73184	  2.13656	 11.00707	 -0.93129	 25.94095	710.75000	 29.90	
 20.004	-29.051	 20.17073	 21.93982	 -4.87971	 -0.09701	 14.16662	 -0.79333	 25.93282	710.67999	 29.90	
 19.999	-40.602	 20.30583	 19.80161	 -3.66986	 -1.93534	 17.15541	 -0.68933	 25.92303	710.62000	 29.90	
 19.989	-52.269	 20.46322	 17.13534	 -1.98580	 -3.32840	 19.73668	 -0.59399	 25.92110	710.73999	 29.90	
 20.009	-63.844	 20.56876	 14.14732	  0.17115	 -4.14589	 21.72993	 -0.54888	 25.91621	710.78003	 29.90	
 19.992	-75.457	 20.74072	 11.01087	  2.83323	 -4.62323	 23.02227	 -0.49600	 25.93780	710.83002	 29.90	
 19.999	-87.075	 20.83510	  7.86098	  5.78531	 -4.88339	 23.54738	 -0.46080	 25.92740	710.82001	 29.90	
 19.989	-98.733	 20.95347	  4.93170	  8.98627	 -4.70544	 23.32508	 -0.47605	 25.92979	710.90997	 29.90	
 20.005	-110.327	 21.01894	  2.28476	 12.23936	 -4.17213	 22.36741	 -0.48311	 25.92078	710.79999	 29.90	
 20.009	-121.926	 21.06434	 -0.07045	 15.41517	 -3.37982	 20.63995	 -0.48382	 25.93213	710.73999	 29.90	
 19.995	-133.545	 21.13237	 -1.93864	 18.27854	 -2.02525	 18.30915	 -0.52530	 25.93044	710.75000	 29.90	
 20.000	-145.147	 21.14438	 -3.34099	 20.62413	 -0.21652	 15.49473	 -0.60250	 25.93106	710.72998	 29.90	
 20.008	-156.764	 21.11252	 -4.44423	 22.35683	  2.19201	 12.36612	 -0.68033	 25.92235	710.70001	 29.90	
 20.003	-168.362	 21.09961	 -4.97388	 23.33501	  4.82719	  9.08897	 -0.80371	 25.93503	710.71997	 29.90	
 20.000	180.000	 21.01561	 -5.16352	 23.53127	  7.79290	  5.90992	 -0.96213	 25.92636	710.73999	 29.90	
