FileType=PCF
NHL=14
Date=03/13/19	11:49:13
Facility=APL
Serial=16071-4
Customer=NASA
NP=6
Mach=0.380000
Calibration=1:1
CalPts=490
TstPts=95
PortNumbering=AP Standard
Units=Torr C m/s kg/m^3 deg mm 
Theta[deg]	Phi[deg]	P1[Torr]	P2[Torr]	P3[Torr]	P4[Torr]	P5[Torr]	P6[Torr]	Pt[Torr]	Ps[Abs,Torr]	Ts[C]	
  0.000	  0.000	 66.82020	 31.31938	 27.64145	 31.30447	 28.37885	  1.41319	 66.71273	711.84003	 43.20	
  1.691	128.401	 66.79546	 28.97313	 29.79247	 33.98833	 25.07733	  1.34017	 66.70480	711.77002	 43.20	
  1.692	 77.194	 66.71841	 31.96172	 26.51690	 34.47261	 24.38374	  1.45184	 66.65369	711.84003	 43.10	
  1.699	 26.182	 66.76880	 34.43951	 24.29329	 32.58038	 26.37882	  1.49634	 66.70648	711.83002	 43.10	
  1.699	-26.182	 66.79195	 34.42128	 24.41710	 29.53490	 29.87373	  1.44288	 66.70814	711.84003	 43.10	
  1.692	-77.194	 66.80439	 31.92438	 26.90896	 27.79633	 31.77095	  1.34825	 66.70132	711.82001	 43.10	
  1.691	-128.401	 66.81630	 28.94003	 30.08282	 28.62279	 31.04861	  1.26537	 66.70123	711.81000	 43.00	
  1.700	180.000	 66.77347	 27.60526	 31.39765	 31.35857	 28.22365	  1.27320	 66.68029	711.65002	 43.00	
  3.400	180.000	 66.74921	 23.97672	 34.93760	 31.26389	 27.85748	  1.01364	 66.68893	711.78998	 43.00	
  3.388	-152.325	 66.74001	 24.67709	 34.18859	 28.00233	 31.19092	  0.99464	 66.68240	711.83002	 42.90	
  3.397	-124.529	 66.76871	 26.73121	 31.91308	 24.91654	 33.89311	  1.00946	 66.69538	711.72998	 42.90	
  3.399	-96.763	 66.73242	 29.91584	 28.50926	 23.52576	 35.18461	  1.08411	 66.66818	711.91998	 42.90	
  3.394	-69.283	 66.68158	 33.32307	 24.99387	 23.76773	 34.77240	  1.17212	 66.65753	711.71997	 42.80	
  3.400	-41.398	 66.62322	 36.30947	 22.17526	 25.61289	 32.78397	  1.30083	 66.65839	711.73999	 42.80	
  3.401	-14.021	 66.54509	 37.98235	 20.62960	 28.88510	 29.75729	  1.40709	 66.65639	711.77002	 42.70	
  3.401	 14.021	 66.47652	 37.96178	 20.51688	 32.19250	 25.93567	  1.47934	 66.65105	711.72998	 42.70	
  3.400	 41.398	 66.46274	 36.32148	 21.78023	 35.22162	 22.85818	  1.46056	 66.65633	711.72998	 42.70	
  3.394	 69.283	 66.43766	 33.37879	 24.32114	 37.27563	 21.06524	  1.41386	 66.62086	711.83002	 42.60	
  3.399	 96.763	 66.53098	 29.97324	 27.67047	 37.90216	 20.67838	  1.31002	 66.65646	711.82001	 42.60	
  3.397	124.529	 66.58091	 26.75696	 31.22654	 36.80740	 21.77678	  1.20078	 66.61623	711.78003	 42.60	
  3.388	152.325	 66.63187	 24.70451	 33.78703	 34.34791	 24.16031	  1.08966	 66.60647	711.84003	 42.50	
  5.099	161.165	 66.40739	 20.79895	 37.42767	 34.24656	 23.50796	  0.73326	 66.64584	711.83002	 42.50	
  5.109	142.013	 66.33845	 22.23373	 35.44974	 37.35244	 20.55938	  0.80596	 66.66344	711.70001	 42.50	
  5.095	123.033	 66.17350	 24.60977	 32.48276	 39.59464	 18.37470	  0.91311	 66.59931	711.83002	 42.40	
  5.105	104.191	 66.09490	 27.70844	 28.88305	 40.92129	 17.05388	  1.01754	 66.61574	711.71997	 42.40	
  5.093	 85.207	 65.99976	 31.23954	 25.29410	 41.00819	 16.82623	  1.13135	 66.61250	711.77002	 42.40	
  5.104	 66.290	 65.94125	 34.73107	 22.07606	 39.97540	 17.60963	  1.22901	 66.63448	711.76001	 42.30	
  5.094	 47.331	 65.91179	 37.80401	 19.36925	 37.83352	 19.38536	  1.29873	 66.62298	711.78998	 42.30	
  5.089	 28.397	 65.89939	 40.05950	 17.55045	 34.88968	 22.05989	  1.33661	 66.59546	711.75000	 42.30	
  5.096	  9.576	 65.95509	 41.23119	 16.72010	 31.57378	 25.40266	  1.31163	 66.61128	711.73999	 42.30	
  5.096	 -9.576	 66.03365	 41.22433	 16.88295	 28.16911	 29.11875	  1.24471	 66.62205	711.78998	 42.20	
  5.089	-28.397	 66.09622	 39.98409	 18.00995	 24.48022	 32.74813	  1.12367	 66.57994	711.78998	 42.20	
  5.094	-47.331	 66.22432	 37.70709	 20.09453	 22.01216	 35.61794	  1.01096	 66.60983	711.78003	 42.20	
  5.104	-66.290	 66.29802	 34.59651	 22.91853	 20.47146	 37.53210	  0.89104	 66.57366	711.79999	 42.20	
  5.093	-85.207	 66.40805	 31.13439	 26.29177	 19.83411	 38.43044	  0.79655	 66.60265	711.89001	 42.10	
  5.105	-104.191	 66.44339	 27.59589	 30.07687	 20.29211	 38.08308	  0.71679	 66.59364	711.90997	 42.10	
  5.095	-123.033	 66.47724	 24.50100	 33.47628	 21.59980	 36.57257	  0.66816	 66.58976	711.82001	 42.10	
  5.109	-142.013	 66.49360	 22.09926	 36.16750	 23.87551	 34.08823	  0.64788	 66.59162	711.84003	 42.10	
  5.099	-161.165	 66.48809	 20.75361	 37.79701	 27.15424	 30.84153	  0.64666	 66.61189	711.76001	 42.00	
  5.100	180.000	 66.43261	 20.22989	 38.24979	 30.89793	 27.04936	  0.68923	 66.58469	711.81000	 42.00	
  6.800	180.000	 65.95849	 16.47828	 41.34555	 30.40809	 26.29024	  0.25480	 66.56903	711.82001	 42.00	
  6.796	-166.229	 66.05182	 16.86392	 41.08049	 26.69460	 30.13303	  0.22929	 66.60961	711.78998	 42.00	
  6.808	-152.311	 66.07251	 17.83383	 39.96909	 23.37427	 33.49965	  0.22214	 66.60078	711.71002	 42.00	
  6.795	-138.383	 66.08828	 19.57545	 37.97456	 20.72776	 36.44999	  0.24380	 66.57951	711.76001	 41.90	
  6.792	-124.591	 66.06245	 21.86092	 35.35923	 18.56514	 38.87563	  0.20483	 66.57577	711.71002	 41.90	
  6.787	-110.754	 66.01142	 24.68865	 32.15545	 17.06050	 40.60176	  0.22887	 66.57792	711.71997	 41.90	
  6.800	-96.985	 65.93288	 27.83410	 28.54967	 16.09531	 41.57771	  0.26067	 66.56384	711.82001	 41.90	
  6.800	-83.015	 65.90207	 31.29997	 25.02170	 15.97609	 41.65119	  0.33953	 66.62434	711.79999	 41.90	
  6.787	-69.246	 65.78748	 34.68197	 21.81776	 16.57311	 40.71579	  0.43381	 66.59030	711.83002	 41.80	
  6.792	-55.409	 65.64649	 37.86085	 18.88580	 17.86925	 38.99818	  0.42941	 66.52943	711.81000	 41.80	
  6.795	-41.617	 65.53071	 40.57556	 16.48155	 19.82796	 36.66508	  0.65864	 66.55114	711.84998	 41.80	
  6.808	-27.689	 65.41387	 42.63607	 14.59078	 22.34157	 33.72799	  0.76915	 66.57098	711.75000	 41.80	
  6.796	-13.771	 65.32452	 43.88081	 13.42829	 25.31913	 30.24968	  0.88357	 66.57898	711.71002	 41.80	
  6.800	  0.000	 65.19834	 44.36915	 12.88112	 28.78440	 26.49340	  0.97998	 66.55064	711.65002	 41.70	
  6.796	 13.771	 65.15795	 43.92307	 13.09449	 32.33431	 23.12149	  1.04148	 66.57517	711.77002	 41.70	
  6.808	 27.689	 65.10561	 42.70511	 13.94244	 35.62890	 19.96345	  1.06729	 66.58462	711.73999	 41.70	
  6.795	 41.617	 65.08930	 40.64290	 15.55477	 38.65471	 17.22343	  0.78216	 66.57321	711.78003	 41.70	
  6.792	 55.409	 65.10616	 37.99039	 17.78611	 41.10276	 15.11647	  0.93445	 66.56496	711.83002	 41.70	
  6.787	 69.246	 65.16877	 34.83328	 20.65283	 42.87029	 13.77694	  0.89364	 66.55698	711.79999	 41.70	
  6.800	 83.015	 65.21352	 31.45183	 23.73618	 43.91040	 13.12452	  0.81104	 66.55994	711.79999	 41.60	
  6.800	 96.985	 65.30679	 27.96851	 27.11527	 44.06894	 12.99361	  0.71660	 66.55978	711.78998	 41.60	
  6.787	110.754	 65.43447	 24.80933	 30.78846	 43.35841	 13.76894	  0.62739	 66.57154	711.82001	 41.60	
  6.792	124.591	 65.53305	 21.97704	 34.13030	 41.92298	 15.15111	  0.54074	 66.56713	711.79999	 41.60	
  6.795	138.383	 65.65913	 19.62885	 36.99208	 39.76772	 17.12588	  0.45125	 66.56165	711.76001	 41.60	
  6.808	152.311	 65.77183	 17.89791	 39.28466	 36.93916	 19.84792	  0.36134	 66.58184	711.82001	 41.60	
  6.796	166.229	 65.89886	 16.87382	 40.74493	 33.72311	 22.91986	  0.31261	 66.58806	711.79999	 41.60	
  8.491	168.704	 65.16399	 12.97584	 43.69310	 33.16605	 21.98636	 -0.18905	 66.58287	711.79999	 41.60	
  8.502	157.493	 65.04980	 13.77930	 42.49424	 36.50928	 18.75762	 -0.13789	 66.57784	711.87000	 41.50	
  8.494	146.194	 64.92715	 15.19882	 40.60786	 39.61494	 15.88037	 -0.09135	 66.56664	711.77002	 41.50	
  8.495	135.039	 64.79694	 17.12474	 38.12450	 42.18738	 13.48653	 -0.34891	 66.55889	711.70001	 41.50	
  8.487	123.723	 64.66978	 19.58759	 35.08085	 44.44940	 12.16620	  0.07249	 66.57764	711.79999	 41.50	
  8.492	112.575	 64.51476	 22.35923	 31.70147	 45.67265	 10.79741	  0.06887	 66.56734	711.79999	 41.50	
  8.510	101.220	 64.39033	 25.51992	 27.94400	 46.67281	  9.98532	  0.06944	 66.56533	711.72998	 41.40	
  8.500	 90.000	 64.28773	 28.85161	 24.51096	 46.90398	  9.72098	  0.31709	 66.55597	711.79999	 41.40	
  8.510	 78.780	 64.17475	 32.33362	 21.16500	 46.25866	  9.98395	  0.02411	 66.53381	711.79999	 41.40	
  8.492	 67.425	 64.15585	 35.84268	 18.03715	 45.24780	 10.99159	  0.08869	 66.56527	711.96002	 41.40	
  8.487	 56.277	 64.11343	 39.00791	 15.29882	 43.32627	 12.41422	  0.17646	 66.55002	711.90997	 41.40	
  8.495	 44.961	 64.09254	 41.78856	 12.97402	 40.89126	 14.17148	  0.26571	 66.55400	711.79999	 41.30	
  8.494	 33.806	 64.08118	 44.06561	 11.12552	 38.02115	 16.04503	  0.30779	 66.57101	711.82001	 41.30	
  8.502	 22.507	 64.06942	 45.84778	  9.81086	 34.74092	 19.01801	  0.27703	 66.54870	711.89001	 41.30	
  8.491	 11.296	 64.11348	 46.91946	  9.14267	 31.31716	 22.27564	  0.46159	 66.51776	711.78003	 41.30	
  8.500	  0.000	 64.24206	 47.35118	  9.05734	 27.60548	 25.64477	  0.58529	 66.57967	711.79999	 41.30	
  8.491	-11.296	 64.28748	 46.86583	  9.43402	 24.22467	 29.30562	  0.39237	 66.52103	711.84003	 41.30	
  8.502	-22.507	 64.44809	 45.80182	 10.44151	 21.18750	 33.07575	  0.19430	 66.57364	711.81000	 41.20	
  8.494	-33.806	 64.54736	 43.93265	 12.09000	 18.48073	 36.25753	 -0.01345	 66.52789	711.73999	 41.20	
  8.495	-44.961	 64.69960	 41.68522	 14.13878	 16.18935	 39.10260	  0.09358	 66.53332	711.71997	 41.20	
  8.487	-56.277	 64.87253	 38.92236	 16.65408	 14.34223	 41.47872	 -0.32920	 66.57583	711.73999	 41.20	
  8.492	-67.425	 64.96389	 35.73466	 19.46541	 13.32298	 43.34395	 -0.09608	 66.57120	711.65997	 41.20	
  8.510	-78.780	 65.04584	 32.22251	 22.66557	 12.50875	 44.45118	 -0.17947	 66.55103	711.76001	 41.20	
  8.500	-90.000	 65.15319	 28.70189	 26.08393	 12.44768	 44.68824	 -0.20954	 66.54807	711.77002	 41.10	
  8.510	-101.220	 65.19577	 25.33095	 29.72178	 12.78132	 44.34108	 -0.27018	 66.52965	711.77002	 41.10	
  8.492	-112.575	 65.28352	 22.13438	 33.37464	 13.79785	 43.22993	 -0.30553	 66.57119	711.71002	 41.10	
  8.487	-123.723	 65.34949	 19.37581	 36.57376	 15.38294	 41.33012	 -0.29093	 66.56280	711.78998	 41.10	
  8.495	-135.039	 65.38984	 16.99814	 39.38978	 17.17436	 38.88177	 -0.55213	 66.55844	711.78998	 41.10	
  8.494	-146.194	 65.39263	 15.08945	 41.61014	 19.71380	 36.03177	 -0.24527	 66.58867	711.78003	 41.10	
  8.502	-157.493	 65.30810	 13.70569	 43.12948	 22.60909	 32.81140	 -0.26689	 66.51842	711.69000	 41.10	
  8.491	-168.704	 65.26193	 12.89961	 44.07521	 25.85456	 29.04225	 -0.24142	 66.51426	711.73999	 41.10	
  8.500	180.000	 65.18861	 12.60355	 44.29518	 29.44908	 25.34053	 -0.22781	 66.50732	711.65997	 41.10	
 10.200	180.000	 64.21503	  8.75375	 47.27269	 28.52891	 24.29041	 -0.77889	 66.50310	711.63000	 41.10	
 10.191	-170.497	 64.32504	  8.99936	 47.12899	 25.05522	 27.95513	 -0.78211	 66.52277	711.70001	 41.00	
 10.210	-161.034	 64.36720	  9.65708	 46.33420	 21.72286	 31.85191	 -1.17283	 66.53172	711.79999	 41.00	
 10.194	-151.526	 64.42314	 10.83938	 44.80614	 18.69819	 35.23021	 -1.19057	 66.52092	711.70001	 41.00	
 10.190	-142.105	 64.44241	 12.45972	 42.83919	 15.90340	 38.37457	 -1.14663	 66.51263	711.67999	 41.00	
 10.215	-132.646	 64.40984	 14.36106	 40.46569	 13.79923	 41.22899	 -1.14124	 66.53079	711.65002	 41.00	
 10.203	-123.092	 64.37045	 16.83918	 37.55554	 11.91891	 43.74209	 -1.19603	 66.53821	711.71002	 41.00	
 10.192	-113.678	 64.32428	 19.67391	 34.31925	 10.61048	 45.49581	 -1.20134	 66.50188	711.72998	 41.00	
 10.208	-104.249	 64.27650	 22.75505	 30.77305	  9.59588	 46.55831	 -1.15335	 66.54264	711.65002	 41.00	
 10.210	-94.801	 64.19495	 26.07243	 27.09310	  9.07910	 47.27406	 -0.78191	 66.52883	711.73999	 40.90	
 10.210	-85.199	 64.11662	 29.58988	 23.62386	  9.03793	 47.25422	 -0.82698	 66.52900	711.77002	 40.90	
 10.208	-75.751	 63.99769	 33.13185	 20.23026	  9.29428	 46.62270	 -0.96154	 66.52976	711.77002	 40.90	
 10.192	-66.322	 63.88207	 36.53494	 17.01608	 10.05320	 45.68475	 -1.06061	 66.53629	711.72998	 40.90	
 10.203	-56.908	 63.76162	 39.72510	 14.09287	 11.17985	 43.94998	 -0.98620	 66.56216	711.82001	 40.90	
 10.215	-47.354	 63.60600	 42.59293	 11.58184	 12.73860	 41.53338	 -0.90415	 66.53158	711.75000	 40.90	
 10.190	-37.895	 63.47992	 45.06405	  9.46990	 14.88660	 38.73166	 -0.81176	 66.55430	711.72998	 40.90	
 10.194	-28.474	 63.31862	 47.18512	  7.70689	 16.89054	 35.58258	 -0.72126	 66.53954	711.81000	 40.90	
 10.210	-18.966	 63.17235	 48.79325	  6.35924	 19.77192	 32.15678	 -0.66599	 66.54220	711.84003	 40.90	
 10.191	 -9.503	 63.05278	 49.73423	  5.62061	 23.04358	 28.28923	 -0.52297	 66.54161	711.76001	 40.80	
 10.200	  0.000	 62.92720	 50.08551	  5.27939	 26.41066	 24.62453	 -0.08892	 66.52641	711.77002	 40.80	
 10.191	  9.503	 62.83724	 49.75210	  5.45258	 29.97663	 21.15460	 -0.34720	 66.50053	711.73999	 40.80	
 10.210	 18.966	 62.76698	 48.83792	  5.97179	 33.77695	 17.81010	 -0.34569	 66.52238	711.77002	 40.80	
 10.194	 28.474	 62.74938	 47.25749	  6.95415	 37.18345	 15.06384	 -0.31560	 66.49485	711.84003	 40.80	
 10.190	 37.895	 62.79802	 45.19721	  8.31947	 40.24844	 12.94767	 -0.29336	 66.52253	711.76001	 40.80	
 10.215	 47.354	 62.75795	 42.71709	 10.16882	 43.07415	 10.70007	 -0.36953	 66.52360	711.73999	 40.80	
 10.203	 56.908	 62.77810	 39.79025	 12.53693	 45.55416	  8.88215	 -0.52277	 66.51506	711.90997	 40.80	
 10.192	 66.322	 62.86931	 36.61337	 15.27148	 47.25890	  7.50767	 -0.60789	 66.54628	711.81000	 40.80	
 10.208	 75.751	 62.90724	 33.17626	 18.32256	 48.68452	  6.47448	 -0.65763	 66.54915	711.78998	 40.80	
 10.210	 85.199	 62.99141	 29.64240	 21.64471	 49.49987	  6.01479	 -0.66120	 66.52975	711.76001	 40.80	
 10.210	 94.801	 63.09471	 26.13080	 25.14872	 49.78599	  5.91268	 -0.26999	 66.53905	711.84003	 40.70	
 10.208	104.249	 63.22723	 22.82267	 28.69184	 49.33827	  6.31605	 -0.86351	 66.54884	711.79999	 40.70	
 10.192	113.678	 63.37275	 19.77846	 32.33092	 48.16519	  7.31723	 -0.88481	 66.55596	711.78998	 40.70	
 10.203	123.092	 63.51509	 17.01421	 35.77021	 46.47293	  8.72872	 -0.92681	 66.54779	711.67999	 40.70	
 10.215	132.646	 63.64749	 14.50835	 38.96260	 44.60861	 10.49892	 -0.96482	 66.54794	711.81000	 40.70	
 10.190	142.105	 63.80664	 12.47509	 41.65749	 41.91290	 12.64023	 -1.05702	 66.55558	711.71002	 40.70	
 10.194	151.526	 63.91794	 10.84382	 43.73539	 39.03443	 14.77495	 -1.13998	 66.53110	711.64001	 40.70	
 10.210	161.034	 64.02601	  9.68870	 45.54657	 35.78758	 17.58593	 -1.15621	 66.51413	711.73999	 40.70	
 10.191	170.497	 64.15629	  9.03007	 46.73843	 32.26534	 20.97538	 -1.11741	 66.52999	711.79999	 40.70	
 11.899	171.783	 62.94839	  5.15905	 49.58341	 31.08232	 19.70246	 -1.70196	 66.54865	711.71997	 40.70	
 11.890	163.610	 62.84224	  5.83892	 48.51473	 34.86310	 16.34187	 -1.74287	 66.53703	711.65002	 40.60	
 11.889	155.445	 62.70238	  6.80239	 46.88409	 38.19679	 13.78298	 -1.76823	 66.51607	711.69000	 40.60	
 11.909	147.299	 62.57872	  8.08601	 44.81499	 41.29303	 11.26564	 -1.73413	 66.54478	711.71997	 40.60	
 11.902	139.148	 62.40036	  9.69930	 42.35783	 44.22207	  8.88895	 -1.63883	 66.51893	711.78003	 40.60	
 11.894	130.867	 62.26726	 11.80009	 39.53754	 46.48484	  6.88724	 -1.58017	 66.50670	711.71002	 40.60	
 11.897	122.732	 62.12748	 14.25837	 36.34229	 48.71195	  5.19484	 -1.57905	 66.52905	711.75000	 40.60	
 11.903	114.597	 61.96828	 17.02343	 32.85096	 50.34943	  3.88815	 -1.60314	 66.51513	711.72998	 40.60	
 11.893	106.346	 61.82408	 20.08763	 29.23015	 51.44362	  2.93082	 -1.55000	 66.49685	711.60999	 40.60	
 11.892	 98.155	 61.73615	 23.36750	 25.68962	 52.16157	  2.30811	 -1.39523	 66.52547	711.71997	 40.60	
 11.900	 90.000	 61.62389	 26.75338	 22.14353	 52.28222	  2.08712	 -1.31135	 66.55854	711.66998	 40.60	
 11.892	 81.845	 61.51609	 30.22730	 18.71349	 51.77884	  2.39174	 -1.27374	 66.52782	711.65997	 40.60	
 11.893	 73.654	 61.47806	 33.82660	 15.47983	 50.81347	  3.10675	 -1.29141	 66.56548	711.67999	 40.60	
 11.903	 65.403	 61.34708	 37.26793	 12.41540	 49.27763	  4.05479	 -1.30615	 66.52131	711.63000	 40.50	
 11.897	 57.268	 61.30471	 40.46276	  9.79078	 47.26139	  5.38887	 -1.19984	 66.53339	711.76001	 40.50	
 11.894	 49.133	 61.26067	 43.41240	  7.60964	 45.19428	  7.04011	 -1.01458	 66.51802	711.76001	 40.50	
 11.902	 40.852	 61.28127	 46.15612	  5.78432	 42.31452	  9.16473	 -0.90895	 66.56274	711.69000	 40.50	
 11.909	 32.701	 61.29666	 48.43557	  4.27659	 39.27624	 11.60982	 -0.91878	 66.56069	711.81000	 40.50	
 11.889	 24.555	 61.30368	 50.22649	  3.12337	 36.03000	 14.23579	 -0.93610	 66.55747	711.75000	 40.50	
 11.890	 16.390	 61.30753	 51.53799	  2.19699	 32.29049	 16.72199	 -0.93544	 66.52431	711.67999	 40.50	
 11.899	  8.217	 61.33369	 52.34335	  1.69749	 28.59172	 20.03589	 -0.92628	 66.49180	711.59998	 40.50	
 11.900	  0.000	 61.46486	 52.64642	  1.60266	 25.18200	 23.48432	 -0.94639	 66.53931	711.79999	 40.50	
 11.899	 -8.217	 61.57678	 52.35780	  2.03236	 21.80053	 27.06446	 -1.03890	 66.54556	711.71002	 40.50	
 11.890	-16.390	 61.70227	 51.48413	  2.88250	 18.57358	 30.85228	 -1.16851	 66.54132	711.59998	 40.50	
 11.889	-24.555	 61.86822	 50.13911	  3.92825	 16.03514	 34.54647	 -1.28849	 66.55443	711.56000	 40.50	
 11.909	-32.701	 61.96212	 48.30672	  5.24479	 13.38879	 37.86365	 -1.36824	 66.51453	711.62000	 40.50	
 11.902	-40.852	 62.15232	 46.05358	  6.91045	 11.16022	 40.97772	 -1.37781	 66.55174	711.56000	 40.50	
 11.894	-49.133	 62.28761	 43.31133	  8.98494	  9.23003	 43.77256	 -1.38204	 66.51443	711.58002	 40.50	
 11.897	-57.268	 62.47655	 40.39273	 11.56253	  7.77944	 46.06315	 -1.44402	 66.55501	711.53003	 40.50	
 11.903	-65.403	 62.56933	 37.17888	 14.36187	  6.54378	 47.60373	 -1.53928	 66.52911	711.70001	 40.40	
 11.893	-73.654	 62.69075	 33.71864	 17.56592	  5.63871	 49.04202	 -1.55565	 66.54447	711.60999	 40.40	
 11.892	-81.845	 62.78649	 30.15304	 20.95522	  5.11879	 49.90539	 -1.53523	 66.50914	711.65002	 40.40	
 11.900	-90.000	 62.87074	 26.68107	 24.43151	  4.99626	 50.23847	 -1.25708	 66.51629	711.48999	 40.40	
 11.892	-98.155	 63.00974	 23.35217	 27.94482	  5.42670	 49.89009	 -1.49928	 66.54271	711.59998	 40.40	
 11.893	-106.346	 63.10802	 20.08657	 31.62479	  6.22380	 48.93554	 -1.53087	 66.57090	711.51001	 40.40	
 11.903	-114.597	 63.15557	 17.03008	 35.18882	  7.35251	 47.47076	 -1.58005	 66.53472	711.57001	 40.40	
 11.897	-122.732	 63.20145	 14.29813	 38.44407	  8.80484	 45.84290	 -1.57838	 66.52486	711.60999	 40.40	
 11.894	-130.867	 63.29673	 11.84034	 41.41164	 10.53685	 43.53650	 -1.53379	 66.56566	711.65002	 40.40	
 11.902	-139.148	 63.26479	  9.69667	 43.92935	 12.54245	 40.58805	 -1.52360	 66.54417	711.63000	 40.40	
 11.909	-147.299	 63.25092	  7.97832	 46.23036	 15.03829	 37.47678	 -1.57134	 66.52441	711.71997	 40.40	
 11.889	-155.445	 63.26429	  6.76474	 48.02339	 17.54878	 34.19851	 -1.66691	 66.54533	711.60999	 40.40	
 11.890	-163.610	 63.19122	  5.77046	 49.26215	 20.66560	 30.52062	 -1.71953	 66.54838	711.53003	 40.40	
 11.899	-171.783	 63.09633	  5.09846	 49.96382	 23.99213	 26.73674	 -1.56815	 66.50093	711.57001	 40.40	
 11.900	180.000	 63.03657	  4.89478	 50.08990	 27.45998	 23.13206	 -1.58120	 66.52311	711.63000	 40.40	
 13.600	180.000	 61.58028	  0.95017	 52.60056	 26.31814	 21.73200	 -2.04069	 66.53858	711.58002	 40.40	
 13.608	-172.853	 61.64046	  1.19036	 52.55801	 22.89532	 25.28018	 -2.03987	 66.52903	711.53998	 40.40	
 13.611	-165.583	 61.70699	  1.84892	 51.95531	 19.47474	 28.98849	 -2.02338	 66.50700	711.56000	 40.30	
 13.601	-158.353	 61.80367	  2.74733	 50.86332	 16.74127	 32.80499	 -1.98254	 66.53039	711.51001	 40.30	
 13.609	-151.210	 61.85562	  3.90204	 49.32899	 13.79152	 36.35162	 -1.86271	 66.53455	711.60999	 40.30	
 13.611	-143.999	 61.81989	  5.23916	 47.25768	 11.27678	 39.58586	 -1.74608	 66.50671	711.62000	 40.30	
 13.601	-136.825	 61.87697	  6.98273	 44.81332	  9.01161	 42.80055	 -1.69336	 66.54000	711.58002	 40.30	
 13.596	-129.640	 61.82978	  9.01730	 42.17335	  6.94776	 45.47744	 -1.69296	 66.53177	711.58002	 40.30	
 13.611	-122.431	 61.77643	 11.49118	 39.14166	  5.22388	 47.57103	 -1.71503	 66.55720	711.59998	 40.30	
 13.604	-115.211	 61.65480	 14.22583	 35.79984	  3.80086	 49.55698	 -1.72271	 66.49281	711.60999	 40.30	
 13.595	-108.042	 61.65753	 17.18341	 32.31207	  2.67749	 51.06818	 -1.67202	 66.55854	711.56000	 40.20	
 13.607	-100.793	 61.55619	 20.33017	 28.61009	  1.82776	 52.08153	 -1.62345	 66.52625	711.53003	 40.20	
 13.601	-93.617	 61.44699	 23.65069	 25.10196	  1.30794	 52.68291	 -1.62732	 66.53672	711.58002	 40.20	
 13.601	-86.383	 61.35596	 27.06866	 21.56205	  1.13624	 52.69407	 -1.63765	 66.56051	711.67999	 40.20	
 13.607	-79.207	 61.23185	 30.54512	 18.12470	  1.42188	 52.24647	 -1.69217	 66.56820	711.63000	 40.20	
 13.595	-71.958	 61.08842	 34.11054	 14.78277	  2.04469	 51.25491	 -1.75583	 66.51398	711.57001	 40.20	
 13.604	-64.789	 61.00947	 37.56406	 11.70587	  2.86189	 49.81834	 -1.78436	 66.55605	711.62000	 40.20	
 13.611	-57.569	 60.85369	 40.81172	  8.86838	  4.00105	 47.82286	 -1.73394	 66.53972	711.64001	 40.20	
 13.596	-50.360	 60.71177	 43.84601	  6.56968	  5.45464	 45.80776	 -1.70469	 66.53922	711.53998	 40.20	
 13.601	-43.175	 60.63155	 46.64632	  4.36954	  7.23111	 43.10939	 -1.72477	 66.58796	711.62000	 40.20	
 13.611	-36.001	 60.44887	 49.08335	  2.40562	  9.37521	 40.14916	 -1.79276	 66.52466	711.60999	 40.20	
 13.609	-28.790	 60.32696	 51.17175	  0.73874	 12.03273	 36.88097	 -1.81552	 66.56103	711.71002	 40.20	
 13.601	-21.647	 60.16828	 52.77776	 -0.53593	 14.55554	 33.19276	 -1.74153	 66.51906	711.64001	 40.20	
 13.611	-14.417	 60.01526	 54.02046	 -1.58908	 17.48826	 29.43309	 -1.63792	 66.53283	711.64001	 40.20	
 13.608	 -7.147	 59.92615	 54.74577	 -2.27525	 20.28465	 25.80878	 -1.56786	 66.53764	711.57001	 40.20	
 13.600	  0.000	 59.85242	 55.00167	 -2.49891	 23.75406	 22.26908	 -1.52171	 66.56482	711.59998	 40.20	
 13.608	  7.147	 59.64178	 54.74500	 -2.57986	 27.12243	 18.80715	 -1.49859	 66.51587	711.54999	 40.20	
 13.611	 14.417	 59.60714	 54.06737	 -2.15098	 30.69833	 15.93094	 -1.54849	 66.55682	711.59003	 40.20	
 13.601	 21.647	 59.60198	 52.87258	 -1.38805	 34.34883	 13.01680	 -1.56287	 66.52590	711.64001	 40.20	
 13.609	 28.790	 59.57387	 51.25056	 -0.33928	 37.90408	 10.27346	 -1.54086	 66.51649	711.66998	 40.20	
 13.611	 36.001	 59.57270	 49.22211	  1.03259	 41.20925	  7.66255	 -1.54801	 66.54567	711.57001	 40.20	
 13.601	 43.175	 59.56402	 46.75758	  2.75196	 44.14566	  5.35972	 -1.57808	 66.54816	711.63000	 40.10	
 13.596	 50.360	 59.56029	 43.99992	  4.87345	 46.96980	  3.46806	 -1.68024	 66.54436	711.70001	 40.10	
 13.611	 57.569	 59.60248	 40.98271	  7.21921	 49.05121	  1.91762	 -1.85636	 66.51152	711.73999	 40.10	
 13.604	 64.789	 59.66973	 37.69525	  9.55713	 51.08300	  0.66652	 -1.96315	 66.50829	711.71002	 40.10	
 13.595	 71.958	 59.73822	 34.27947	 12.43883	 52.64339	 -0.31381	 -1.92300	 66.53449	711.70001	 40.10	
 13.607	 79.207	 59.81987	 30.71571	 15.60785	 53.85141	 -1.06540	 -1.93891	 66.53873	711.70001	 40.10	
 13.601	 86.383	 59.90532	 27.22113	 18.95768	 54.46876	 -1.46195	 -1.93631	 66.53467	711.72998	 40.10	
 13.601	 93.617	 60.04900	 23.78617	 22.44953	 54.64430	 -1.46338	 -1.94543	 66.53886	711.65997	 40.10	
 13.607	100.793	 60.18238	 20.47406	 25.99608	 54.36319	 -1.16455	 -2.07534	 66.54684	711.63000	 40.10	
 13.595	108.042	 60.31686	 17.28216	 29.60784	 53.55729	 -0.47942	 -2.19906	 66.53730	711.65997	 40.10	
 13.604	115.211	 60.48159	 14.33193	 33.19289	 52.41168	  0.44669	 -2.22173	 66.57402	711.71997	 40.10	
 13.611	122.431	 60.61109	 11.54996	 36.72931	 50.70642	  1.69137	 -2.18770	 66.54008	711.65002	 40.10	
 13.596	129.640	 60.74771	  9.11286	 40.01627	 48.56484	  3.20538	 -2.19813	 66.55976	711.69000	 40.10	
 13.601	136.825	 60.82483	  7.02686	 42.88809	 46.29670	  5.05256	 -2.20385	 66.51427	711.66998	 40.10	
 13.611	143.999	 60.98536	  5.26354	 45.54734	 43.40814	  7.31003	 -2.27199	 66.52479	711.70001	 40.10	
 13.609	151.210	 61.14119	  3.82577	 47.90760	 40.35595	  9.86964	 -2.34284	 66.53082	711.65997	 40.10	
 13.601	158.353	 61.22269	  2.64970	 49.77110	 37.13150	 12.52491	 -2.27192	 66.48756	711.73999	 40.00	
 13.611	165.583	 61.38922	  1.73954	 51.25978	 33.55780	 15.41134	 -2.16644	 66.54731	711.62000	 40.00	
 13.608	172.853	 61.49980	  1.19862	 52.17218	 29.72773	 18.33501	 -2.08027	 66.54964	711.76001	 40.00	
 15.298	173.587	 59.92461	 -2.75650	 54.50335	 28.42283	 17.33908	 -2.31870	 66.54888	711.71002	 40.00	
 15.291	167.167	 59.78659	 -2.30274	 53.61267	 32.00471	 14.12912	 -2.47421	 66.53098	711.62000	 40.00	
 15.307	160.676	 59.67496	 -1.58852	 52.38445	 35.78291	 11.16657	 -2.61551	 66.55320	711.66998	 40.00	
 15.300	154.261	 59.54218	 -0.63925	 50.70051	 39.13557	  8.41651	 -2.76378	 66.56751	711.71997	 40.00	
 15.288	147.854	 59.38584	  0.66010	 48.55827	 42.33295	  5.84778	 -2.80949	 66.53648	711.72998	 40.00	
 15.293	141.428	 59.21958	  2.26223	 46.01326	 45.42653	  3.45964	 -2.78502	 66.53558	711.71002	 40.00	
 15.299	134.985	 59.04892	  4.16976	 43.21963	 47.83472	  1.36798	 -2.75442	 66.54813	711.63000	 40.00	
 15.305	128.583	 58.90194	  6.40043	 40.21687	 50.36963	 -0.37041	 -2.77504	 66.53628	711.60999	 40.00	
 15.309	122.142	 58.76988	  8.84915	 36.93494	 52.50356	 -1.83804	 -2.76798	 66.56898	711.58002	 40.00	
 15.304	115.711	 58.61076	 11.51794	 33.36396	 54.16852	 -3.02134	 -2.80476	 66.54532	711.65997	 40.00	
 15.297	109.291	 58.42263	 14.38375	 29.72663	 55.42803	 -3.92007	 -2.85659	 66.52237	711.66998	 40.00	
 15.293	102.897	 58.29517	 17.46277	 26.17108	 56.31111	 -4.56765	 -2.76257	 66.53120	711.62000	 40.00	
 15.293	 96.458	 58.19773	 20.76148	 22.57832	 56.88175	 -4.92138	 -2.66431	 66.58083	711.59998	 39.90	
 15.300	 90.000	 58.02302	 24.04515	 19.12213	 56.90203	 -4.97515	 -2.59526	 66.53959	711.62000	 39.90	
 15.293	 83.542	 57.93444	 27.45352	 15.77463	 56.45801	 -4.91091	 -2.60321	 66.57845	711.58002	 39.90	
 15.293	 77.103	 57.82824	 30.97738	 12.39139	 55.57685	 -4.44153	 -2.57649	 66.55802	711.59003	 39.90	
 15.297	 70.709	 57.76425	 34.47949	  9.60631	 54.35934	 -3.76240	 -2.57288	 66.54994	711.53003	 39.90	
 15.304	 64.289	 57.70038	 37.93928	  6.93760	 52.74207	 -2.80584	 -2.57955	 66.54568	711.59003	 39.90	
 15.309	 57.858	 57.61274	 41.24255	  4.29223	 50.72987	 -1.57352	 -2.48484	 66.54125	711.67999	 39.90	
 15.305	 51.417	 57.57932	 44.31202	  1.92769	 48.49347	 -0.03462	 -2.32738	 66.54742	711.65002	 39.90	
 15.299	 45.015	 57.55644	 47.12782	 -0.10139	 45.85817	  1.71847	 -2.23238	 66.54758	711.64001	 39.90	
 15.293	 38.572	 57.59774	 49.73740	 -1.87799	 42.90813	  3.78615	 -2.17751	 66.57397	711.66998	 39.90	
 15.288	 32.146	 57.56565	 51.96806	 -3.36472	 39.66375	  6.24350	 -2.11939	 66.53861	711.65997	 39.90	
 15.300	 25.739	 57.54562	 53.86696	 -4.62460	 36.07507	  8.88990	 -2.12080	 66.57133	711.64001	 39.90	
 15.307	 19.324	 57.53103	 55.29379	 -5.49645	 32.48806	 11.71107	 -2.11721	 66.52461	711.65002	 39.90	
 15.291	 12.833	 57.58879	 56.33321	 -6.04621	 28.96630	 14.78047	 -2.08417	 66.52213	711.54999	 39.90	
 15.298	  6.413	 57.65759	 56.97728	 -6.30836	 25.47688	 17.80959	 -2.01391	 66.53041	711.63000	 39.90	
 15.300	  0.000	 57.77396	 57.17042	 -6.20722	 22.14367	 20.76184	 -1.99533	 66.51838	711.62000	 39.90	
 15.298	 -6.413	 57.83614	 56.91585	 -6.03644	 19.23743	 24.31112	 -1.97505	 66.48525	711.57001	 39.90	
 15.291	-12.833	 57.97762	 56.27674	 -5.45924	 16.03416	 27.93629	 -1.99117	 66.49428	711.53998	 39.90	
 15.307	-19.324	 58.10218	 55.20326	 -4.59032	 13.28184	 31.51766	 -2.02663	 66.48842	711.51001	 39.90	
 15.300	-25.739	 58.25589	 53.73665	 -3.51507	 10.51289	 35.41891	 -2.02726	 66.51242	711.65002	 39.90	
 15.288	-32.146	 58.41121	 51.83209	 -2.18387	  7.83765	 38.86771	 -1.97699	 66.50755	711.65997	 39.90	
 15.293	-38.572	 58.65035	 49.58850	 -0.53309	  5.56249	 42.02520	 -1.92031	 66.52856	711.59998	 39.90	
 15.299	-45.015	 58.75019	 46.97754	  1.47846	  3.48535	 45.00557	 -1.81846	 66.48473	711.69000	 39.90	
 15.305	-51.417	 58.86287	 44.16202	  3.83073	  1.71528	 47.59035	 -1.73592	 66.51161	711.73999	 39.90	
 15.309	-57.858	 58.94443	 41.02738	  6.33514	  0.32061	 49.67519	 -1.70270	 66.45900	711.52002	 39.90	
 15.304	-64.289	 59.13059	 37.72876	  9.02892	 -0.71982	 51.66952	 -1.72666	 66.50259	711.57001	 39.90	
 15.297	-70.709	 59.27308	 34.33186	 11.90501	 -1.40873	 53.07240	 -1.69325	 66.46902	711.58002	 39.90	
 15.293	-77.103	 59.40531	 30.82330	 15.10733	 -1.97524	 54.12783	 -1.63831	 66.47969	711.64001	 39.90	
 15.293	-83.542	 59.52053	 27.33763	 18.51857	 -2.27340	 54.70286	 -1.55678	 66.45931	711.63000	 39.80	
 15.300	-90.000	 59.64668	 23.93956	 22.00858	 -2.30937	 54.91185	 -1.51995	 66.47931	711.65002	 39.90	
 15.293	-96.458	 59.76237	 20.58041	 25.57011	 -2.02482	 54.67220	 -1.50982	 66.49019	711.53003	 39.80	
 15.293	-102.897	 59.92619	 17.33671	 29.11059	 -1.43118	 53.96635	 -1.53990	 66.48386	711.65997	 39.80	
 15.297	-109.291	 59.98979	 14.30646	 32.68279	 -0.69456	 52.90541	 -1.59643	 66.47009	711.54999	 39.80	
 15.304	-115.711	 60.07151	 11.45049	 36.23567	  0.32141	 51.42064	 -1.60935	 66.50903	711.54999	 39.80	
 15.309	-122.142	 60.10098	  8.76592	 39.60506	  1.63578	 49.39989	 -1.59934	 66.49308	711.57001	 39.80	
 15.305	-128.583	 60.19035	  6.41696	 42.68196	  3.29866	 47.30952	 -1.60601	 66.51070	711.58002	 39.80	
 15.299	-134.985	 60.24107	  4.26917	 45.43725	  5.27590	 44.71040	 -1.61417	 66.51008	711.45001	 39.80	
 15.293	-141.428	 60.19819	  2.44622	 48.02820	  7.59038	 41.47167	 -1.68480	 66.46835	711.40002	 39.80	
 15.288	-147.854	 60.20654	  0.80345	 50.24984	 10.05371	 38.36779	 -1.80303	 66.51917	711.46002	 39.80	
 15.300	-154.261	 60.18958	 -0.54344	 52.03297	 12.70800	 34.93285	 -1.92526	 66.51826	711.56000	 39.80	
 15.307	-160.676	 60.11079	 -1.64063	 53.39450	 15.35811	 31.13719	 -2.03344	 66.50068	711.40002	 39.80	
 15.291	-167.167	 60.08057	 -2.35995	 54.32687	 18.58895	 27.44409	 -2.12564	 66.51399	711.48999	 39.80	
 15.298	-173.587	 59.98674	 -2.77286	 54.83684	 21.59382	 23.80847	 -2.18468	 66.50681	711.46997	 39.80	
 15.300	180.000	 59.95556	 -2.96291	 54.90578	 25.07723	 20.19434	 -2.23564	 66.53063	711.48999	 39.80	
 17.000	180.000	 57.97091	 -6.67315	 57.07379	 23.54375	 18.93153	 -2.30274	 66.49937	711.57001	 39.80	
 16.990	-174.179	 58.05456	 -6.57131	 57.03876	 20.13008	 22.16624	 -2.21879	 66.48215	711.37000	 39.80	
 17.009	-168.383	 58.13176	 -6.31963	 56.64785	 17.13214	 25.81763	 -2.11648	 66.52938	711.40002	 39.80	
 17.000	-162.596	 58.25079	 -5.61525	 55.80030	 14.30952	 29.36510	 -1.99396	 66.54622	711.48999	 39.80	
 16.990	-156.759	 58.26302	 -4.70401	 54.48410	 11.37648	 33.09672	 -1.84574	 66.50626	711.45001	 39.80	
 16.995	-150.919	 58.28817	 -3.55957	 52.86197	  8.54218	 36.82950	 -1.72453	 66.52746	711.44000	 39.80	
 16.988	-145.161	 58.31468	 -2.19704	 50.93163	  6.05703	 40.09563	 -1.63365	 66.50002	711.53003	 39.80	
 17.014	-139.343	 58.28157	 -0.60060	 48.60805	  3.61998	 43.27618	 -1.55752	 66.51612	711.40997	 39.80	
 17.007	-133.546	 58.28689	  1.37787	 45.85725	  1.50678	 46.36788	 -1.48032	 66.50127	711.48999	 39.80	
 17.001	-127.699	 58.24947	  3.66648	 42.97869	 -0.30082	 48.66921	 -1.44521	 66.49825	711.40002	 39.80	
 17.006	-121.937	 58.16505	  5.99460	 39.91654	 -1.78506	 50.99176	 -1.39412	 66.47918	711.41998	 39.80	
 17.002	-116.134	 58.14003	  8.55744	 36.58064	 -3.07842	 52.98632	 -1.39091	 66.53443	711.40002	 39.80	
 17.001	-110.310	 58.06826	 11.33576	 32.94803	 -4.12687	 54.62267	 -1.37190	 66.51776	711.42999	 39.70	
 16.988	-104.517	 58.02632	 14.30349	 29.36675	 -4.91514	 55.82795	 -1.38917	 66.51851	711.48999	 39.80	
 17.008	-98.662	 57.86529	 17.44744	 25.77774	 -5.59130	 56.72561	 -1.34047	 66.52448	711.47998	 39.80	
 16.996	-92.909	 57.75876	 20.70790	 22.25411	 -5.86428	 57.19552	 -1.35609	 66.50837	711.47998	 39.80	
 16.996	-87.091	 57.64897	 24.07790	 18.76342	 -5.86982	 57.17843	 -1.35628	 66.51362	711.40997	 39.80	
 17.012	-81.253	 57.51320	 27.42878	 15.38599	 -5.79930	 56.80885	 -1.40862	 66.50797	711.40002	 39.80	
 16.988	-75.483	 57.44483	 30.83562	 12.17082	 -5.55622	 55.99428	 -1.47717	 66.53700	711.33002	 39.70	
 17.001	-69.690	 57.27925	 34.30172	  9.26796	 -5.10077	 54.83057	 -1.51220	 66.53587	711.46997	 39.70	
 17.002	-63.866	 57.12595	 37.77496	  6.34303	 -4.32975	 53.32874	 -1.53412	 66.54011	711.46002	 39.70	
 17.006	-58.063	 56.91605	 41.07562	  3.56341	 -3.35668	 51.37727	 -1.57830	 66.48711	711.39001	 39.70	
 17.001	-52.301	 56.79644	 44.19341	  1.10549	 -2.08355	 49.10203	 -1.60150	 66.51453	711.37000	 39.70	
 17.007	-46.454	 56.66942	 47.11610	 -1.26323	 -0.45638	 46.79295	 -1.75734	 66.54150	711.48999	 39.70	
 17.014	-40.657	 56.51061	 49.83521	 -3.30660	  1.43679	 43.82681	 -1.85156	 66.52939	711.44000	 39.70	
 16.988	-34.839	 56.36124	 52.21509	 -5.03251	  3.62522	 40.69969	 -1.93654	 66.50989	711.48999	 39.70	
 16.995	-29.081	 56.18474	 54.28403	 -6.46224	  6.08803	 37.41858	 -2.02872	 66.52818	711.50000	 39.70	
 16.990	-23.241	 56.10473	 56.04847	 -7.62057	  8.82447	 33.67777	 -2.12505	 66.56564	711.48999	 39.70	
 17.000	-17.404	 55.94144	 57.40007	 -8.59058	 11.75552	 29.90309	 -2.19803	 66.52839	711.41998	 39.70	
 17.009	-11.617	 55.82257	 58.39267	 -9.35598	 14.65078	 26.36047	 -2.21609	 66.53185	711.50000	 39.70	
 16.990	 -5.821	 55.74109	 58.94282	 -9.76584	 17.60146	 22.64480	 -2.28254	 66.51923	711.51001	 39.70	
 17.000	  0.000	 55.65008	 59.16425	 -9.87202	 20.79847	 19.50113	 -2.37155	 66.53024	711.53003	 39.70	
 16.990	  5.821	 55.47189	 58.93957	-10.07796	 23.46852	 16.57686	 -2.47747	 66.47428	711.46997	 39.70	
 17.009	 11.617	 55.39826	 58.41508	 -9.88693	 27.02973	 13.44012	 -2.58269	 66.50112	711.45001	 39.70	
 17.000	 17.404	 55.35474	 57.48206	 -9.43376	 30.59017	 10.33122	 -2.62532	 66.53154	711.48999	 39.70	
 16.990	 23.241	 55.32205	 56.10109	 -8.70288	 34.11081	  7.41137	 -2.66110	 66.50156	711.50000	 39.70	
 16.995	 29.081	 55.30764	 54.39759	 -7.67677	 37.79105	  4.60316	 -2.69591	 66.51879	711.53003	 39.70	
 16.988	 34.839	 55.29140	 52.35716	 -6.37167	 41.18061	  2.15498	 -2.75283	 66.51076	711.56000	 39.70	
 17.014	 40.657	 55.29577	 49.99637	 -4.81886	 44.26976	  0.00582	 -2.81841	 66.51199	711.51001	 39.70	
 17.007	 46.454	 55.34642	 47.30376	 -2.96216	 47.30339	 -1.88122	 -2.87976	 66.56384	711.45001	 39.70	
 17.001	 52.301	 55.37387	 44.38776	 -0.92093	 49.68385	 -3.54049	 -2.98929	 66.52340	711.52002	 39.70	
 17.006	 58.063	 55.40455	 41.32465	  1.28933	 52.07759	 -4.97925	 -3.14359	 66.51804	711.56000	 39.70	
 17.002	 63.866	 55.48297	 37.98677	  3.87028	 54.13433	 -6.15789	 -3.22045	 66.49937	711.51001	 39.70	
 17.001	 69.690	 55.60250	 34.53082	  6.67869	 55.83024	 -7.10507	 -3.22769	 66.55603	711.50000	 39.70	
 16.988	 75.483	 55.65254	 31.03211	  9.51225	 57.13084	 -7.81641	 -3.20330	 66.51855	711.50000	 39.70	
 17.012	 81.253	 55.71574	 27.53473	 12.45486	 58.18220	 -8.39772	 -3.21733	 66.51891	711.47998	 39.70	
 16.996	 87.091	 55.85548	 24.11277	 15.75614	 58.77477	 -8.50637	 -3.23517	 66.52518	711.58002	 39.70	
 16.996	 92.909	 55.94925	 20.89097	 19.01104	 59.04369	 -8.50311	 -3.33744	 66.50732	711.58002	 39.70	
 17.008	 98.662	 56.05768	 17.66233	 22.44582	 58.78098	 -8.49051	 -3.44033	 66.52557	711.56000	 39.60	
 16.988	104.517	 56.22289	 14.50317	 26.13911	 58.15405	 -7.99577	 -3.48221	 66.54559	711.65002	 39.60	
 17.001	110.310	 56.30204	 11.49701	 29.72597	 57.14470	 -7.40065	 -3.46514	 66.49892	711.45001	 39.60	
 17.002	116.134	 56.45816	  8.63124	 33.29240	 55.70470	 -6.53831	 -3.35745	 66.50743	711.57001	 39.60	
 17.006	121.937	 56.61733	  5.95702	 36.88612	 54.03142	 -5.39213	 -3.28601	 66.53806	711.57001	 39.60	
 17.001	127.699	 56.75410	  3.56551	 40.20047	 51.98593	 -3.97952	 -3.23535	 66.50812	711.50000	 39.60	
 17.007	133.546	 56.92760	  1.31649	 43.36551	 49.52350	 -2.30488	 -3.20913	 66.54420	711.53998	 39.60	
 17.014	139.343	 57.04902	 -0.64829	 46.24102	 47.08746	 -0.43042	 -3.18675	 66.53197	711.42999	 39.60	
 16.988	145.161	 57.19387	 -2.29486	 48.88030	 44.06205	  1.75930	 -3.20238	 66.49366	711.53003	 39.60	
 16.995	150.919	 57.39162	 -3.67496	 51.20346	 40.99882	  4.19820	 -3.12920	 66.53551	711.59003	 39.60	
 16.990	156.759	 57.55544	 -4.72286	 53.14120	 37.64072	  6.87988	 -2.97556	 66.54440	711.50000	 39.60	
 17.000	162.596	 57.67726	 -5.61021	 54.68517	 33.99955	  9.68511	 -2.77292	 66.52505	711.60999	 39.60	
 17.009	168.383	 57.81100	 -6.28243	 55.90374	 30.36625	 12.68833	 -2.62184	 66.52639	711.65002	 39.60	
 16.990	174.179	 57.94727	 -6.62208	 56.70168	 26.90624	 15.81526	 -2.46598	 66.53445	711.57001	 39.60	
 18.709	174.675	 55.71675	-10.54613	 58.73606	 24.99338	 14.33778	 -2.36686	 66.52763	711.52002	 39.60	
 18.703	169.441	 55.64070	-10.26043	 57.99344	 28.52933	 11.17835	 -2.58203	 66.51385	711.41998	 39.60	
 18.691	164.085	 55.53907	 -9.64465	 56.84390	 32.13652	  8.09697	 -2.81246	 66.53381	711.53998	 39.60	
 18.706	158.818	 55.40270	 -8.87573	 55.37677	 35.65546	  5.20714	 -2.99646	 66.53554	711.53003	 39.60	
 18.695	153.537	 55.27718	 -7.85314	 53.56977	 39.28162	  2.52525	 -3.19531	 66.51071	711.56000	 39.60	
 18.704	148.255	 55.13173	 -6.61386	 51.44584	 42.57550	  0.02812	 -3.34833	 66.52891	711.54999	 39.60	
 18.698	142.952	 54.97625	 -5.12256	 48.98829	 45.56370	 -2.20982	 -3.42040	 66.51820	711.50000	 39.60	
 18.699	137.625	 54.85962	 -3.43485	 46.23502	 48.51024	 -4.13778	 -3.53301	 66.54774	711.54999	 39.60	
 18.705	132.343	 54.68937	 -1.50317	 43.28311	 50.99770	 -5.92246	 -3.60533	 66.54868	711.47998	 39.60	
 18.713	127.067	 54.53460	  0.66566	 40.10731	 53.37350	 -7.47164	 -3.67610	 66.53836	711.57001	 39.60	
 18.700	121.794	 54.43826	  3.06976	 36.74641	 55.31470	 -8.72560	 -3.75540	 66.55697	711.56000	 39.60	
 18.698	116.504	 54.27664	  5.63923	 33.20937	 57.07575	 -9.83752	 -3.90067	 66.53516	711.56000	 39.60	
 18.707	111.165	 54.08894	  8.43954	 29.57839	 58.61254	-10.80242	 -4.01542	 66.54124	711.47998	 39.60	
 18.690	105.863	 53.94426	 11.44227	 25.90607	 59.79343	-11.56824	 -4.13004	 66.54839	711.42999	 39.60	
 18.696	100.583	 53.83188	 14.51004	 22.26240	 60.47762	-12.04299	 -4.12898	 66.55099	711.48999	 39.60	
 18.700	 95.309	 53.72201	 17.72235	 18.62677	 60.83419	-12.27142	 -4.11561	 66.56102	711.48999	 39.60	
 18.700	 90.000	 53.64075	 20.83768	 15.38877	 60.80911	-12.09466	 -3.99245	 66.58450	711.56000	 39.60	
 18.700	 84.691	 53.51197	 23.86887	 12.56146	 60.41776	-12.12461	 -3.82085	 66.55693	711.52002	 39.60	
 18.696	 79.417	 53.38560	 27.38513	  9.42878	 59.66778	-11.85614	 -3.82054	 66.55667	711.47998	 39.60	
 18.690	 74.137	 53.31511	 30.85873	  6.47968	 58.59306	-11.27425	 -3.82226	 66.58401	711.56000	 39.60	
 18.707	 68.835	 53.28884	 34.37135	  3.64650	 57.06479	-10.47453	 -3.82405	 66.58234	711.52002	 39.60	
 18.698	 63.496	 53.19619	 37.89702	  0.88946	 55.22969	 -9.52739	 -3.80757	 66.54383	711.57001	 39.60	
 18.700	 58.206	 53.14896	 41.23422	 -1.52897	 53.21592	 -8.37711	 -3.71823	 66.53986	711.53003	 39.60	
 18.713	 52.933	 53.04706	 44.32365	 -3.75210	 50.91606	 -7.07818	 -3.62227	 66.55444	711.58002	 39.60	
 18.705	 47.657	 53.00396	 47.25346	 -5.76589	 48.48419	 -5.46630	 -3.48913	 66.53272	711.58002	 39.50	
 18.699	 42.375	 53.03970	 50.06656	 -7.62171	 45.54212	 -3.64109	 -3.37954	 66.58414	711.58002	 39.50	
 18.698	 37.048	 53.04234	 52.58290	 -9.23783	 42.43088	 -1.57800	 -3.31777	 66.56344	711.53998	 39.50	
 18.704	 31.745	 52.95741	 54.72490	-10.59964	 39.10212	  0.58500	 -3.25311	 66.54917	711.50000	 39.50	
 18.695	 26.463	 53.02249	 56.64162	-11.70628	 35.60255	  3.10952	 -3.16308	 66.58922	711.39001	 39.50	
 18.706	 21.182	 52.99146	 58.22079	-12.68341	 32.06720	  5.84697	 -3.11778	 66.57060	711.39001	 39.50	
 18.691	 15.915	 52.98028	 59.42184	-13.32092	 28.55899	  8.80372	 -3.02407	 66.55735	711.46002	 39.50	
 18.703	 10.559	 53.02008	 60.33119	-13.76676	 24.89580	 11.95224	 -2.92017	 66.56774	711.46002	 39.50	
 18.709	  5.325	 53.11211	 60.82949	-13.89142	 21.47772	 15.17169	 -2.79623	 66.57004	711.34003	 39.50	
 18.700	  0.000	 53.30316	 61.05002	-13.68541	 18.73683	 18.03122	 -2.62282	 66.59047	711.53003	 39.50	
 18.709	 -5.325	 53.36902	 60.84113	-13.61393	 15.96520	 20.93167	 -2.49760	 66.57887	711.46002	 39.50	
 18.703	-10.559	 53.46885	 60.31237	-13.23223	 12.88743	 24.49597	 -2.35762	 66.57825	711.46002	 39.50	
 18.691	-15.915	 53.60721	 59.41018	-12.51562	  9.91886	 28.14727	 -2.21877	 66.58336	711.42999	 39.50	
 18.706	-21.182	 53.74109	 58.13935	-11.64030	  7.03942	 31.78473	 -2.12199	 66.58472	711.40997	 39.50	
 18.695	-26.463	 53.87062	 56.50379	-10.58016	  4.40144	 35.43479	 -2.00355	 66.58074	711.54999	 39.50	
 18.704	-31.745	 54.00183	 54.61529	 -9.30219	  2.05998	 39.01156	 -1.89628	 66.57729	711.48999	 39.50	
 18.698	-37.048	 54.16751	 52.41113	 -7.71710	 -0.24537	 42.32803	 -1.79572	 66.56918	711.46997	 39.50	
 18.699	-42.375	 54.31299	 49.87662	 -5.85505	 -2.31397	 45.44463	 -1.69593	 66.55255	711.35999	 39.50	
 18.705	-47.657	 54.47235	 47.12671	 -3.83190	 -4.04092	 48.19911	 -1.59414	 66.57628	711.42999	 39.50	
 18.713	-52.933	 54.61079	 44.17514	 -1.66674	 -5.53490	 50.55933	 -1.49018	 66.56884	711.63000	 39.50	
 18.700	-58.206	 54.77771	 41.04251	  0.72860	 -6.76892	 52.83693	 -1.43821	 66.57751	711.57001	 39.50	
 18.698	-63.496	 54.90408	 37.66336	  3.44174	 -7.77826	 54.72122	 -1.37609	 66.57102	711.53998	 39.50	
 18.707	-68.835	 55.03357	 34.10429	  6.37575	 -8.65155	 56.36517	 -1.32191	 66.54430	711.38000	 39.50	
 18.690	-74.137	 55.16224	 30.62639	  9.39565	 -9.24635	 57.70441	 -1.27848	 66.54488	711.37000	 39.50	
 18.696	-79.417	 55.31021	 27.16168	 12.43648	 -9.60932	 58.67290	 -1.24669	 66.59866	711.42999	 39.50	
 18.700	-84.691	 55.42748	 23.75705	 15.65087	 -9.60910	 59.22077	 -1.21562	 66.57305	711.46997	 39.50	
 18.700	-90.000	 55.52701	 20.69611	 18.80204	 -9.54736	 59.39598	 -1.22809	 66.55038	711.46002	 39.50	
 18.700	-95.309	 55.66315	 17.46176	 22.26336	 -9.48250	 59.20118	 -1.23210	 66.56792	711.47998	 39.50	
 18.696	-100.583	 55.74730	 14.24826	 25.87077	 -9.09153	 58.49239	 -1.22093	 66.52905	711.48999	 39.50	
 18.690	-105.863	 55.92178	 11.30712	 29.45420	 -8.41101	 57.52443	 -1.21894	 66.56164	711.64001	 39.50	
 18.707	-111.165	 55.96523	  8.37305	 33.00201	 -7.59278	 56.18351	 -1.22138	 66.55968	711.48999	 39.50	
 18.698	-116.504	 56.01183	  5.60451	 36.64185	 -6.50811	 54.41466	 -1.24221	 66.52829	711.53003	 39.50	
 18.700	-121.794	 56.11991	  3.13755	 40.04970	 -5.20786	 52.51115	 -1.26215	 66.56075	711.51001	 39.50	
 18.713	-127.067	 56.19217	  0.85875	 43.19559	 -3.71701	 50.15453	 -1.30652	 66.56056	711.47998	 39.50	
 18.705	-132.343	 56.26091	 -1.27292	 46.09971	 -2.06022	 47.86767	 -1.35845	 66.58196	711.48999	 39.50	
 18.699	-137.625	 56.26801	 -3.20296	 48.90640	 -0.13744	 45.07574	 -1.41100	 66.57686	711.50000	 39.50	
 18.698	-142.952	 56.24244	 -5.00180	 51.41007	  2.04068	 41.73973	 -1.42982	 66.57144	711.38000	 39.50	
 18.704	-148.255	 56.21827	 -6.59558	 53.50871	  4.39904	 38.40842	 -1.49429	 66.56218	711.51001	 39.50	
 18.695	-153.537	 56.19372	 -7.82136	 55.28896	  6.99017	 34.85691	 -1.60806	 66.54978	711.54999	 39.50	
 18.706	-158.818	 56.15992	 -8.90282	 56.84529	  9.83209	 31.17945	 -1.74006	 66.57372	711.44000	 39.50	
 18.691	-164.085	 56.10858	 -9.60944	 57.95741	 12.83715	 27.59064	 -1.82193	 66.54906	711.47998	 39.50	
 18.703	-169.441	 55.98936	-10.11898	 58.69346	 15.78140	 23.89697	 -1.99527	 66.52672	711.45001	 39.50	
 18.709	-174.675	 55.92696	-10.44075	 59.23232	 18.80698	 20.21003	 -2.17993	 66.58931	711.46002	 39.50	
 18.700	180.000	 55.86549	-10.37976	 59.09731	 21.90483	 17.27775	 -2.26142	 66.55921	711.57001	 39.50	
 20.400	180.000	 53.60540	-14.09431	 60.85664	 20.36673	 15.29152	 -2.15660	 66.56437	711.53003	 39.50	
 20.401	-175.153	 53.63325	-14.03565	 60.87524	 17.44338	 18.47231	 -1.99248	 66.52605	711.58002	 39.50	
 20.407	-170.264	 53.76329	-13.90807	 60.60110	 14.29848	 22.03422	 -1.81855	 66.58902	711.48999	 39.50	
 20.410	-165.423	 53.84525	-13.51822	 59.90497	 11.28543	 25.44929	 -1.66376	 66.56628	711.46002	 39.50	
 20.392	-160.496	 53.90123	-12.86265	 58.85702	  8.22498	 29.18484	 -1.56591	 66.57216	711.50000	 39.50	
 20.401	-155.705	 53.93333	-11.99001	 57.52838	  5.36598	 32.73442	 -1.45703	 66.58260	711.47998	 39.40	
 20.405	-150.835	 53.96651	-10.76314	 55.82301	  2.81576	 36.22758	 -1.38150	 66.57909	711.46002	 39.40	
 20.397	-145.903	 53.99737	 -9.28607	 53.79111	  0.40704	 39.87181	 -1.34698	 66.57743	711.46997	 39.40	
 20.392	-141.062	 54.01242	 -7.69416	 51.56144	 -1.75440	 43.12804	 -1.29179	 66.58329	711.47998	 39.40	
 20.396	-136.227	 54.01123	 -5.98714	 49.00280	 -3.71879	 46.27779	 -1.28520	 66.55758	711.53998	 39.40	
 20.408	-131.372	 54.00423	 -4.08638	 46.19456	 -5.53123	 49.02732	 -1.24170	 66.57735	711.56000	 39.40	
 20.410	-126.511	 53.89961	 -2.07699	 43.22155	 -7.18910	 51.41459	 -1.18723	 66.54454	711.48999	 39.40	
 20.400	-121.604	 53.84557	  0.17579	 39.99416	 -8.64631	 53.73481	 -1.11499	 66.57462	711.50000	 39.40	
 20.403	-116.741	 53.74084	  2.59458	 36.56459	 -9.94339	 55.69581	 -1.10716	 66.58246	711.51001	 39.40	
 20.413	-111.900	 53.65606	  5.22772	 32.99307	-11.00783	 57.44601	 -1.10721	 66.56107	711.44000	 39.40	
 20.398	-107.004	 53.64727	  8.15386	 29.43053	-11.83372	 58.89454	 -1.07389	 66.60180	711.62000	 39.40	
 20.394	-102.132	 53.51228	 11.13646	 25.82360	-12.53252	 59.99406	 -1.10612	 66.58015	711.53003	 39.40	
 20.403	-97.332	 53.39928	 14.14532	 22.21535	-13.02853	 60.69814	 -1.10239	 66.58302	711.53003	 39.40	
 20.392	-92.440	 53.25023	 17.36713	 18.58956	-13.25124	 61.02973	 -1.13752	 66.57285	711.58002	 39.40	
 20.392	-87.560	 53.15442	 20.15396	 15.60989	-13.26024	 61.04297	 -1.13618	 66.57377	711.46002	 39.40	
 20.403	-82.668	 53.00146	 23.28979	 12.61060	-13.37087	 60.77190	 -1.12947	 66.55237	711.44000	 39.40	
 20.394	-77.868	 52.87560	 26.76482	  9.45442	-13.17326	 60.12716	 -1.14338	 66.56848	711.54999	 39.40	
 20.398	-72.996	 52.74436	 30.24994	  6.34165	-12.77101	 59.09514	 -1.15085	 66.57095	711.57001	 39.40	
 20.413	-68.100	 52.56261	 33.73736	  3.34540	-12.17266	 57.67963	 -1.19860	 66.56915	711.41998	 39.40	
 20.403	-63.259	 52.42739	 37.19668	  0.59636	-11.36780	 56.01114	 -1.20910	 66.58290	711.53998	 39.40	
 20.400	-58.396	 52.28644	 40.55502	 -1.99687	-10.40985	 54.10512	 -1.26803	 66.56171	711.50000	 39.40	
 20.410	-53.489	 52.15179	 43.81754	 -4.41390	 -9.20467	 51.86536	 -1.37131	 66.60474	711.42999	 39.40	
 20.408	-48.628	 52.07526	 46.80854	 -6.56100	 -7.76489	 49.42201	 -1.41139	 66.57209	711.41998	 39.40	
 20.396	-43.773	 51.96209	 49.62683	 -8.48843	 -6.15093	 46.79429	 -1.51856	 66.56708	711.45001	 39.40	
 20.392	-38.938	 51.85213	 52.20503	-10.24442	 -4.24604	 43.80352	 -1.57480	 66.56144	711.46002	 39.40	
 20.397	-34.097	 51.71489	 54.52831	-11.94960	 -2.08800	 40.59743	 -1.67004	 66.54790	711.45001	 39.40	
 20.405	-29.165	 51.59233	 56.66727	-13.43445	  0.17463	 36.93875	 -1.74838	 66.61177	711.42999	 39.40	
 20.401	-24.295	 51.32262	 58.41537	-14.65116	  2.40027	 33.33159	 -1.86321	 66.53157	711.40997	 39.40	
 20.392	-19.504	 51.23973	 59.92465	-15.56056	  5.06041	 29.83568	 -2.00696	 66.57916	711.40997	 39.40	
 20.410	-14.577	 51.08878	 61.18100	-16.46395	  7.86503	 26.10085	 -2.12275	 66.60719	711.35999	 39.40	
 20.407	 -9.736	 50.97815	 61.94222	-17.00438	 10.83168	 22.48544	 -2.27666	 66.57882	711.39001	 39.40	
 20.401	 -4.847	 50.95362	 62.42211	-17.28927	 14.11544	 19.26204	 -2.52810	 66.59328	711.34998	 39.40	
 20.400	  0.000	 50.81379	 62.53385	-17.41894	 17.02866	 16.12630	 -2.75375	 66.55853	711.29999	 39.40	
 20.401	  4.847	 50.72279	 62.41894	-17.57766	 19.46341	 13.56285	 -2.89672	 66.58762	711.40002	 39.40	
 20.407	  9.736	 50.53841	 61.96407	-17.44317	 22.70835	 10.29116	 -3.07223	 66.58514	711.34003	 39.40	
 20.410	 14.577	 50.43834	 61.15454	-17.13529	 26.24132	  7.14904	 -3.15855	 66.54733	711.35999	 39.40	
 20.392	 19.504	 50.57373	 60.05316	-16.52439	 29.89383	  4.16159	 -3.27728	 66.59206	711.33002	 39.30	
 20.401	 24.295	 50.50471	 58.61200	-15.68491	 33.35834	  1.51235	 -3.43906	 66.58543	711.40997	 39.40	
 20.405	 29.165	 50.53377	 56.82728	-14.65718	 36.79837	 -0.99088	 -3.54874	 66.56215	711.39001	 39.30	
 20.397	 34.097	 50.58054	 54.77470	-13.44467	 40.26866	 -3.38183	 -3.66136	 66.56203	711.40002	 39.30	
 20.392	 38.938	 50.56522	 52.44264	-12.09540	 43.55330	 -5.62450	 -3.74917	 66.55437	711.44000	 39.30	
 20.396	 43.773	 50.61877	 49.89825	-10.52705	 46.59230	 -7.63612	 -3.83285	 66.61942	711.35999	 39.30	
 20.408	 48.628	 50.63898	 47.09596	 -8.70912	 49.41922	 -9.39270	 -3.92631	 66.59722	711.46002	 39.30	
 20.410	 53.489	 50.67903	 44.10521	 -6.69466	 51.92640	-10.92818	 -4.05162	 66.57307	711.33002	 39.30	
 20.400	 58.396	 50.71750	 40.88306	 -4.52198	 54.29985	-12.30816	 -4.12690	 66.58595	711.40002	 39.30	
 20.403	 63.259	 50.72546	 37.53019	 -2.21847	 56.31096	-13.49200	 -4.18414	 66.58575	711.34998	 39.30	
 20.413	 68.100	 50.77544	 34.05749	  0.49896	 58.14685	-14.39177	 -4.25370	 66.58160	711.38000	 39.30	
 20.398	 72.996	 50.84861	 30.55879	  3.29083	 59.67666	-15.00903	 -4.24830	 66.58018	711.39001	 39.40	
 20.394	 77.868	 50.90416	 27.08522	  6.14935	 60.85784	-15.46616	 -4.24622	 66.58994	711.40997	 39.40	
 20.403	 82.668	 51.00826	 23.60191	  9.18936	 61.69973	-15.75243	 -4.28792	 66.60367	711.28003	 39.30	
 20.392	 87.560	 51.16148	 20.39184	 12.14980	 62.14893	-15.68571	 -4.45137	 66.59900	711.38000	 39.40	
 20.392	 92.440	 51.28418	 17.60412	 14.83958	 62.37377	-15.74576	 -4.68988	 66.62678	711.35999	 39.30	
 20.403	 97.332	 51.36639	 14.40877	 18.28738	 62.21731	-15.88037	 -4.73688	 66.58750	711.37000	 39.30	
 20.394	102.132	 51.49006	 11.29956	 21.89532	 61.78394	-15.57312	 -4.62493	 66.57590	711.34998	 39.30	
 20.398	107.004	 51.61840	  8.24960	 25.56507	 61.02404	-15.03958	 -4.50054	 66.55061	711.34998	 39.30	
 20.413	111.900	 51.75138	  5.33208	 29.24125	 59.87428	-14.29678	 -4.39266	 66.55424	711.46997	 39.30	
 20.403	116.741	 51.98351	  2.68092	 32.83191	 58.38487	-13.33883	 -4.23058	 66.62154	711.40997	 39.30	
 20.400	121.604	 52.14089	  0.18450	 36.34059	 56.59414	-12.26161	 -4.05694	 66.58150	711.31000	 39.30	
 20.410	126.511	 52.28600	 -2.19112	 39.83561	 54.53168	-10.97267	 -3.91355	 66.59171	711.37000	 39.30	
 20.408	131.372	 52.38851	 -4.32572	 43.04180	 52.21117	 -9.51491	 -3.76756	 66.56390	711.42999	 39.30	
 20.396	136.227	 52.58479	 -6.21009	 46.01289	 49.67282	 -7.88341	 -3.64172	 66.58338	711.40997	 39.30	
 20.392	141.062	 52.60819	 -7.88321	 48.81603	 47.05018	 -6.00988	 -3.53950	 66.57346	711.34003	 39.30	
 20.397	145.903	 52.75082	 -9.40324	 51.43213	 43.95507	 -3.94703	 -3.38792	 66.56435	711.38000	 39.30	
 20.405	150.835	 52.86507	-10.77747	 53.78542	 40.71653	 -1.68520	 -3.23738	 66.58055	711.40002	 39.30	
 20.401	155.705	 53.02912	-11.96613	 55.82217	 37.11036	  0.77546	 -3.05400	 66.63297	711.34003	 39.30	
 20.392	160.496	 53.18243	-12.77794	 57.42973	 33.67771	  3.61659	 -2.83306	 66.58985	711.41998	 39.30	
 20.410	165.423	 53.26431	-13.56383	 58.81892	 30.16270	  6.47801	 -2.63536	 66.54782	711.50000	 39.30	
 20.407	170.264	 53.38547	-14.07209	 59.85777	 26.60390	  9.51159	 -2.44449	 66.57175	711.35999	 39.30	
 20.401	175.153	 53.50476	-14.22642	 60.55937	 23.01031	 12.70256	 -2.31658	 66.59737	711.32001	 39.30	
  0.141	 45.000	 66.74360	 31.56760	 27.43858	 31.54715	 28.20988	  1.55560	 66.58071	711.34998	 39.30	
  4.001	128.691	 66.48235	 25.51774	 32.42884	 37.53104	 20.99807	  1.18883	 66.60601	711.40002	 39.30	
  4.002	 76.995	 66.31292	 32.61300	 24.83265	 38.85737	 19.49458	  1.43232	 66.59657	711.39001	 39.30	
  4.002	 25.892	 66.24323	 38.47680	 19.73120	 33.99096	 23.79052	  1.56188	 66.55728	711.41998	 39.30	
  4.002	-25.892	 66.39874	 38.50870	 19.99386	 26.47058	 31.60067	  1.40295	 66.60339	711.50000	 39.30	
  4.002	-76.995	 66.58304	 32.57470	 25.51727	 22.38409	 36.22351	  1.16120	 66.61205	711.41998	 39.30	
  4.001	-128.691	 66.63251	 25.43488	 33.10634	 24.09475	 34.47858	  1.00581	 66.58871	711.33002	 39.30	
  4.000	180.000	 66.61926	 22.73055	 36.14997	 31.17178	 27.45752	  1.02136	 66.61006	711.41998	 39.30	
  8.000	180.000	 65.48779	 13.77546	 43.47549	 29.78464	 25.66234	  0.02294	 66.59535	711.40002	 39.30	
  7.991	-152.370	 65.61388	 15.40641	 41.82352	 21.92528	 34.15030	 -0.01496	 66.58456	711.46002	 39.30	
  7.997	-124.550	 65.62160	 20.07539	 36.44019	 16.24188	 40.57169	 -0.05908	 66.60127	711.39001	 39.30	
  8.006	-96.837	 65.45368	 27.08981	 28.31975	 13.73866	 43.78676	 -0.02084	 66.56934	711.34003	 39.30	
  7.988	-69.228	 65.25848	 35.15180	 20.52800	 14.32759	 42.81357	  0.13979	 66.59173	711.28003	 39.30	
  7.997	-41.563	 65.00555	 41.99727	 14.42274	 17.80911	 37.89200	  0.28928	 66.60817	711.37000	 39.30	
  8.008	-13.821	 64.69316	 45.94904	 10.81460	 24.12266	 30.23466	  0.65474	 66.59521	711.27002	 39.30	
  8.008	 13.821	 64.47324	 45.99149	 10.44536	 32.29309	 22.00921	  0.71047	 66.58220	711.34998	 39.30	
  7.997	 41.563	 64.45235	 42.07901	 13.30642	 39.75481	 15.18575	  0.52994	 66.62672	711.33002	 39.30	
  7.988	 69.228	 64.50587	 35.22005	 19.19880	 44.80273	 11.86789	  0.44203	 66.58817	711.27002	 39.30	
  8.006	 96.837	 64.70042	 27.23427	 26.80543	 46.01086	 10.99044	  0.50641	 66.58877	711.27002	 39.30	
  7.997	124.550	 64.97901	 20.22993	 35.02623	 43.64783	 13.04662	  0.30694	 66.59204	711.29999	 39.30	
  7.991	152.370	 65.28184	 15.48501	 41.08590	 37.73703	 18.18591	  0.13499	 66.59651	711.38000	 39.30	
 12.009	161.059	 62.73302	  5.83950	 48.28636	 35.97157	 15.55996	 -1.74110	 66.57544	711.22998	 39.30	
 12.013	142.081	 62.41581	  8.89498	 43.40361	 43.25587	  9.54245	 -1.69399	 66.57398	711.37000	 39.30	
 12.006	123.113	 62.07945	 14.01473	 36.56491	 48.79004	  5.07210	 -1.58452	 66.56015	711.32001	 39.30	
 12.007	104.200	 61.80367	 20.85869	 28.37220	 51.89708	  2.53681	 -1.48589	 66.60989	711.37000	 39.20	
 11.989	 85.301	 61.55652	 28.75639	 20.15369	 52.22147	  2.10930	 -1.26725	 66.61958	711.27002	 39.20	
 12.013	 66.294	 61.33417	 36.98803	 12.59793	 49.64728	  3.75969	 -1.28238	 66.59606	711.33002	 39.20	
 12.012	 47.388	 61.19054	 44.18650	  7.04934	 44.75041	  7.27001	 -0.98246	 66.58186	711.32001	 39.20	
 11.990	 28.440	 61.24887	 49.61291	  3.45676	 37.67894	 12.88255	 -0.90987	 66.62466	711.21997	 39.20	
 11.991	  9.464	 61.30825	 52.46295	  1.56618	 29.14988	 19.45466	 -0.91947	 66.57214	711.21997	 39.20	
 11.991	 -9.464	 61.56633	 52.45860	  1.99241	 21.22714	 27.65242	 -1.04597	 66.59097	711.40997	 39.20	
 11.990	-28.440	 61.86817	 49.49739	  4.37799	 14.68525	 36.22055	 -1.30581	 66.58818	711.21997	 39.20	
 12.012	-47.388	 62.17286	 44.03088	  8.30445	  9.37653	 43.31680	 -1.36935	 66.54102	711.28998	 39.20	
 12.013	-66.294	 62.51365	 36.86629	 14.56989	  6.20155	 47.99200	 -1.51402	 66.56171	711.29999	 39.20	
 11.989	-85.301	 62.80023	 28.64520	 22.37404	  4.78762	 50.37762	 -1.40031	 66.57579	711.37000	 39.20	
 12.007	-104.200	 63.06999	 20.86260	 30.67164	  5.78695	 49.45077	 -1.49830	 66.62122	711.39001	 39.20	
 12.006	-123.113	 63.16107	 14.02872	 38.68703	  8.68002	 45.92310	 -1.53853	 66.55273	711.26001	 39.20	
 12.013	-142.081	 63.23117	  8.87165	 44.93046	 13.21022	 39.58964	 -1.49999	 66.56400	711.21997	 39.20	
 12.009	-161.059	 63.15149	  5.84708	 49.14499	 19.56570	 31.70951	 -1.71194	 66.56454	711.26001	 39.20	
 16.000	180.000	 59.23400	 -4.48138	 55.85590	 24.53011	 19.53620	 -2.26938	 66.58414	711.28998	 39.20	
 15.990	-165.604	 59.43036	 -3.75059	 55.08598	 17.00477	 28.07125	 -2.09121	 66.58840	711.27002	 39.20	
 16.002	-151.165	 59.49168	 -1.44540	 52.00713	 10.28881	 36.72708	 -1.81523	 66.56142	711.17999	 39.20	
 16.002	-136.836	 59.56129	  2.30350	 46.79131	  4.63490	 44.33745	 -1.56722	 66.57482	711.15997	 39.20	
 15.995	-122.439	 59.44217	  7.54421	 39.97966	  0.34205	 50.01698	 -1.53669	 66.55502	711.15002	 39.20	
 15.993	-107.966	 59.32642	 13.98837	 31.79765	 -2.30273	 54.08287	 -1.52133	 66.58294	711.15997	 39.20	
 16.005	-93.629	 59.00407	 21.38524	 23.49354	 -3.68812	 55.81440	 -1.44270	 66.56429	711.21002	 39.20	
 15.992	-79.234	 58.74503	 29.31261	 15.44184	 -3.61719	 55.34956	 -1.50562	 66.57763	711.21997	 39.20	
 16.009	-64.774	 58.38833	 37.45789	  8.26306	 -2.33253	 52.61093	 -1.62191	 66.58177	711.21997	 39.20	
 15.997	-50.364	 58.06463	 44.94522	  2.14211	  0.49421	 47.82560	 -1.72091	 66.59843	711.10999	 39.30	
 15.997	-36.045	 57.70686	 51.09442	 -2.65722	  5.03531	 41.13459	 -1.96023	 66.56965	711.14001	 39.20	
 16.000	-21.597	 57.36646	 55.52524	 -5.73349	 11.23738	 32.86996	 -2.08284	 66.58369	711.19000	 39.20	
 16.003	 -7.169	 57.11186	 57.83670	 -7.53129	 18.00104	 24.30269	 -2.09159	 66.61966	711.04999	 39.20	
 16.003	  7.169	 56.78870	 57.84267	 -7.91358	 25.29861	 16.82708	 -2.21608	 66.59061	711.13000	 39.20	
 16.000	 21.597	 56.68470	 55.61595	 -6.75897	 33.58299	  9.71123	 -2.32475	 66.58442	711.19000	 39.20	
 15.997	 36.045	 56.68752	 51.21114	 -3.98386	 41.83356	  3.44019	 -2.39735	 66.59068	711.21002	 39.20	
 15.997	 50.364	 56.72050	 45.05360	  0.25155	 48.56110	 -1.06298	 -2.57080	 66.57389	711.17999	 39.20	
 16.009	 64.774	 56.83260	 37.60883	  5.97470	 53.58780	 -4.33008	 -2.85156	 66.58965	711.21002	 39.20	
 15.992	 79.234	 57.01919	 29.40931	 12.58906	 56.75840	 -6.08530	 -2.84688	 66.56583	711.23999	 39.20	
 16.005	 93.629	 57.27474	 21.52766	 20.42805	 57.86816	 -6.37830	 -2.90622	 66.56793	711.21997	 39.20	
 15.993	107.966	 57.53295	 14.08155	 28.72015	 56.50691	 -5.56751	 -3.12358	 66.57236	711.20001	 39.20	
 15.995	122.439	 57.90145	  7.52842	 37.16643	 53.05026	 -3.20302	 -2.96623	 66.55141	711.19000	 39.20	
 16.002	136.836	 58.24545	  2.18897	 44.48990	 47.78025	  0.61354	 -2.92464	 66.57475	711.19000	 39.20	
 16.002	151.165	 58.63269	 -1.61533	 50.40416	 40.80349	  5.94501	 -2.93760	 66.55740	711.21002	 39.20	
 15.990	165.604	 59.03009	 -3.69313	 54.22734	 32.65085	 12.51110	 -2.57710	 66.57455	711.16998	 39.20	
 20.003	168.362	 53.93734	-12.99159	 59.13770	 28.35912	  8.84975	 -2.53224	 66.58495	711.15997	 39.20	
 20.008	156.764	 53.58162	-11.28544	 55.80052	 36.54174	  2.08433	 -3.02573	 66.54890	711.23999	 39.20	
 20.000	145.147	 53.28201	 -8.37368	 50.85056	 44.44538	 -3.55408	 -3.42440	 66.56685	711.19000	 39.20	
 19.995	133.545	 52.88182	 -4.43769	 44.27937	 50.92003	 -8.02985	 -3.68528	 66.54707	711.17999	 39.20	
 20.009	121.926	 52.56538	  0.63479	 36.68015	 56.18329	-11.37473	 -4.00807	 66.57984	711.20001	 39.20	
 20.005	110.327	 52.12773	  6.87923	 28.29693	 59.96075	-13.70089	 -4.30261	 66.53925	711.21002	 39.20	
 19.989	 98.733	 51.83660	 13.99320	 19.73122	 61.75510	-14.94989	 -4.54758	 66.54224	711.25000	 39.20	
 19.999	 87.075	 51.55053	 21.04967	 12.36896	 61.73484	-14.84937	 -4.27035	 66.52051	711.23999	 39.20	
 19.992	 75.457	 51.49330	 29.12413	  5.25724	 60.00955	-14.29664	 -4.16696	 66.55609	711.22998	 39.20	
 20.009	 63.844	 51.35946	 37.24911	 -1.12409	 56.26661	-12.49393	 -4.12991	 66.55539	711.14001	 39.20	
 19.989	 52.269	 51.33062	 44.84141	 -6.37594	 51.13987	 -9.53129	 -3.87851	 66.57230	711.13000	 39.20	
 19.999	 40.602	 51.20554	 51.43155	-10.78495	 44.59016	 -5.43366	 -3.68907	 66.54646	711.19000	 39.20	
 20.004	 29.051	 51.18149	 56.64085	-13.88328	 36.86620	 -0.30333	 -3.49235	 66.57845	711.15002	 39.20	
 20.005	 17.433	 51.17915	 60.24396	-15.98293	 28.60000	  6.01242	 -3.18717	 66.54904	711.10999	 39.20	
 20.006	  5.780	 51.32486	 62.01600	-16.73597	 20.47995	 13.37226	 -2.88353	 66.57714	711.13000	 39.20	
 20.006	 -5.780	 51.55956	 62.00550	-16.40759	 14.06798	 20.14108	 -2.45572	 66.56707	711.14001	 39.20	
 20.005	-17.433	 51.79456	 60.17425	-15.11555	  6.88822	 28.47495	 -2.08481	 66.57399	711.25000	 39.20	
 20.004	-29.051	 52.06986	 56.48067	-12.65645	  0.98496	 36.86531	 -1.80849	 66.56154	711.21997	 39.20	
 19.999	-40.602	 52.37204	 51.23759	 -8.90302	 -4.13394	 44.69629	 -1.58286	 66.53085	711.17999	 39.20	
 19.989	-52.269	 52.73367	 44.56985	 -4.24835	 -7.95677	 50.94049	 -1.37517	 66.53061	711.28998	 39.20	
 20.009	-63.844	 53.03122	 36.96152	  1.54860	-10.58515	 55.86996	 -1.26013	 66.54973	711.22998	 39.20	
 19.992	-75.457	 53.38020	 28.80431	  8.43356	-12.14312	 59.21745	 -1.18423	 66.52660	711.29999	 39.20	
 19.999	-87.075	 53.71441	 20.80721	 15.82661	-12.39551	 60.62441	 -1.09311	 66.53120	711.22998	 39.20	
 19.989	-98.733	 54.00238	 13.76214	 23.64352	-11.96766	 60.10635	 -1.15455	 66.54793	711.16998	 39.20	
 20.005	-110.327	 54.19687	  6.77389	 31.97434	-10.45453	 57.57568	 -1.09978	 66.52705	711.23999	 39.20	
 20.009	-121.926	 54.35641	  0.76717	 40.17488	 -7.76139	 53.30462	 -1.14454	 66.53838	711.21997	 39.10	
 19.995	-133.545	 54.55262	 -4.15561	 47.29982	 -3.99243	 47.67989	 -1.26550	 66.54614	711.29999	 39.20	
 20.000	-145.147	 54.52122	 -8.25863	 53.19825	  0.73156	 40.39241	 -1.33482	 66.57134	711.25000	 39.10	
 20.008	-156.764	 54.46309	-11.35614	 57.50157	  6.64495	 32.10284	 -1.50890	 66.58556	711.20001	 39.10	
 20.003	-168.362	 54.35115	-12.89512	 59.94870	 13.65542	 23.53691	 -1.76964	 66.57147	711.28998	 39.10	
 20.000	180.000	 54.16401	-13.21670	 60.46815	 20.74136	 15.72392	 -2.16711	 66.56299	711.12000	 39.10	
