FileType=PCF
NHL=14
Date=03/13/19	13:13:14
Facility=APL
Serial=16071-4
Customer=NASA
NP=6
Mach=0.300000
Calibration=1:1
CalPts=490
TstPts=95
PortNumbering=AP Standard
Units=Torr C m/s kg/m^3 deg mm 
Theta[deg]	Phi[deg]	P1[Torr]	P2[Torr]	P3[Torr]	P4[Torr]	P5[Torr]	P6[Torr]	Pt[Torr]	Ps[Abs,Torr]	Ts[C]	
  0.000	  0.000	 42.31644	 19.57227	 17.31340	 19.67870	 18.01381	  1.05491	 42.26289	711.28003	 28.50	
  1.691	128.401	 42.30389	 18.15860	 18.57682	 21.01639	 16.13730	  1.00371	 42.27026	710.59998	 28.60	
  1.692	 77.194	 42.30744	 20.03414	 16.74016	 21.41700	 15.75093	  1.07317	 42.28716	710.62000	 28.60	
  1.699	 26.182	 42.30893	 21.59210	 15.40130	 20.40074	 16.90294	  1.09761	 42.29490	711.34998	 28.70	
  1.699	-26.182	 42.35026	 21.58633	 15.47741	 18.57006	 18.96431	  1.06287	 42.32511	711.41998	 28.70	
  1.692	-77.194	 42.34465	 19.99887	 16.89445	 17.45362	 20.17426	  0.99385	 42.31404	710.65002	 28.80	
  1.691	-128.401	 42.32492	 18.12617	 18.80119	 17.93682	 19.72483	  0.94948	 42.27081	711.46997	 28.80	
  1.700	180.000	 42.36168	 17.36171	 19.62036	 19.71150	 17.95627	  0.95308	 42.32242	710.66998	 28.90	
  3.400	180.000	 42.33143	 15.05130	 21.92979	 19.65034	 17.74676	  0.78674	 42.32222	711.28003	 28.90	
  3.388	-152.325	 42.33910	 15.51206	 21.49124	 17.49967	 19.86919	  0.77871	 42.33479	711.39001	 29.00	
  3.397	-124.529	 42.36675	 16.82297	 20.00670	 15.94387	 21.21137	  0.78752	 42.34712	711.40997	 29.00	
  3.399	-96.763	 42.34959	 18.76287	 17.84717	 15.14084	 22.05460	  0.81671	 42.34303	711.32001	 29.10	
  3.394	-69.283	 42.32232	 20.88337	 15.87933	 15.28585	 21.78625	  0.87247	 42.33007	711.28003	 29.10	
  3.400	-41.398	 42.26490	 22.77828	 14.10444	 16.35874	 20.77741	  0.95645	 42.31772	711.29999	 29.10	
  3.401	-14.021	 42.24174	 23.89568	 13.04769	 18.14444	 18.89073	  1.01567	 42.33834	711.34998	 29.20	
  3.401	 14.021	 42.21027	 23.91523	 12.98642	 20.27054	 16.64580	  1.06818	 42.34308	711.32001	 29.20	
  3.400	 41.398	 42.23424	 22.87239	 13.84944	 21.90821	 14.84070	  1.08632	 42.37591	711.34003	 29.30	
  3.394	 69.283	 42.22905	 20.98091	 15.47896	 23.36949	 13.63788	  1.03459	 42.34267	711.27002	 29.30	
  3.399	 96.763	 42.24252	 18.84138	 17.41589	 23.73969	 13.39068	  0.98019	 42.31678	711.38000	 29.40	
  3.397	124.529	 42.32041	 16.91746	 19.59621	 23.03184	 14.09130	  0.89587	 42.36546	711.40997	 29.40	
  3.388	152.325	 42.34211	 15.55523	 21.24566	 21.35724	 15.63143	  0.82112	 42.35081	711.34003	 29.40	
  5.099	161.165	 42.19688	 13.02950	 23.60909	 21.26993	 15.22605	  0.57939	 42.36168	711.38000	 29.50	
  5.109	142.013	 42.13519	 14.00201	 22.32546	 23.33381	 13.31961	  0.63872	 42.37461	711.34998	 29.50	
  5.095	123.033	 42.07677	 15.55753	 20.44190	 24.89147	 11.94527	  0.72696	 42.36752	711.12000	 29.60	
  5.105	104.191	 42.01828	 17.46687	 18.21260	 25.73427	 11.16956	  0.78799	 42.35303	711.22998	 29.60	
  5.093	 85.207	 41.98091	 19.64870	 16.07854	 25.82046	 11.02171	  0.86396	 42.38294	710.95001	 29.70	
  5.104	 66.290	 41.93813	 21.84826	 14.04688	 25.11506	 11.50039	  0.92417	 42.38200	711.02002	 29.70	
  5.094	 47.331	 41.93540	 23.84642	 12.31069	 23.68210	 12.66783	  0.96886	 42.40220	711.29999	 29.70	
  5.089	 28.397	 41.92040	 25.27579	 11.14751	 21.74899	 14.32893	  0.98893	 42.38789	710.58002	 29.80	
  5.096	  9.576	 41.94280	 26.05578	 10.57420	 19.91921	 16.35920	  0.96834	 42.37373	711.21002	 29.80	
  5.096	 -9.576	 41.98309	 26.01484	 10.65312	 17.68411	 18.67953	  0.91634	 42.37720	710.59998	 29.90	
  5.089	-28.397	 42.04445	 25.20883	 11.45070	 15.78247	 20.84774	  0.83793	 42.37699	711.32001	 29.90	
  5.094	-47.331	 42.12077	 23.76261	 12.78454	 14.19660	 22.35641	  0.75919	 42.39764	711.34998	 29.90	
  5.104	-66.290	 42.17871	 21.77446	 14.61254	 13.21450	 23.66804	  0.67182	 42.38583	711.21002	 30.00	
  5.093	-85.207	 42.23822	 19.57599	 16.64335	 12.82809	 24.26865	  0.61155	 42.38940	711.29999	 30.00	
  5.105	-104.191	 42.27119	 17.36542	 18.83128	 13.05760	 24.06789	  0.55712	 42.39110	711.27002	 30.10	
  5.095	-123.033	 42.29655	 15.46420	 21.04071	 13.92933	 23.03577	  0.52784	 42.38974	711.17999	 30.10	
  5.109	-142.013	 42.29097	 13.93305	 22.79162	 15.34702	 21.29108	  0.53372	 42.37925	711.28998	 30.10	
  5.099	-161.165	 42.31167	 12.99533	 23.90278	 17.28829	 19.65386	  0.53109	 42.40620	711.28998	 30.10	
  5.100	180.000	 42.28112	 12.70317	 24.15832	 19.55842	 17.39922	  0.55486	 42.40115	711.21997	 30.20	
  6.800	180.000	 41.99635	 10.26118	 26.22286	 19.26835	 16.89373	  0.25331	 42.42152	711.32001	 30.20	
  6.796	-166.229	 42.02466	 10.42596	 26.06483	 17.03469	 19.19298	  0.23350	 42.41443	710.54999	 30.20	
  6.808	-152.311	 42.05213	 11.10069	 25.31867	 15.07832	 21.33219	  0.23232	 42.43220	711.28003	 30.30	
  6.795	-138.383	 42.05111	 12.23215	 24.00282	 13.38884	 22.89509	  0.22718	 42.42422	711.31000	 30.30	
  6.792	-124.591	 42.05707	 13.70629	 22.26569	 12.08182	 24.49687	  0.21403	 42.43219	711.00000	 30.30	
  6.787	-110.754	 42.02630	 15.51254	 20.19376	 11.10630	 25.70364	  0.22862	 42.43361	710.62000	 30.40	
  6.800	-96.985	 41.96960	 17.51848	 17.95226	 10.54780	 26.30013	  0.25381	 42.40602	710.83002	 30.40	
  6.800	-83.015	 41.94788	 19.71527	 15.88084	 10.44483	 26.34048	  0.30358	 42.44056	710.53003	 30.40	
  6.787	-69.246	 41.89070	 21.86907	 13.88034	 10.87134	 25.75685	  0.35565	 42.43389	710.52002	 30.50	
  6.792	-55.409	 41.82099	 23.90745	 12.01608	 11.66997	 24.60922	  0.29210	 42.42557	711.25000	 30.50	
  6.795	-41.617	 41.74984	 25.62306	 10.45331	 12.86396	 23.04710	  0.48890	 42.44189	710.47998	 30.50	
  6.808	-27.689	 41.67121	 26.97404	  9.20626	 14.39283	 21.47685	  0.47220	 42.43110	710.50000	 30.60	
  6.796	-13.771	 41.62177	 27.80448	  8.45716	 16.27830	 19.36428	  0.63864	 42.45641	711.28003	 30.60	
  6.800	  0.000	 41.52193	 28.10513	  8.09794	 18.23699	 17.04426	  0.73134	 42.41810	711.22998	 30.60	
  6.796	 13.771	 41.52152	 27.83604	  8.25801	 20.41064	 15.00227	  0.71647	 42.44313	711.34998	 30.60	
  6.808	 27.689	 41.48334	 27.01882	  8.80031	 22.25017	 13.02189	  0.64794	 42.43646	711.31000	 30.70	
  6.795	 41.617	 41.48109	 25.69755	  9.83471	 24.28255	 11.32654	  0.61065	 42.42611	711.21997	 30.70	
  6.792	 55.409	 41.49495	 23.99394	 11.27906	 25.88988	 10.02248	  0.62291	 42.44631	711.32001	 30.70	
  6.787	 69.246	 41.51768	 21.94191	 13.10042	 27.01277	  9.15102	  0.59533	 42.41719	711.29999	 30.70	
  6.800	 83.015	 41.58153	 19.79333	 15.09482	 27.72521	  8.64925	  0.50639	 42.45001	711.27002	 30.80	
  6.800	 96.985	 41.65425	 17.66179	 17.16856	 27.86099	  8.68086	  0.56374	 42.46830	711.35999	 30.80	
  6.787	110.754	 41.69889	 15.65939	 19.34037	 27.36897	  9.09897	  0.48700	 42.43729	711.28998	 30.80	
  6.792	124.591	 41.75646	 13.81861	 21.48720	 26.42818	  9.91968	  0.43160	 42.43217	711.34998	 30.80	
  6.795	138.383	 41.83311	 12.32797	 23.36436	 25.00531	 11.21729	  0.36472	 42.44594	711.31000	 30.90	
  6.808	152.311	 41.91439	 11.18463	 24.85669	 23.15673	 12.89991	  0.31687	 42.44693	711.33002	 30.90	
  6.796	166.229	 41.97774	 10.49790	 25.82451	 21.31694	 14.87612	  0.27711	 42.44162	711.25000	 30.90	
  8.491	168.704	 41.50119	  7.98466	 27.78901	 21.01437	 14.26651	 -0.13057	 42.44191	711.33002	 30.90	
  8.502	157.493	 41.44010	  8.50042	 26.97919	 22.83622	 12.24034	 -0.25268	 42.45160	711.38000	 30.90	
  8.494	146.194	 41.36813	  9.44744	 25.70201	 24.91890	 10.45486	 -0.20218	 42.44705	711.28998	 31.00	
  8.495	135.039	 41.29421	 10.70574	 24.06772	 26.61400	  8.95892	 -0.14204	 42.45728	711.28998	 31.00	
  8.487	123.723	 41.22414	 12.26075	 22.07356	 28.00102	  7.73745	 -0.06815	 42.44847	711.25000	 31.00	
  8.492	112.575	 41.12610	 14.03293	 19.94978	 28.99666	  6.84322	 -0.04605	 42.45581	711.28998	 31.00	
  8.510	101.220	 41.05127	 16.07179	 17.63488	 29.61313	  6.29841	  0.00115	 42.44495	711.22998	 31.00	
  8.500	 90.000	 41.00444	 18.16328	 15.54160	 29.74711	  6.15687	  0.07719	 42.46074	711.27002	 31.10	
  8.510	 78.780	 40.93152	 20.34501	 13.41860	 29.40474	  6.31371	  0.12076	 42.44215	711.28998	 31.10	
  8.492	 67.425	 40.89251	 22.59050	 11.37385	 28.58729	  6.88357	  0.15136	 42.43253	711.25000	 31.10	
  8.487	 56.277	 40.87811	 24.65964	  9.60425	 27.38389	  7.80922	  0.20206	 42.46984	711.38000	 31.20	
  8.495	 44.961	 40.83614	 26.46601	  8.07820	 25.77257	  9.03179	  0.27565	 42.43681	711.23999	 31.20	
  8.494	 33.806	 40.85012	 27.95713	  6.87662	 23.90930	 10.53548	  0.29243	 42.46436	711.33002	 31.20	
  8.502	 22.507	 40.84314	 29.10292	  6.05676	 22.06738	 12.34646	  0.28793	 42.45775	711.33002	 31.20	
  8.491	 11.296	 40.87755	 29.77693	  5.64452	 19.90443	 14.38558	  0.27477	 42.43644	711.26001	 31.20	
  8.500	  0.000	 40.93395	 30.00797	  5.56572	 17.66155	 16.51677	  0.23477	 42.45644	710.84003	 31.20	
  8.491	-11.296	 40.98614	 29.75642	  5.80583	 15.50877	 18.93916	  0.16113	 42.45557	710.72998	 31.30	
  8.502	-22.507	 41.06061	 29.07619	  6.42814	 13.55816	 21.11721	  0.06701	 42.46958	711.28998	 31.30	
  8.494	-33.806	 41.13551	 27.91010	  7.52652	 11.89276	 22.79231	 -0.00524	 42.46928	711.35999	 31.30	
  8.495	-44.961	 41.21286	 26.38137	  8.83248	 10.46432	 24.69886	 -0.08567	 42.45129	711.29999	 31.30	
  8.487	-56.277	 41.30143	 24.51349	 10.50303	  9.33115	 26.26962	 -0.16758	 42.44191	711.17999	 31.30	
  8.492	-67.425	 41.38003	 22.47225	 12.37312	  8.52322	 27.39730	 -0.22076	 42.46144	711.38000	 31.40	
  8.510	-78.780	 41.44693	 20.26810	 14.42745	  8.06643	 28.08518	 -0.26351	 42.45657	711.39001	 31.40	
  8.500	-90.000	 41.49521	 18.04278	 16.53349	  8.01884	 28.25869	 -0.10367	 42.43080	711.20001	 31.40	
  8.510	-101.220	 41.55365	 15.97364	 18.68806	  8.28619	 28.05175	 -0.19393	 42.43953	711.29999	 31.40	
  8.492	-112.575	 41.61056	 13.97358	 20.97930	  8.94866	 27.27685	 -0.32927	 42.46890	711.20001	 31.40	
  8.487	-123.723	 41.62556	 12.16419	 23.05024	  9.92650	 26.10576	 -0.33423	 42.44862	711.17999	 31.40	
  8.495	-135.039	 41.65221	 10.62174	 24.88192	 11.22760	 24.52372	 -0.33080	 42.45422	711.35999	 31.40	
  8.494	-146.194	 41.66753	  9.40208	 26.35853	 12.81072	 22.62056	 -0.14170	 42.46691	711.32001	 31.40	
  8.502	-157.493	 41.64367	  8.43903	 27.45007	 14.61908	 20.88432	 -0.33163	 42.46148	711.27002	 31.40	
  8.491	-168.704	 41.61222	  7.91517	 28.01731	 16.64932	 18.67411	 -0.19289	 42.46263	711.41998	 31.50	
  8.500	180.000	 41.57292	  7.75528	 28.14814	 18.90193	 16.31927	 -0.24893	 42.45555	711.42999	 31.50	
 10.200	180.000	 40.95690	  5.20615	 29.99867	 18.29772	 15.66051	 -0.69588	 42.45324	710.56000	 31.50	
 10.191	-170.497	 41.01358	  5.33879	 29.89611	 16.08794	 17.92363	 -0.70627	 42.48280	711.29999	 31.50	
 10.210	-161.034	 41.01881	  5.73645	 29.38597	 13.97511	 20.30400	 -0.72119	 42.45027	711.35999	 31.50	
 10.194	-151.526	 41.07677	  6.54699	 28.50128	 12.12528	 22.41880	 -0.69920	 42.48308	711.34998	 31.50	
 10.190	-142.105	 41.09022	  7.57124	 27.22592	 10.40736	 24.19484	 -0.68297	 42.49013	711.25000	 31.50	
 10.215	-132.646	 41.06696	  8.87886	 25.63909	  8.85657	 26.11586	 -0.69091	 42.48050	711.27002	 31.50	
 10.203	-123.092	 41.03333	 10.45445	 23.70432	  7.58276	 27.64246	 -0.72279	 42.47382	711.28998	 31.50	
 10.192	-113.678	 40.99187	 12.25515	 21.59927	  6.66110	 28.75186	 -0.72789	 42.46008	710.72998	 31.50	
 10.208	-104.249	 40.97114	 14.25920	 19.32339	  6.00604	 29.59493	 -0.69993	 42.47893	711.46997	 31.60	
 10.210	-94.801	 40.91051	 16.37763	 17.10505	  5.64017	 30.00650	 -0.68311	 42.47197	711.44000	 31.60	
 10.210	-85.199	 40.85469	 18.55107	 14.96507	  5.53029	 30.03810	 -0.67826	 42.46972	711.19000	 31.60	
 10.208	-75.751	 40.77329	 20.79109	 12.79640	  5.73635	 29.67566	 -0.67097	 42.45887	711.32001	 31.60	
 10.192	-66.322	 40.70774	 22.98950	 10.74205	  6.21037	 28.89802	 -0.63379	 42.46695	710.69000	 31.60	
 10.203	-56.908	 40.63232	 25.06058	  8.84076	  6.91746	 27.80528	 -0.57430	 42.46999	710.57001	 31.60	
 10.215	-47.354	 40.52691	 26.97936	  7.15570	  8.01717	 26.29671	 -0.53452	 42.46902	711.28003	 31.60	
 10.190	-37.895	 40.44584	 28.63871	  5.76752	  9.38540	 24.42753	 -0.47034	 42.47902	710.51001	 31.70	
 10.194	-28.474	 40.36956	 29.97078	  4.65625	 10.95763	 22.67527	 -0.40768	 42.48641	710.58002	 31.70	
 10.210	-18.966	 40.27189	 30.95238	  3.76288	 12.73311	 20.60456	 -0.33171	 42.46617	711.26001	 31.70	
 10.191	 -9.503	 40.20691	 31.57164	  3.20157	 14.77320	 18.19215	 -0.24207	 42.46922	711.09998	 31.70	
 10.200	  0.000	 40.12534	 31.78481	  2.91675	 16.93275	 15.92409	 -0.17249	 42.45662	711.02002	 31.70	
 10.191	  9.503	 40.09974	 31.62436	  2.96347	 19.06299	 13.74175	 -0.12998	 42.48066	710.56000	 31.70	
 10.210	 18.966	 40.03187	 31.03627	  3.28753	 21.40499	 11.63031	 -0.13701	 42.47174	711.29999	 31.70	
 10.194	 28.474	 40.01558	 30.03143	  3.94748	 23.26981	  9.71636	 -0.12525	 42.45750	710.64001	 31.70	
 10.190	 37.895	 40.05708	 28.73297	  4.95269	 25.32259	  8.06050	 -0.10986	 42.49264	711.20001	 31.70	
 10.215	 47.354	 40.03378	 27.09151	  6.22248	 27.18585	  6.49333	 -0.18012	 42.46719	710.95001	 31.70	
 10.203	 56.908	 40.07784	 25.19322	  7.81170	 28.79906	  5.22753	 -0.27563	 42.50308	710.51001	 31.70	
 10.192	 66.322	 40.07260	 23.11626	  9.53811	 30.00474	  4.26535	 -0.32922	 42.46197	710.45001	 31.80	
 10.208	 75.751	 40.13145	 20.90384	 11.50478	 30.90464	  3.62959	 -0.35080	 42.47016	710.52002	 31.80	
 10.210	 85.199	 40.16464	 18.66611	 13.63304	 31.44043	  3.31613	 -0.36192	 42.46273	710.53003	 31.80	
 10.210	 94.801	 40.24215	 16.45192	 15.86506	 31.56493	  3.28842	 -0.42274	 42.46774	710.63000	 31.80	
 10.208	104.249	 40.29563	 14.31049	 18.05551	 31.24366	  3.62007	 -0.48135	 42.44481	710.85999	 31.80	
 10.192	113.678	 40.40049	 12.32702	 20.33233	 30.56504	  4.36083	 -0.51205	 42.47926	711.48999	 31.80	
 10.203	123.092	 40.48621	 10.52819	 22.55779	 29.56637	  5.27880	 -0.53059	 42.48486	711.33002	 31.80	
 10.215	132.646	 40.57621	  8.90652	 24.60653	 28.17129	  6.45608	 -0.55133	 42.47808	711.00000	 31.80	
 10.190	142.105	 40.68244	  7.58400	 26.37435	 26.49337	  7.95583	 -0.61016	 42.47504	710.65002	 31.80	
 10.194	151.526	 40.74377	  6.51908	 27.80361	 24.59517	  9.53522	 -0.67886	 42.47374	710.65002	 31.80	
 10.210	161.034	 40.83322	  5.78634	 28.94711	 22.39960	 11.42501	 -0.68354	 42.48668	710.69000	 31.80	
 10.191	170.497	 40.91099	  5.37378	 29.66138	 20.56120	 13.53060	 -0.69375	 42.46864	710.63000	 31.90	
 11.899	171.783	 40.13536	  2.75907	 31.49027	 19.94783	 12.71134	 -1.03337	 42.48953	710.69000	 31.90	
 11.890	163.610	 40.04268	  3.14483	 30.77867	 22.08267	 10.63028	 -1.04711	 42.46360	710.62000	 31.90	
 11.889	155.445	 39.95233	  3.75414	 29.75770	 24.00855	  8.69264	 -1.08745	 42.45134	710.60999	 31.90	
 11.909	147.299	 39.87130	  4.59397	 28.49015	 26.06916	  6.91314	 -1.08266	 42.45555	710.65002	 31.90	
 11.902	139.148	 39.76741	  5.68673	 26.88831	 27.92173	  5.19258	 -1.01254	 42.46036	710.62000	 31.90	
 11.894	130.867	 39.67011	  7.10843	 24.99508	 29.55793	  3.70936	 -0.96958	 42.45968	710.70001	 31.90	
 11.897	122.732	 39.58166	  8.71408	 22.91789	 30.90909	  2.64234	 -0.95886	 42.46411	710.89001	 31.90	
 11.903	114.597	 39.50243	 10.51956	 20.66536	 31.99846	  1.85167	 -0.97910	 42.46919	710.62000	 31.90	
 11.893	106.346	 39.43128	 12.53111	 18.41518	 32.78097	  1.29626	 -0.92462	 42.47126	710.56000	 31.90	
 11.892	 98.155	 39.35482	 14.67198	 16.14505	 33.22399	  0.89080	 -0.84631	 42.45564	711.34998	 31.90	
 11.900	 90.000	 39.27816	 16.84863	 13.90662	 33.28608	  0.84487	 -0.79286	 42.44833	710.62000	 32.00	
 11.892	 81.845	 39.23280	 19.04677	 11.75915	 32.93628	  1.12116	 -0.76035	 42.44989	710.70001	 32.00	
 11.893	 73.654	 39.17754	 21.28752	  9.65619	 32.23376	  1.45905	 -0.76416	 42.45245	711.40997	 32.00	
 11.903	 65.403	 39.10532	 23.49343	  7.68848	 31.26592	  1.95381	 -0.76897	 42.43827	711.03998	 32.00	
 11.897	 57.268	 39.07579	 25.60019	  5.93078	 30.01251	  2.76599	 -0.72711	 42.46386	711.45001	 32.00	
 11.894	 49.133	 39.03260	 27.51799	  4.37540	 28.47280	  3.87889	 -0.61044	 42.43206	711.40997	 32.00	
 11.902	 40.852	 39.03906	 29.28799	  3.06130	 26.64886	  5.28406	 -0.54517	 42.43925	711.41998	 32.00	
 11.909	 32.701	 39.04154	 30.74399	  2.06865	 24.61413	  7.07111	 -0.53213	 42.43893	711.40997	 32.00	
 11.889	 24.555	 39.03508	 31.88492	  1.32007	 22.75616	  8.91013	 -0.55581	 42.43687	711.47998	 32.10	
 11.890	 16.390	 39.06593	 32.75459	  0.76620	 20.61392	 10.89577	 -0.54021	 42.43932	711.45001	 32.10	
 11.899	  8.217	 39.07351	 33.27503	  0.40484	 18.27394	 13.01197	 -0.53807	 42.41093	711.38000	 32.10	
 11.900	  0.000	 39.14640	 33.45578	  0.33926	 16.13694	 15.20891	 -0.55705	 42.42821	711.41998	 32.10	
 11.899	 -8.217	 39.20835	 33.24469	  0.62196	 13.99703	 17.47979	 -0.60840	 42.43417	711.22998	 32.10	
 11.890	-16.390	 39.28355	 32.69424	  1.12013	 11.89190	 19.91748	 -0.70027	 42.43389	711.32001	 32.10	
 11.889	-24.555	 39.35286	 31.81196	  1.83312	 10.02499	 22.04836	 -0.79165	 42.43187	711.28003	 32.10	
 11.909	-32.701	 39.43065	 30.65654	  2.70011	  8.28891	 23.85760	 -0.85566	 42.43950	711.41998	 32.10	
 11.902	-40.852	 39.52490	 29.19345	  3.83818	  6.78042	 25.89925	 -0.88113	 42.43621	711.34003	 32.10	
 11.894	-49.133	 39.62880	 27.44214	  5.34769	  5.52583	 27.68336	 -0.90401	 42.44106	710.64001	 32.10	
 11.897	-57.268	 39.71848	 25.49311	  7.05639	  4.48811	 29.10113	 -0.94447	 42.42800	710.71997	 32.10	
 11.903	-65.403	 39.80618	 23.42845	  8.93507	  3.57463	 30.29064	 -0.98418	 42.43650	710.75000	 32.10	
 11.893	-73.654	 39.87904	 21.19669	 10.98350	  2.99114	 31.15056	 -0.99023	 42.42614	710.66998	 32.10	
 11.892	-81.845	 39.95630	 18.92606	 13.18988	  2.70315	 31.65980	 -0.97784	 42.42434	710.76001	 32.10	
 11.900	-90.000	 40.01856	 16.73533	 15.36946	  2.66368	 31.81148	 -0.96039	 42.42879	710.73999	 32.10	
 11.892	-98.155	 40.10147	 14.60863	 17.52931	  2.94403	 31.61895	 -0.96111	 42.43436	710.73999	 32.10	
 11.893	-106.346	 40.14365	 12.51579	 19.82837	  3.50643	 31.04638	 -0.99943	 42.42813	710.72998	 32.10	
 11.903	-114.597	 40.18141	 10.49284	 22.09754	  4.24909	 30.16098	 -1.01905	 42.42993	710.71002	 32.10	
 11.897	-122.732	 40.21451	  8.67658	 24.25381	  5.21916	 28.95007	 -1.01308	 42.41599	710.58002	 32.10	
 11.894	-130.867	 40.25507	  7.09643	 26.17174	  6.41931	 27.47176	 -1.00255	 42.44343	710.76001	 32.10	
 11.902	-139.148	 40.27814	  5.76122	 27.90379	  7.85068	 25.67642	 -0.97309	 42.44767	710.75000	 32.10	
 11.909	-147.299	 40.29025	  4.66147	 29.32620	  9.50315	 23.61948	 -1.00609	 42.44427	710.72998	 32.20	
 11.889	-155.445	 40.27419	  3.78672	 30.40837	 11.36515	 21.76952	 -1.04412	 42.44455	710.71002	 32.20	
 11.890	-163.610	 40.25267	  3.10749	 31.23863	 13.31009	 19.62533	 -1.08042	 42.44896	710.77002	 32.20	
 11.899	-171.783	 40.19588	  2.66350	 31.69804	 15.42045	 17.13174	 -1.07056	 42.44174	710.71997	 32.20	
 11.900	180.000	 40.15460	  2.57694	 31.77563	 17.58960	 14.85689	 -1.05961	 42.43682	710.66998	 32.20	
 13.600	180.000	 39.22829	  0.17382	 33.44571	 16.88289	 13.98930	 -1.30676	 42.43688	710.67999	 32.20	
 13.608	-172.853	 39.25593	  0.23472	 33.40244	 14.74155	 16.20228	 -1.30139	 42.44107	710.60999	 32.20	
 13.611	-165.583	 39.29617	  0.52123	 33.04081	 12.58679	 18.67104	 -1.30944	 42.44839	710.62000	 32.20	
 13.601	-158.353	 39.35244	  1.11834	 32.31154	 10.61973	 20.98222	 -1.26410	 42.46337	710.66998	 32.20	
 13.609	-151.210	 39.37333	  1.94000	 31.27991	  8.72111	 23.13190	 -1.21425	 42.44793	710.79999	 32.20	
 13.611	-143.999	 39.37210	  2.84250	 29.96993	  6.86606	 24.99791	 -1.15812	 42.45218	710.75000	 32.20	
 13.601	-136.825	 39.36206	  3.94532	 28.43700	  5.22716	 26.95473	 -1.12633	 42.43850	710.67999	 32.20	
 13.596	-129.640	 39.34463	  5.31513	 26.70458	  3.84056	 28.67567	 -1.14116	 42.43965	710.65002	 32.20	
 13.611	-122.431	 39.29875	  6.90022	 24.71835	  2.67545	 30.21567	 -1.14242	 42.44855	710.72998	 32.20	
 13.604	-115.211	 39.28288	  8.72479	 22.50650	  1.74048	 31.49010	 -1.14206	 42.45909	711.32001	 32.20	
 13.595	-108.042	 39.23265	 10.63849	 20.25789	  1.03477	 32.46180	 -1.12036	 42.45507	710.62000	 32.20	
 13.607	-100.793	 39.17305	 12.66766	 17.94588	  0.48966	 33.19596	 -1.09612	 42.43023	710.70001	 32.20	
 13.601	-93.617	 39.10797	 14.78965	 15.78542	  0.17548	 33.61610	 -1.07921	 42.46797	710.71997	 32.20	
 13.601	-86.383	 39.04989	 16.99321	 13.57535	  0.13095	 33.61103	 -1.10241	 42.46959	710.70001	 32.30	
 13.607	-79.207	 38.95671	 19.21127	 11.34411	  0.22322	 33.28926	 -1.12757	 42.45815	710.71997	 32.30	
 13.595	-71.958	 38.89669	 21.48073	  9.19421	  0.56732	 32.59210	 -1.15286	 42.45678	710.69000	 32.30	
 13.604	-64.789	 38.80230	 23.66681	  7.17627	  1.08843	 31.64186	 -1.15942	 42.45249	710.70001	 32.30	
 13.611	-57.569	 38.71790	 25.79165	  5.26740	  1.85365	 30.39330	 -1.13986	 42.43384	710.70001	 32.30	
 13.596	-50.360	 38.64287	 27.79218	  3.56497	  2.90473	 28.91215	 -1.13038	 42.44802	710.69000	 32.30	
 13.601	-43.175	 38.55359	 29.58754	  2.07136	  4.09038	 27.25509	 -1.15174	 42.47455	710.71002	 32.30	
 13.611	-36.001	 38.42068	 31.15892	  0.88093	  5.40460	 25.33233	 -1.15378	 42.44741	710.81000	 32.30	
 13.609	-28.790	 38.35962	 32.51885	 -0.05736	  7.01622	 23.41502	 -1.15847	 42.46453	710.72998	 32.30	
 13.601	-21.647	 38.27491	 33.60598	 -0.81273	  9.05324	 21.31170	 -1.10574	 42.46608	710.72998	 32.30	
 13.611	-14.417	 38.18131	 34.38248	 -1.36795	 10.96573	 18.97220	 -1.04182	 42.45613	710.75000	 32.30	
 13.608	 -7.147	 38.11806	 34.88228	 -1.78777	 13.04949	 16.68394	 -0.98525	 42.45503	710.72998	 32.30	
 13.600	  0.000	 38.05094	 35.03580	 -1.99935	 15.18365	 14.41677	 -0.95397	 42.44309	710.57001	 32.30	
 13.608	  7.147	 37.98541	 34.90123	 -1.97142	 17.34435	 12.21758	 -0.95429	 42.45249	710.66998	 32.30	
 13.611	 14.417	 37.94239	 34.42593	 -1.75115	 19.54669	 10.03561	 -0.94443	 42.44204	710.75000	 32.30	
 13.601	 21.647	 37.93566	 33.66039	 -1.37647	 21.86492	  7.95702	 -0.95895	 42.46856	710.76001	 32.30	
 13.609	 28.790	 37.93459	 32.60867	 -0.74364	 23.91380	  6.03218	 -0.92734	 42.47028	710.82001	 32.30	
 13.611	 36.001	 37.92220	 31.25264	  0.06405	 25.91137	  4.33741	 -0.94274	 42.46149	710.78998	 32.40	
 13.601	 43.175	 37.90986	 29.67389	  1.17266	 27.85013	  2.81784	 -0.99575	 42.47170	710.85999	 32.40	
 13.596	 50.360	 37.93737	 27.89770	  2.55137	 29.58476	  1.59519	 -1.06559	 42.45473	710.60999	 32.40	
 13.611	 57.569	 37.96755	 25.93093	  4.07289	 31.09606	  0.55596	 -1.19105	 42.45916	710.78003	 32.40	
 13.604	 64.789	 38.01153	 23.81436	  5.80221	 32.43520	 -0.28367	 -1.24874	 42.45576	710.83002	 32.40	
 13.595	 71.958	 38.05291	 21.61107	  7.65633	 33.49997	 -0.86869	 -1.24190	 42.45653	710.58002	 32.40	
 13.607	 79.207	 38.09742	 19.35188	  9.66342	 34.32583	 -1.31077	 -1.24846	 42.46461	710.59998	 32.40	
 13.601	 86.383	 38.14184	 17.11984	 11.79727	 34.76284	 -1.63069	 -1.24708	 42.45586	710.78003	 32.40	
 13.601	 93.617	 38.21618	 14.89749	 14.08060	 34.99178	 -1.66865	 -1.26144	 42.45232	710.71002	 32.40	
 13.607	100.793	 38.28246	 12.73216	 16.37329	 34.80701	 -1.43429	 -1.33350	 42.44803	710.71002	 32.40	
 13.595	108.042	 38.35280	 10.67599	 18.63329	 34.12327	 -0.92533	 -1.40041	 42.42327	710.85999	 32.40	
 13.604	115.211	 38.47048	  8.78971	 20.84043	 33.33041	 -0.44472	 -1.42007	 42.45711	710.73999	 32.40	
 13.611	122.431	 38.55202	  6.97780	 23.20181	 32.16666	  0.29375	 -1.39211	 42.45259	710.64001	 32.50	
 13.596	129.640	 38.64342	  5.36968	 25.31517	 30.77376	  1.33234	 -1.39649	 42.45200	710.73999	 32.50	
 13.601	136.825	 38.71346	  3.94174	 27.20224	 29.21167	  2.58412	 -1.41647	 42.44444	710.63000	 32.50	
 13.611	143.999	 38.80646	  2.76453	 28.89380	 27.42877	  4.07144	 -1.47035	 42.43499	710.77002	 32.50	
 13.609	151.210	 38.91313	  1.83731	 30.38230	 25.42340	  5.77282	 -1.48980	 42.44960	710.75000	 32.50	
 13.601	158.353	 39.00393	  1.08929	 31.58983	 23.27768	  7.70799	 -1.43814	 42.45286	710.73999	 32.50	
 13.611	165.583	 39.08451	  0.57929	 32.55450	 21.37512	  9.72217	 -1.38478	 42.46515	710.65002	 32.50	
 13.608	172.853	 39.15216	  0.21652	 33.17349	 19.06589	 11.83897	 -1.33420	 42.45295	710.83002	 32.50	
 15.298	173.587	 38.08916	 -2.05733	 34.70228	 18.20725	 10.89465	 -1.54895	 42.45037	710.81000	 32.50	
 15.291	167.167	 38.00711	 -1.79354	 34.12953	 20.53481	  8.76592	 -1.61579	 42.44582	710.76001	 32.50	
 15.307	160.676	 37.90595	 -1.30397	 33.27106	 22.70468	  6.57173	 -1.71267	 42.42255	710.77002	 32.50	
 15.300	154.261	 37.83022	 -0.76326	 32.18372	 24.56855	  4.79379	 -1.80646	 42.43727	710.70001	 32.50	
 15.288	147.854	 37.74310	 -0.00852	 30.80461	 26.69574	  3.11405	 -1.83531	 42.44340	710.63000	 32.50	
 15.293	141.428	 37.64679	  1.00403	 29.16776	 28.62768	  1.54847	 -1.80497	 42.44118	710.87000	 32.50	
 15.299	134.985	 37.56410	  2.22750	 27.42909	 30.33012	  0.18976	 -1.77664	 42.43317	710.66998	 32.50	
 15.305	128.583	 37.48895	  3.64566	 25.46910	 31.93687	 -0.90779	 -1.78549	 42.46173	710.76001	 32.50	
 15.309	122.142	 37.35716	  5.21232	 23.26373	 33.30970	 -1.89875	 -1.79231	 42.42892	710.79999	 32.50	
 15.304	115.711	 37.28677	  6.94633	 20.97465	 34.52439	 -2.64542	 -1.83650	 42.45355	710.82001	 32.50	
 15.297	109.291	 37.20988	  8.77532	 18.77251	 35.45006	 -3.02451	 -1.85967	 42.47749	710.78003	 32.50	
 15.293	102.897	 37.10395	 10.74236	 16.53662	 36.00848	 -3.49753	 -1.80422	 42.43932	710.78998	 32.50	
 15.293	 96.458	 37.04057	 12.88347	 14.20164	 36.35022	 -3.83704	 -1.73810	 42.45365	710.84003	 32.50	
 15.300	 90.000	 36.94413	 15.06825	 11.88596	 36.35685	 -3.94515	 -1.69641	 42.45974	710.78998	 32.50	
 15.293	 83.542	 36.88889	 17.29915	  9.66994	 36.08121	 -3.80580	 -1.70882	 42.45815	710.84998	 32.50	
 15.293	 77.103	 36.83490	 19.56744	  7.55495	 35.45447	 -3.54761	 -1.69802	 42.47321	710.84998	 32.50	
 15.297	 70.709	 36.77408	 21.74963	  5.64521	 34.60963	 -3.12958	 -1.71987	 42.44261	710.72998	 32.50	
 15.304	 64.289	 36.74474	 23.94984	  3.88591	 33.51019	 -2.52138	 -1.71881	 42.46313	710.79999	 32.50	
 15.309	 57.858	 36.71513	 26.11946	  2.24949	 32.15027	 -1.67782	 -1.64968	 42.46247	710.73999	 32.50	
 15.305	 51.417	 36.69108	 28.09120	  0.82343	 30.62560	 -0.68758	 -1.52507	 42.44191	710.78998	 32.50	
 15.299	 45.015	 36.66518	 29.89319	 -0.46214	 28.90315	  0.44296	 -1.44000	 42.44319	710.67999	 32.50	
 15.293	 38.572	 36.66188	 31.55995	 -1.56413	 26.98101	  1.77965	 -1.39959	 42.43112	710.71997	 32.50	
 15.288	 32.146	 36.67996	 33.03192	 -2.40426	 24.92196	  3.36121	 -1.35782	 42.46657	710.78003	 32.50	
 15.300	 25.739	 36.65836	 34.24557	 -3.08205	 22.98874	  5.10476	 -1.37856	 42.44132	710.78003	 32.60	
 15.307	 19.324	 36.70078	 35.21955	 -3.64912	 20.74615	  6.91797	 -1.36710	 42.47764	710.85999	 32.60	
 15.291	 12.833	 36.70517	 35.90935	 -3.99888	 18.52234	  9.08059	 -1.35646	 42.45782	710.82001	 32.60	
 15.298	  6.413	 36.75574	 36.32296	 -4.11280	 16.30422	 11.29379	 -1.32368	 42.47570	710.83002	 32.60	
 15.300	  0.000	 36.82218	 36.47494	 -4.12233	 14.15898	 13.50060	 -1.30773	 42.46682	710.70001	 32.60	
 15.298	 -6.413	 36.88024	 36.29852	 -3.95106	 11.98796	 15.79121	 -1.31982	 42.45202	710.79999	 32.60	
 15.291	-12.833	 36.93203	 35.85566	 -3.60610	  9.88885	 18.07782	 -1.32905	 42.44467	710.87000	 32.60	
 15.307	-19.324	 36.99991	 35.17607	 -3.14986	  7.65049	 20.39681	 -1.35558	 42.45828	710.82001	 32.60	
 15.300	-25.739	 37.08060	 34.21228	 -2.56360	  5.93204	 22.58959	 -1.37289	 42.46918	710.84998	 32.60	
 15.288	-32.146	 37.18269	 32.94758	 -1.67870	  4.29573	 24.48384	 -1.34721	 42.46006	710.94000	 32.60	
 15.293	-38.572	 37.29695	 31.46677	 -0.66288	  2.88851	 26.55028	 -1.28975	 42.45179	710.84003	 32.60	
 15.299	-45.015	 37.41812	 29.79317	  0.50160	  1.62947	 28.44452	 -1.26918	 42.46067	710.75000	 32.60	
 15.305	-51.417	 37.49062	 27.97634	  1.84000	  0.49655	 30.07997	 -1.22953	 42.45555	710.75000	 32.60	
 15.309	-57.858	 37.55442	 25.96736	  3.46113	 -0.39412	 31.56785	 -1.21816	 42.43631	710.76001	 32.60	
 15.304	-64.289	 37.65319	 23.83745	  5.29755	 -1.16692	 32.85619	 -1.20596	 42.45147	710.81000	 32.60	
 15.297	-70.709	 37.74939	 21.65347	  7.30723	 -1.61857	 33.86310	 -1.19191	 42.44321	710.78003	 32.60	
 15.293	-77.103	 37.82940	 19.43948	  9.39673	 -1.98555	 34.58311	 -1.17290	 42.44394	710.65997	 32.60	
 15.293	-83.542	 37.90473	 17.18375	 11.62575	 -2.17049	 34.98628	 -1.13397	 42.43669	710.65997	 32.60	
 15.300	-90.000	 37.97603	 14.97764	 13.84856	 -2.24739	 35.22840	 -1.10552	 42.43713	710.76001	 32.60	
 15.293	-96.458	 38.08716	 12.81747	 16.12705	 -2.10156	 35.05555	 -1.10745	 42.46916	710.67999	 32.60	
 15.293	-102.897	 38.14687	 10.68956	 18.33406	 -1.66877	 34.56485	 -1.13073	 42.46482	710.79999	 32.60	
 15.297	-109.291	 38.16465	  8.71483	 20.59950	 -1.10924	 33.72043	 -1.14705	 42.44410	710.84998	 32.60	
 15.304	-115.711	 38.21180	  6.90954	 22.84639	 -0.41427	 32.70504	 -1.15130	 42.45753	710.77002	 32.60	
 15.309	-122.142	 38.25464	  5.18552	 25.03365	  0.36523	 31.41556	 -1.15520	 42.46775	710.91998	 32.60	
 15.305	-128.583	 38.29128	  3.60449	 27.02693	  1.43280	 29.85288	 -1.15624	 42.46628	710.84003	 32.60	
 15.299	-134.985	 38.32431	  2.19739	 28.83594	  2.74983	 28.14923	 -1.16904	 42.44880	710.67999	 32.60	
 15.293	-141.428	 38.32438	  1.01642	 30.48575	  4.20492	 26.23335	 -1.18940	 42.46001	710.73999	 32.60	
 15.288	-147.854	 38.31124	  0.10542	 31.90403	  5.73922	 24.16110	 -1.26688	 42.44337	710.84003	 32.60	
 15.300	-154.261	 38.29491	 -0.76417	 33.09551	  7.65794	 22.28927	 -1.34072	 42.45488	710.82001	 32.60	
 15.307	-160.676	 38.25586	 -1.46805	 34.00095	  9.69539	 20.04640	 -1.39813	 42.43954	710.77002	 32.60	
 15.291	-167.167	 38.23304	 -1.91932	 34.61353	 11.72505	 17.60948	 -1.44973	 42.45029	710.81000	 32.60	
 15.298	-173.587	 38.17496	 -2.19205	 34.95303	 13.85191	 15.27857	 -1.48757	 42.45494	710.87000	 32.60	
 15.300	180.000	 38.14506	 -2.17633	 34.96970	 16.02964	 13.04736	 -1.50810	 42.44927	710.77002	 32.70	
 17.000	180.000	 36.93977	 -4.29609	 36.38225	 15.11953	 12.01939	 -1.60269	 42.45789	710.67999	 32.70	
 16.990	-174.179	 36.96830	 -4.33635	 36.39146	 12.93303	 14.27413	 -1.53603	 42.44330	710.70001	 32.70	
 17.009	-168.383	 37.01763	 -4.19583	 36.09055	 10.77608	 16.56960	 -1.48420	 42.45692	710.78003	 32.70	
 17.000	-162.596	 37.06177	 -3.72836	 35.53614	  8.72953	 18.82634	 -1.41611	 42.44674	710.78003	 32.70	
 16.990	-156.759	 37.09830	 -3.14728	 34.69376	  6.63627	 21.28882	 -1.32820	 42.42911	710.72998	 32.70	
 16.995	-150.919	 37.11407	 -2.36674	 33.64614	  4.83330	 23.47676	 -1.27418	 42.45574	710.81000	 32.70	
 16.988	-145.161	 37.13254	 -1.61318	 32.36099	  3.22608	 25.28773	 -1.19436	 42.45121	710.77002	 32.70	
 17.014	-139.343	 37.10382	 -0.74219	 30.84491	  1.64286	 27.33212	 -1.14172	 42.44997	710.69000	 32.70	
 17.007	-133.546	 37.11705	  0.50762	 29.10808	  0.34466	 29.20257	 -1.11306	 42.44400	710.75000	 32.70	
 17.001	-127.699	 37.06987	  1.89083	 27.20445	 -0.84130	 30.91001	 -1.09082	 42.44840	710.75000	 32.70	
 17.006	-121.937	 37.03852	  3.39009	 25.23240	 -1.78036	 32.41908	 -1.07311	 42.44779	710.78003	 32.70	
 17.002	-116.134	 37.01410	  5.04587	 23.07507	 -2.48596	 33.70560	 -1.05994	 42.44773	710.72998	 32.70	
 17.001	-110.310	 36.98283	  6.82691	 20.82369	 -3.12959	 34.80046	 -1.04409	 42.45109	710.79999	 32.70	
 16.988	-104.517	 36.93920	  8.67805	 18.55543	 -3.70469	 35.69699	 -1.05039	 42.45190	710.77002	 32.70	
 17.008	-98.662	 36.85186	 10.74489	 16.32535	 -4.21122	 36.28439	 -1.05458	 42.47389	710.73999	 32.70	
 16.996	-92.909	 36.76590	 12.84980	 14.06172	 -4.51869	 36.55640	 -1.04373	 42.46624	710.71002	 32.70	
 16.996	-87.091	 36.69442	 15.01959	 11.82487	 -4.50546	 36.59376	 -1.07676	 42.46528	710.72998	 32.70	
 17.012	-81.253	 36.60852	 17.25390	  9.56887	 -4.40187	 36.37046	 -1.05543	 42.45152	710.71997	 32.70	
 16.988	-75.483	 36.54864	 19.48968	  7.40349	 -4.13223	 35.85891	 -1.11045	 42.46217	710.83002	 32.70	
 17.001	-69.690	 36.45110	 21.68311	  5.36876	 -3.81311	 34.99098	 -1.13136	 42.45528	710.78998	 32.70	
 17.002	-63.866	 36.36783	 23.86803	  3.51787	 -3.30558	 33.95175	 -1.15656	 42.45081	710.65002	 32.70	
 17.006	-58.063	 36.27069	 26.02292	  1.77019	 -2.65838	 32.64187	 -1.18176	 42.46319	710.69000	 32.70	
 17.001	-52.301	 36.17171	 28.00318	  0.16648	 -1.86896	 31.16190	 -1.21792	 42.45875	710.71997	 32.70	
 17.007	-46.454	 36.11500	 29.88070	 -1.17930	 -0.80878	 29.52676	 -1.27942	 42.46551	710.76001	 32.70	
 17.014	-40.657	 36.02929	 31.62565	 -2.36883	  0.38052	 27.69825	 -1.33519	 42.45308	710.67999	 32.70	
 16.988	-34.839	 35.96857	 33.16508	 -3.27259	  1.77026	 25.66694	 -1.37915	 42.45590	710.70001	 32.70	
 16.995	-29.081	 35.83398	 34.51356	 -4.07674	  3.20192	 23.79959	 -1.44311	 42.43881	710.65002	 32.70	
 16.990	-23.241	 35.75583	 35.66546	 -4.79109	  4.86389	 21.64939	 -1.48048	 42.45816	710.75000	 32.70	
 17.000	-17.404	 35.67315	 36.58617	 -5.40596	  6.62566	 19.32888	 -1.50754	 42.45951	710.69000	 32.70	
 17.009	-11.617	 35.58868	 37.20825	 -5.86583	  8.44184	 17.09995	 -1.51967	 42.45571	710.64001	 32.70	
 16.990	 -5.821	 35.57193	 37.59072	 -6.11270	 10.49535	 14.79873	 -1.56389	 42.47764	710.78003	 32.70	
 17.000	  0.000	 35.48081	 37.71083	 -6.30111	 12.91329	 12.48797	 -1.58502	 42.45420	710.77002	 32.70	
 16.990	  5.821	 35.41358	 37.61691	 -6.33795	 15.15650	 10.26887	 -1.65167	 42.47984	710.77002	 32.70	
 17.009	 11.617	 35.31396	 37.24030	 -6.34094	 17.32806	  8.06859	 -1.70821	 42.44268	710.82001	 32.70	
 17.000	 17.404	 35.30484	 36.63504	 -6.08121	 19.54723	  6.06786	 -1.74712	 42.47039	710.70001	 32.70	
 16.990	 23.241	 35.34384	 35.75253	 -5.54713	 21.70807	  4.12684	 -1.75478	 42.47528	710.75000	 32.70	
 16.995	 29.081	 35.33276	 34.64667	 -4.93722	 24.00568	  2.35186	 -1.77885	 42.45703	710.78998	 32.70	
 16.988	 34.839	 35.32467	 33.31991	 -4.19514	 25.93489	  0.77765	 -1.80565	 42.47019	710.84003	 32.70	
 17.014	 40.657	 35.29795	 31.76222	 -3.29689	 27.92274	 -0.60322	 -1.84637	 42.44593	710.83002	 32.70	
 17.007	 46.454	 35.30410	 30.03194	 -2.20725	 29.81587	 -1.84340	 -1.90728	 42.47998	710.78998	 32.70	
 17.001	 52.301	 35.31076	 28.10493	 -0.88209	 31.48597	 -2.93743	 -1.98623	 42.44740	710.71997	 32.70	
 17.006	 58.063	 35.34696	 26.11181	  0.51256	 33.04116	 -3.90901	 -2.11381	 42.43763	710.75000	 32.70	
 17.002	 63.866	 35.39775	 23.96605	  2.06206	 34.42657	 -4.70912	 -2.17896	 42.47000	710.83002	 32.80	
 17.001	 69.690	 35.41417	 21.73223	  3.70981	 35.57126	 -5.34687	 -2.19864	 42.44185	710.79999	 32.70	
 16.988	 75.483	 35.48384	 19.55897	  5.56940	 36.42082	 -5.72709	 -2.16658	 42.44271	710.78998	 32.70	
 17.012	 81.253	 35.52254	 17.38059	  7.53331	 37.06439	 -5.97319	 -2.15595	 42.45587	710.76001	 32.70	
 16.996	 87.091	 35.63633	 15.13429	  9.73313	 37.44160	 -6.07139	 -2.15901	 42.45152	710.78998	 32.70	
 16.996	 92.909	 35.67998	 12.94448	 11.92517	 37.57177	 -6.11246	 -2.17765	 42.43889	710.82001	 32.80	
 17.008	 98.662	 35.75748	 10.83505	 14.18123	 37.43133	 -5.99276	 -2.23302	 42.43936	710.73999	 32.80	
 16.988	104.517	 35.89123	  8.80383	 16.55884	 37.06186	 -5.58345	 -2.26887	 42.47347	710.71997	 32.80	
 17.001	110.310	 35.93006	  6.87312	 18.77779	 36.45192	 -5.20204	 -2.29513	 42.44667	710.84003	 32.80	
 17.002	116.134	 36.02909	  5.06697	 20.98719	 35.53217	 -4.73161	 -2.24457	 42.45745	710.79999	 32.80	
 17.006	121.937	 36.12033	  3.35830	 23.28696	 34.38694	 -4.07809	 -2.18692	 42.46351	710.89001	 32.80	
 17.001	127.699	 36.23645	  1.87318	 25.46429	 33.01213	 -3.15374	 -2.15099	 42.48481	710.75000	 32.80	
 17.007	133.546	 36.30943	  0.43714	 27.50820	 31.38947	 -2.12426	 -2.12658	 42.46596	710.90002	 32.80	
 17.014	139.343	 36.34848	 -0.82230	 29.32592	 29.64709	 -0.93315	 -2.13042	 42.43227	710.87000	 32.80	
 16.988	145.161	 36.47917	 -1.76474	 31.02885	 27.85891	  0.49474	 -2.13648	 42.46338	710.84003	 32.80	
 16.995	150.919	 36.57594	 -2.46621	 32.51527	 25.82822	  2.06059	 -2.10168	 42.47121	710.88000	 32.80	
 16.990	156.759	 36.67664	 -3.00197	 33.78011	 23.87559	  3.77932	 -2.03552	 42.47658	710.90997	 32.80	
 17.000	162.596	 36.69104	 -3.75398	 34.81354	 21.81304	  5.54386	 -1.90481	 42.44186	710.94000	 32.80	
 17.009	168.383	 36.78389	 -4.11116	 35.60425	 19.49176	  7.49838	 -1.80538	 42.45047	710.83002	 32.80	
 16.990	174.179	 36.88755	 -4.23961	 36.10911	 17.28678	  9.81303	 -1.68209	 42.45559	710.83002	 32.80	
 18.709	174.675	 35.52805	 -6.49935	 37.39780	 16.22052	  8.57037	 -1.74883	 42.44337	710.91998	 32.80	
 18.703	169.441	 35.47536	 -6.49637	 36.94844	 18.39275	  6.52253	 -1.82444	 42.46547	710.89001	 32.80	
 18.691	164.085	 35.38672	 -6.20941	 36.21071	 20.56710	  4.46844	 -1.97864	 42.45308	710.84003	 32.80	
 18.706	158.818	 35.31683	 -5.65972	 35.25451	 22.73592	  2.72540	 -2.07189	 42.43760	710.79999	 32.80	
 18.695	153.537	 35.26437	 -4.89454	 34.05196	 24.77693	  1.03131	 -2.19667	 42.45710	710.84998	 32.80	
 18.704	148.255	 35.12197	 -4.34890	 32.66598	 26.83014	 -0.53280	 -2.25441	 42.44312	710.69000	 32.80	
 18.698	142.952	 35.04393	 -3.52954	 31.13377	 28.76093	 -1.94541	 -2.25984	 42.42867	710.78003	 32.80	
 18.699	137.625	 34.93050	 -2.47807	 29.36170	 30.60861	 -3.25915	 -2.29056	 42.45313	710.75000	 32.80	
 18.705	132.343	 34.83019	 -1.24348	 27.44521	 32.31825	 -4.43974	 -2.32723	 42.44519	710.72998	 32.80	
 18.713	127.067	 34.72435	  0.07372	 25.35565	 33.87493	 -5.40093	 -2.38627	 42.43298	710.79999	 32.80	
 18.700	121.794	 34.67670	  1.54427	 23.20962	 35.23603	 -6.20397	 -2.41656	 42.45943	710.75000	 32.80	
 18.698	116.504	 34.54784	  3.13532	 20.94081	 36.39928	 -6.95242	 -2.48578	 42.44181	710.79999	 32.80	
 18.707	111.165	 34.41166	  4.94805	 18.62923	 37.32712	 -7.58677	 -2.56790	 42.42926	710.75000	 32.80	
 18.690	105.863	 34.36208	  6.91197	 16.38818	 38.01960	 -7.91999	 -2.59795	 42.45007	710.77002	 32.80	
 18.696	100.583	 34.24434	  8.86046	 14.04385	 38.44650	 -8.31022	 -2.61020	 42.42250	710.72998	 32.80	
 18.700	 95.309	 34.15712	 10.89700	 11.74516	 38.69562	 -8.50023	 -2.59088	 42.44355	710.79999	 32.80	
 18.700	 90.000	 34.08833	 12.98062	  9.56702	 38.68575	 -8.41545	 -2.54971	 42.44005	710.76001	 32.80	
 18.700	 84.691	 33.99190	 15.11880	  7.48184	 38.42381	 -8.28022	 -2.51625	 42.41409	710.64001	 32.80	
 18.696	 79.417	 33.93073	 17.23692	  5.51069	 37.99295	 -8.24913	 -2.50322	 42.44255	710.71997	 32.80	
 18.690	 74.137	 33.88628	 19.41952	  3.68090	 37.27364	 -8.01593	 -2.51274	 42.44020	710.75000	 32.80	
 18.707	 68.835	 33.84521	 21.65376	  1.84520	 36.35632	 -7.60133	 -2.52326	 42.43917	710.71997	 32.80	
 18.698	 63.496	 33.81682	 23.90070	  0.24331	 35.18115	 -6.96031	 -2.49679	 42.44106	710.66998	 32.80	
 18.700	 58.206	 33.77824	 26.05364	 -1.30821	 33.81874	 -6.21425	 -2.43811	 42.44948	710.77002	 32.80	
 18.713	 52.933	 33.73217	 28.06072	 -2.66490	 32.28576	 -5.31143	 -2.36456	 42.44391	710.71997	 32.80	
 18.705	 47.657	 33.72734	 30.01348	 -3.93367	 30.59292	 -4.21109	 -2.26896	 42.46775	710.76001	 32.80	
 18.699	 42.375	 33.72326	 31.80255	 -5.04628	 28.77098	 -2.99874	 -2.19814	 42.44587	710.84998	 32.80	
 18.698	 37.048	 33.73521	 33.43702	 -6.02763	 26.78381	 -1.68361	 -2.14005	 42.44192	710.70001	 32.80	
 18.704	 31.745	 33.68685	 34.84825	 -6.90718	 24.78052	 -0.25463	 -2.08602	 42.44416	710.88000	 32.80	
 18.695	 26.463	 33.68316	 36.06520	 -7.62219	 22.53578	  1.37425	 -2.05577	 42.43286	710.72998	 32.80	
 18.706	 21.182	 33.68603	 37.12520	 -8.19640	 20.39642	  3.16076	 -2.03070	 42.44602	710.73999	 32.80	
 18.691	 15.915	 33.70629	 37.90990	 -8.57124	 18.20112	  5.01702	 -1.97680	 42.45457	710.78998	 32.80	
 18.703	 10.559	 33.70038	 38.48441	 -8.91087	 15.87502	  7.01447	 -1.90067	 42.44289	710.89001	 32.80	
 18.709	  5.325	 33.74002	 38.78444	 -8.91585	 13.60919	  9.08091	 -1.85471	 42.43394	710.72998	 32.80	
 18.700	  0.000	 33.86719	 38.87727	 -8.53308	 11.36071	 11.28836	 -1.77350	 42.44543	710.82001	 32.80	
 18.709	 -5.325	 33.88459	 38.74979	 -8.51953	  9.33974	 13.58909	 -1.66044	 42.42077	710.83002	 32.80	
 18.703	-10.559	 33.95458	 38.43351	 -8.44310	  7.44612	 15.80609	 -1.59557	 42.44352	710.84003	 32.80	
 18.691	-15.915	 34.05636	 37.83961	 -7.96251	  5.58729	 18.11886	 -1.52206	 42.44391	710.84998	 32.80	
 18.706	-21.182	 34.14027	 37.00328	 -7.21501	  3.80104	 20.40362	 -1.47526	 42.43411	710.84003	 32.80	
 18.695	-26.463	 34.24855	 35.90152	 -6.46609	  2.09373	 22.71993	 -1.43232	 42.43150	710.73999	 32.80	
 18.704	-31.745	 34.35928	 34.65329	 -5.72288	  0.61458	 24.71092	 -1.35242	 42.42463	710.66998	 32.80	
 18.698	-37.048	 34.45550	 33.19206	 -4.93621	 -0.72352	 26.67460	 -1.28211	 42.41319	710.82001	 32.80	
 18.699	-42.375	 34.56387	 31.57469	 -3.97114	 -1.95232	 28.63701	 -1.22710	 42.41940	710.81000	 32.80	
 18.705	-47.657	 34.62210	 29.82423	 -2.82542	 -3.08718	 30.39987	 -1.15392	 42.42426	710.72998	 32.90	
 18.713	-52.933	 34.70922	 27.94480	 -1.53136	 -4.08402	 32.01888	 -1.10108	 42.41714	710.82001	 32.90	
 18.700	-58.206	 34.81606	 25.93292	  0.04471	 -4.91633	 33.52704	 -1.05595	 42.42690	710.77002	 32.90	
 18.698	-63.496	 34.90408	 23.79102	  1.72548	 -5.55646	 34.84616	 -1.04947	 42.43053	710.73999	 32.90	
 18.707	-68.835	 34.98092	 21.55096	  3.54031	 -6.10166	 35.95857	 -0.99604	 42.42729	710.82001	 32.90	
 18.690	-74.137	 35.11401	 19.38231	  5.51119	 -6.35045	 36.81199	 -0.96840	 42.45395	710.78003	 32.90	
 18.696	-79.417	 35.16249	 17.19067	  7.52696	 -6.51362	 37.34076	 -0.94754	 42.42181	710.78998	 32.90	
 18.700	-84.691	 35.26040	 15.00059	  9.70236	 -6.66497	 37.67636	 -0.93424	 42.44665	710.78998	 32.90	
 18.700	-90.000	 35.30550	 12.83447	 11.86443	 -6.90676	 37.78253	 -0.92248	 42.45028	710.76001	 32.90	
 18.700	-95.309	 35.38292	 10.73124	 14.15844	 -6.64426	 37.64606	 -0.91633	 42.43482	710.75000	 32.90	
 18.696	-100.583	 35.51008	  8.72681	 16.44418	 -6.28787	 37.24385	 -0.92348	 42.45169	710.87000	 32.90	
 18.690	-105.863	 35.61295	  6.77344	 18.67443	 -5.79957	 36.62488	 -0.93301	 42.42387	710.70001	 32.90	
 18.707	-111.165	 35.65976	  4.89850	 20.86094	 -5.36135	 35.74860	 -0.91298	 42.43759	710.71997	 32.90	
 18.698	-116.504	 35.69169	  3.14612	 23.19275	 -4.85672	 34.63884	 -0.90659	 42.45768	710.79999	 32.90	
 18.700	-121.794	 35.74884	  1.58437	 25.33778	 -4.01547	 33.28516	 -0.93652	 42.43376	710.76001	 32.90	
 18.713	-127.067	 35.77945	  0.12030	 27.37291	 -3.02852	 31.75471	 -0.95242	 42.44036	710.84998	 32.90	
 18.705	-132.343	 35.80194	 -1.17175	 29.22226	 -1.94592	 30.11206	 -0.99071	 42.44816	710.78998	 32.90	
 18.699	-137.625	 35.77952	 -2.33875	 30.97772	 -0.74339	 28.31503	 -1.00324	 42.42672	710.79999	 32.90	
 18.698	-142.952	 35.80932	 -3.29142	 32.61929	  0.70708	 26.34246	 -1.04987	 42.44447	710.84998	 32.90	
 18.704	-148.255	 35.81381	 -4.05295	 34.01807	  2.26096	 24.42485	 -1.15932	 42.44346	710.78998	 32.90	
 18.695	-153.537	 35.78760	 -4.93167	 35.20713	  3.84912	 22.31988	 -1.23213	 42.45893	710.79999	 32.90	
 18.706	-158.818	 35.74315	 -5.46960	 36.17658	  5.65588	 19.96366	 -1.30146	 42.42656	710.79999	 32.90	
 18.691	-164.085	 35.69409	 -5.97334	 36.88749	  7.57361	 17.69009	 -1.34684	 42.41746	710.82001	 32.90	
 18.703	-169.441	 35.65534	 -6.30515	 37.40175	  9.49012	 15.40629	 -1.40658	 42.42792	710.83002	 32.90	
 18.709	-174.675	 35.61382	 -6.42649	 37.63935	 11.82315	 13.14042	 -1.48786	 42.43528	710.87000	 32.90	
 18.700	180.000	 35.57721	 -6.46162	 37.62622	 14.07527	 10.81359	 -1.57239	 42.43753	710.79999	 32.90	
 20.400	180.000	 34.06810	 -8.54870	 38.73490	 12.86558	  9.49666	 -1.54259	 42.42069	710.78998	 32.90	
 20.401	-175.153	 34.13998	 -8.43613	 38.74845	 10.51215	 11.86989	 -1.44458	 42.43733	710.82001	 32.90	
 20.407	-170.264	 34.17308	 -8.32859	 38.54131	  8.50262	 14.17980	 -1.35371	 42.42845	710.81000	 32.90	
 20.410	-165.423	 34.21202	 -8.24370	 38.14839	  6.63658	 16.35951	 -1.27991	 42.42937	710.84998	 32.90	
 20.392	-160.496	 34.27100	 -7.90749	 37.48641	  4.72458	 18.66763	 -1.20766	 42.44377	710.77002	 32.90	
 20.401	-155.705	 34.24697	 -7.45170	 36.60818	  2.93602	 20.88366	 -1.14839	 42.42157	710.78998	 32.90	
 20.405	-150.835	 34.27639	 -6.74884	 35.53010	  1.29636	 23.13597	 -1.12253	 42.42561	710.85999	 32.90	
 20.397	-145.903	 34.31473	 -5.76959	 34.17633	 -0.32275	 25.32155	 -1.06658	 42.43495	710.84003	 32.90	
 20.392	-141.062	 34.31188	 -4.91874	 32.67592	 -1.73662	 27.27358	 -0.99622	 42.43319	710.75000	 32.90	
 20.396	-136.227	 34.33738	 -3.93220	 31.06224	 -2.97993	 29.17318	 -0.97433	 42.45328	710.73999	 32.90	
 20.408	-131.372	 34.31903	 -2.80885	 29.26431	 -4.04390	 30.89497	 -0.94130	 42.44136	710.88000	 32.90	
 20.410	-126.511	 34.27301	 -1.67403	 27.42712	 -5.09053	 32.52147	 -0.90342	 42.44126	710.79999	 32.90	
 20.400	-121.604	 34.19519	 -0.30866	 25.32702	 -6.17449	 34.05877	 -0.87724	 42.42595	710.78998	 32.90	
 20.403	-116.741	 34.08605	  1.16335	 23.08788	 -7.13879	 35.40304	 -0.83897	 42.42374	710.76001	 32.90	
 20.413	-111.900	 34.06044	  2.89343	 20.86119	 -7.76001	 36.56203	 -0.85570	 42.43228	710.75000	 32.90	
 20.398	-107.004	 34.08153	  4.82280	 18.69355	 -8.01330	 37.42709	 -0.87736	 42.43173	710.76001	 32.90	
 20.394	-102.132	 34.01650	  6.73406	 16.44746	 -8.42701	 38.11224	 -0.89180	 42.43204	710.84003	 32.90	
 20.403	-97.332	 33.91116	  8.71782	 14.09440	 -8.93105	 38.57320	 -0.86173	 42.43559	710.75000	 32.90	
 20.392	-92.440	 33.87500	 10.82054	 11.84294	 -8.94421	 38.78849	 -0.87107	 42.44005	710.77002	 32.90	
 20.392	-87.560	 33.74010	 12.77319	  9.58563	 -9.09461	 38.80931	 -0.90162	 42.42872	710.78003	 32.90	
 20.403	-82.668	 33.70465	 14.81909	  7.64072	 -8.84762	 38.65000	 -0.89389	 42.45174	710.85999	 32.90	
 20.394	-77.868	 33.61531	 16.96005	  5.60906	 -8.75551	 38.23354	 -0.92957	 42.44129	710.84998	 32.90	
 20.398	-72.996	 33.50373	 19.12310	  3.60971	 -8.67349	 37.60864	 -0.92820	 42.42606	710.91998	 32.90	
 20.413	-68.100	 33.36633	 21.30677	  1.67018	 -8.37008	 36.78152	 -0.91841	 42.41513	710.90002	 32.90	
 20.403	-63.259	 33.28453	 23.46895	 -0.06751	 -7.87062	 35.67789	 -0.94878	 42.43638	710.90997	 32.90	
 20.400	-58.396	 33.21034	 25.59576	 -1.68332	 -7.27658	 34.37309	 -0.98363	 42.43351	710.94000	 32.90	
 20.410	-53.489	 33.09967	 27.65393	 -3.15376	 -6.46726	 32.87542	 -1.00995	 42.42557	710.92999	 32.90	
 20.408	-48.628	 33.02850	 29.58591	 -4.36276	 -5.44538	 31.21310	 -1.11754	 42.41233	710.88000	 32.90	
 20.396	-43.773	 32.98663	 31.40781	 -5.49845	 -4.28493	 29.49073	 -1.15280	 42.42645	710.88000	 32.90	
 20.392	-38.938	 32.89075	 33.09269	 -6.47168	 -3.18345	 27.66251	 -1.18188	 42.45711	710.94000	 32.90	
 20.397	-34.097	 32.78671	 34.60625	 -7.29333	 -1.98636	 25.60284	 -1.27916	 42.44333	710.81000	 32.90	
 20.405	-29.165	 32.67080	 36.00833	 -8.21152	 -0.61779	 23.66304	 -1.34493	 42.44360	710.79999	 32.90	
 20.401	-24.295	 32.54166	 37.14954	 -8.89114	  0.94547	 21.44433	 -1.40001	 42.43143	710.84998	 32.90	
 20.392	-19.504	 32.42238	 38.15152	 -9.90876	  2.61417	 19.17510	 -1.43992	 42.44384	710.84998	 32.90	
 20.410	-14.577	 32.27893	 38.94798	-10.65510	  4.40236	 16.71327	 -1.48117	 42.43074	710.91998	 32.90	
 20.407	 -9.736	 32.22464	 39.48160	-11.01475	  6.26041	 14.38501	 -1.60787	 42.44981	710.78998	 32.90	
 20.401	 -4.847	 32.18667	 39.78383	-11.13778	  8.30594	 11.90996	 -1.70124	 42.44296	710.85999	 32.90	
 20.400	  0.000	 32.17176	 39.84567	-10.84987	 10.25498	  9.86499	 -1.83785	 42.42723	710.85999	 32.90	
 20.401	  4.847	 32.04121	 39.77982	-11.32820	 11.77285	  8.04387	 -1.95476	 42.42328	710.84003	 32.90	
 20.407	  9.736	 31.99308	 39.51804	-11.33987	 14.26246	  5.98369	 -2.01278	 42.43174	710.87000	 32.90	
 20.410	 14.577	 31.97336	 39.03305	-11.13308	 16.60114	  4.01757	 -2.12397	 42.45971	710.79999	 32.90	
 20.392	 19.504	 31.97305	 38.26985	-10.75196	 18.92051	  2.14260	 -2.19620	 42.44376	711.00000	 32.90	
 20.401	 24.295	 31.93645	 37.34209	-10.31268	 21.11671	  0.36626	 -2.27124	 42.42127	710.94000	 32.90	
 20.405	 29.165	 31.94538	 36.19942	 -9.68460	 23.22812	 -1.29648	 -2.34532	 42.42636	710.84998	 32.90	
 20.397	 34.097	 32.01312	 34.86507	 -8.79365	 25.41819	 -2.74348	 -2.41835	 42.42810	710.84998	 32.90	
 20.392	 38.938	 32.04901	 33.36528	 -7.84743	 27.53424	 -4.10098	 -2.47024	 42.42879	710.81000	 32.90	
 20.396	 43.773	 32.02659	 31.69664	 -6.86053	 29.44274	 -5.35548	 -2.52719	 42.42599	710.84998	 32.90	
 20.408	 48.628	 32.03465	 29.87984	 -5.70783	 31.21876	 -6.52646	 -2.61305	 42.44553	710.84998	 32.90	
 20.410	 53.489	 32.08278	 27.91755	 -4.48912	 32.93728	 -7.56124	 -2.67765	 42.45241	710.95001	 32.90	
 20.400	 58.396	 32.06945	 25.75798	 -3.14767	 34.48031	 -8.48796	 -2.75097	 42.41618	710.84003	 32.90	
 20.403	 63.259	 32.12122	 23.60590	 -1.61765	 35.85758	 -9.20724	 -2.78363	 42.45135	710.85999	 32.90	
 20.413	 68.100	 32.11289	 21.37183	 -0.14599	 37.00917	 -9.82001	 -2.81333	 42.41891	710.84003	 32.90	
 20.398	 72.996	 32.16521	 19.17101	  1.68394	 37.99209	-10.24405	 -2.80938	 42.43242	710.87000	 32.90	
 20.394	 77.868	 32.21809	 16.98602	  3.48908	 38.72481	-10.51087	 -2.81899	 42.42147	710.84003	 33.00	
 20.403	 82.668	 32.28529	 14.90257	  5.31157	 39.26688	-10.55564	 -2.86550	 42.42723	710.85999	 33.00	
 20.392	 87.560	 32.37558	 12.84774	  7.28688	 39.58427	-10.57151	 -2.93454	 42.42346	710.77002	 33.00	
 20.392	 92.440	 32.44179	 10.92852	  9.20772	 39.70806	-10.73903	 -3.03706	 42.43721	710.97998	 33.00	
 20.403	 97.332	 32.46756	  8.81867	 11.43484	 39.62647	-10.85862	 -2.99529	 42.42661	710.92999	 33.00	
 20.394	102.132	 32.56421	  6.82448	 13.76543	 39.34924	-10.56788	 -2.94712	 42.43410	710.87000	 33.00	
 20.398	107.004	 32.60198	  4.83011	 16.00468	 38.85167	-10.46930	 -2.86668	 42.41720	710.92999	 32.90	
 20.413	111.900	 32.71897	  2.92888	 18.37848	 38.12722	-10.00305	 -2.80298	 42.43969	710.94000	 32.90	
 20.403	116.741	 32.83592	  1.22673	 20.60962	 37.14006	 -9.32416	 -2.73702	 42.42941	710.87000	 32.90	
 20.400	121.604	 32.96120	 -0.28136	 22.87716	 36.00947	 -8.48044	 -2.67222	 42.41954	710.90002	 32.90	
 20.410	126.511	 33.07056	 -1.63991	 25.10629	 34.65922	 -7.66777	 -2.60354	 42.41519	710.83002	 32.90	
 20.408	131.372	 33.17031	 -2.93933	 27.21400	 33.17482	 -6.76070	 -2.55980	 42.44334	710.90997	 32.90	
 20.396	136.227	 33.26013	 -4.09565	 29.15259	 31.48907	 -5.61540	 -2.48295	 42.42708	710.87000	 32.90	
 20.392	141.062	 33.37793	 -5.18897	 30.99326	 29.64101	 -4.36634	 -2.41154	 42.44203	710.77002	 32.90	
 20.397	145.903	 33.49215	 -6.12847	 32.68399	 27.73798	 -2.99095	 -2.30374	 42.44760	710.77002	 32.90	
 20.405	150.835	 33.53902	 -6.85641	 34.17144	 25.64252	 -1.64819	 -2.22376	 42.42921	710.70001	 32.90	
 20.401	155.705	 33.61610	 -7.55826	 35.45288	 23.63199	 -0.20216	 -2.09999	 42.41451	710.65002	 32.90	
 20.392	160.496	 33.73224	 -8.19271	 36.52917	 21.50876	  1.61686	 -1.99370	 42.43436	710.75000	 32.90	
 20.410	165.423	 33.79774	 -8.72857	 37.44773	 19.31968	  3.45414	 -1.85635	 42.41274	710.79999	 32.90	
 20.407	170.264	 33.88971	 -9.03874	 38.10932	 17.08772	  5.46531	 -1.75266	 42.42625	710.77002	 32.90	
 20.401	175.153	 33.97322	 -8.88856	 38.55972	 14.94561	  7.47771	 -1.64510	 42.44640	710.85999	 32.90	
  0.141	 45.000	 42.49085	 19.78266	 17.20449	 19.94588	 17.85181	  0.98906	 42.41509	710.79999	 32.90	
  4.001	128.691	 42.31582	 16.07826	 20.30406	 23.52404	 13.50676	  0.75231	 42.43175	710.72998	 32.90	
  4.002	 76.995	 42.24378	 20.47565	 15.72982	 24.40259	 12.59781	  0.91122	 42.44950	710.75000	 32.90	
  4.002	 25.892	 42.21474	 24.26324	 12.45888	 21.20412	 15.34539	  0.98688	 42.45151	710.78003	 32.90	
  4.002	-25.892	 42.28601	 24.21554	 12.65341	 16.88417	 20.04234	  0.88372	 42.43967	710.84998	 32.90	
  4.002	-76.995	 42.38908	 20.41660	 16.16957	 14.40287	 22.71248	  0.71667	 42.42276	710.76001	 32.90	
  4.001	-128.691	 42.42424	 16.01784	 20.72980	 15.52775	 21.52397	  0.62827	 42.42727	710.82001	 32.90	
  4.000	180.000	 42.40574	 14.23129	 22.72745	 19.68432	 17.59884	  0.62928	 42.42067	710.82001	 33.00	
  8.000	180.000	 41.72029	  8.47312	 27.57820	 19.03280	 16.46256	 -0.05402	 42.46482	710.79999	 33.00	
  7.991	-152.370	 41.77957	  9.51538	 26.46009	 14.16105	 21.67766	 -0.12109	 42.44978	710.70001	 33.00	
  7.997	-124.550	 41.76545	 12.55548	 22.89660	 10.58162	 25.56792	 -0.18372	 42.45142	710.71002	 33.00	
  8.006	-96.837	 41.67446	 16.99763	 17.79187	  8.81162	 27.64480	 -0.07694	 42.42916	710.79999	 33.00	
  7.988	-69.228	 41.54778	 22.06926	 12.97809	  9.13021	 26.99383	 -0.06544	 42.44883	710.76001	 33.00	
  7.997	-41.563	 41.35150	 26.53395	  8.94977	 11.45090	 23.78423	  0.05136	 42.43991	710.67999	 33.00	
  8.008	-13.821	 41.16685	 29.09457	  6.60760	 15.40433	 19.37810	  0.27279	 42.43533	710.75000	 33.00	
  8.008	 13.821	 41.06736	 29.12766	  6.42204	 20.43925	 14.17623	  0.31805	 42.45313	710.71997	 33.00	
  7.997	 41.563	 41.01230	 26.56900	  8.25787	 24.97604	  9.93110	  0.31812	 42.42809	710.84003	 33.00	
  7.988	 69.228	 41.07857	 22.11929	 12.05634	 28.24531	  7.37330	  0.20003	 42.43695	710.78998	 33.00	
  8.006	 96.837	 41.19313	 17.07691	 16.85824	 29.20101	  6.84407	  0.05455	 42.44629	710.76001	 33.00	
  7.997	124.550	 41.35394	 12.60513	 21.94909	 27.48827	  8.35354	 -0.03285	 42.42593	710.84998	 33.00	
  7.991	152.370	 41.54522	  9.54400	 25.93236	 23.63228	 11.79923	 -0.17897	 42.42529	710.82001	 33.00	
 12.009	161.059	 39.90450	  3.12562	 30.54957	 22.62605	  9.86185	 -1.11646	 42.41270	710.84003	 33.00	
 12.013	142.081	 39.70277	  5.09856	 27.49597	 27.31125	  5.60429	 -1.10462	 42.41275	710.84003	 33.00	
 12.006	123.113	 39.49549	  8.50014	 22.99803	 30.92873	  2.48787	 -1.02377	 42.43946	710.79999	 33.00	
 12.007	104.200	 39.31911	 12.97228	 17.76339	 33.04312	  0.97664	 -0.97076	 42.44728	710.79999	 33.00	
 11.989	 85.301	 39.15661	 18.04003	 12.55282	 33.20601	  0.75825	 -0.83459	 42.43021	710.81000	 33.00	
 12.013	 66.294	 39.02389	 23.26617	  7.72414	 31.47362	  1.76113	 -0.84171	 42.43428	710.89001	 33.00	
 12.012	 47.388	 38.93050	 27.95544	  3.88740	 28.15435	  4.01069	 -0.65257	 42.41539	710.78998	 33.00	
 11.990	 28.440	 38.97339	 31.45632	  1.47395	 23.52275	  7.88131	 -0.59648	 42.44800	710.84003	 33.00	
 11.991	  9.464	 39.02977	 33.31301	  0.30642	 18.58046	 12.61093	 -0.58098	 42.43684	710.87000	 33.00	
 11.991	 -9.464	 39.15651	 33.28059	  0.54927	 13.57528	 17.81132	 -0.68136	 42.43519	710.92999	 33.00	
 11.990	-28.440	 39.33041	 31.36582	  2.07690	  9.06284	 23.01136	 -0.88015	 42.41566	710.85999	 33.00	
 12.012	-47.388	 39.53150	 27.87709	  4.82162	  5.57782	 27.39133	 -0.94605	 42.42695	710.83002	 33.00	
 12.013	-66.294	 39.73675	 23.18561	  9.03558	  3.32101	 30.46538	 -1.01629	 42.42497	710.83002	 33.00	
 11.989	-85.301	 39.92605	 17.94215	 14.03578	  2.48962	 31.84501	 -1.00654	 42.41473	710.83002	 33.00	
 12.007	-104.200	 40.08760	 12.94177	 19.20661	  3.11081	 31.32872	 -1.00693	 42.43275	710.81000	 33.00	
 12.006	-123.113	 40.17170	  8.49119	 24.36117	  5.10519	 28.96616	 -1.06049	 42.43304	710.84003	 33.00	
 12.013	-142.081	 40.22152	  5.20098	 28.49901	  8.29580	 24.99271	 -1.02693	 42.45399	710.79999	 33.00	
 12.009	-161.059	 40.18139	  3.11360	 31.10608	 12.59561	 20.28749	 -1.10579	 42.43763	710.90997	 33.00	
 16.000	180.000	 37.64495	 -3.11288	 35.55414	 15.65286	 12.59146	 -1.56620	 42.43502	710.85999	 33.00	
 15.990	-165.604	 37.75775	 -2.71002	 35.04752	 10.68486	 17.94587	 -1.44990	 42.43807	710.84003	 33.00	
 16.002	-151.165	 37.80283	 -1.19269	 33.01489	  5.94363	 23.30499	 -1.28293	 42.41578	710.90002	 33.00	
 16.002	-136.836	 37.81791	  0.92704	 29.63617	  2.27921	 27.81226	 -1.15156	 42.41889	710.85999	 33.00	
 15.995	-122.439	 37.76078	  4.33736	 25.22993	 -0.47130	 31.72128	 -1.12553	 42.43656	710.96997	 33.00	
 15.993	-107.966	 37.65947	  8.47667	 20.01877	 -2.09702	 34.38098	 -1.08461	 42.39508	710.84003	 33.00	
 16.005	-93.629	 37.50194	 13.27050	 14.78043	 -3.19741	 35.72400	 -1.07721	 42.42686	710.78003	 33.00	
 15.992	-79.234	 37.31996	 18.42299	  9.56275	 -3.00345	 35.38136	 -1.12053	 42.42688	710.71997	 33.00	
 16.009	-64.774	 37.13742	 23.62721	  4.73290	 -2.11385	 33.43282	 -1.17624	 42.44210	710.79999	 33.00	
 15.997	-50.364	 36.91394	 28.40977	  0.78618	 -0.24492	 30.12103	 -1.24014	 42.42695	710.77002	 33.00	
 15.997	-36.045	 36.71560	 32.39740	 -1.90815	  2.58833	 25.87543	 -1.37314	 42.41251	710.84998	 33.00	
 16.000	-21.597	 36.49624	 35.33201	 -3.81954	  6.31781	 21.11366	 -1.44932	 42.44434	710.78003	 33.00	
 16.003	 -7.169	 36.32168	 36.78055	 -4.86115	 11.07625	 15.72904	 -1.40255	 42.41317	710.92999	 33.00	
 16.003	  7.169	 36.17780	 36.81331	 -5.06756	 16.20428	 10.49590	 -1.46484	 42.43629	710.83002	 33.00	
 16.000	 21.597	 36.14242	 35.36016	 -4.37941	 21.33146	  5.63640	 -1.53904	 42.41886	710.77002	 33.00	
 15.997	 36.045	 36.12253	 32.51050	 -2.79052	 26.25091	  1.57152	 -1.53794	 42.41416	710.85999	 33.00	
 15.997	 50.364	 36.11197	 28.53685	 -0.19344	 30.60691	 -1.35937	 -1.70424	 42.42407	710.87000	 33.00	
 16.009	 64.774	 36.17595	 23.69839	  3.26083	 34.02571	 -3.53824	 -1.91275	 42.42078	710.84003	 33.00	
 15.992	 79.234	 36.26588	 18.52668	  7.58646	 36.14612	 -4.60925	 -1.88540	 42.40470	710.84998	 33.00	
 16.005	 93.629	 36.45425	 13.35223	 12.74497	 36.85451	 -4.82220	 -1.90190	 42.41540	710.81000	 33.00	
 15.993	107.966	 36.65064	  8.53148	 18.12114	 36.05855	 -4.03394	 -2.02429	 42.41835	710.82001	 33.00	
 15.995	122.439	 36.86727	  4.34462	 23.40283	 33.67086	 -2.75224	 -1.95599	 42.42672	710.87000	 33.00	
 16.002	136.836	 37.04873	  0.93224	 28.17089	 30.09050	 -0.34127	 -1.92808	 42.43587	710.84003	 33.00	
 16.002	151.165	 37.26497	 -1.27098	 31.94516	 25.66813	  3.16129	 -1.93962	 42.41730	710.87000	 33.00	
 15.990	165.604	 37.48548	 -2.64612	 34.48803	 20.93733	  7.42480	 -1.72282	 42.43368	710.91998	 33.00	
 20.003	168.362	 34.25786	 -8.36593	 37.62544	 18.19282	  4.96386	 -1.81219	 42.42953	710.87000	 33.00	
 20.008	156.764	 34.02696	 -7.18306	 35.47800	 23.23363	  0.62247	 -2.08571	 42.40023	710.82001	 33.00	
 20.000	145.147	 33.82845	 -5.51154	 32.27407	 28.02412	 -2.77835	 -2.34105	 42.42725	710.84998	 33.00	
 19.995	133.545	 33.58105	 -2.99438	 28.02485	 32.32467	 -5.74473	 -2.49175	 42.42014	710.82001	 33.00	
 20.009	121.926	 33.37812	  0.07063	 23.11259	 35.73029	 -7.81831	 -2.66884	 42.42345	710.84998	 33.00	
 20.005	110.327	 33.08651	  3.94778	 17.79855	 38.15184	 -9.54598	 -2.81060	 42.42519	710.85999	 33.00	
 19.989	 98.733	 32.89776	  8.53821	 12.37088	 39.32243	-10.25322	 -2.92110	 42.41193	710.84003	 33.00	
 19.999	 87.075	 32.74437	 13.33308	  7.34170	 39.31656	-10.02586	 -2.86985	 42.39622	710.84998	 33.00	
 19.992	 75.457	 32.60340	 18.23274	  2.97762	 38.17771	 -9.86703	 -2.76675	 42.41820	710.84003	 33.00	
 20.009	 63.844	 32.50661	 23.42370	 -1.08146	 35.83934	 -8.79097	 -2.75275	 42.44049	710.67999	 33.00	
 19.989	 52.269	 32.47490	 28.35855	 -4.31702	 32.40599	 -6.79051	 -2.62508	 42.43933	710.75000	 33.00	
 19.999	 40.602	 32.44741	 32.70401	 -7.02727	 28.19175	 -4.10481	 -2.45321	 42.45759	710.77002	 33.00	
 20.004	 29.051	 32.35738	 36.06804	 -9.15389	 23.26793	 -0.87610	 -2.29965	 42.43456	710.85999	 33.00	
 20.005	 17.433	 32.36094	 38.40627	-10.37825	 18.13625	  3.26704	 -2.17164	 42.43427	710.69000	 33.00	
 20.006	  5.780	 32.42180	 39.53506	-10.89882	 12.52481	  7.93194	 -1.95190	 42.43103	710.76001	 33.00	
 20.006	 -5.780	 32.59473	 39.49249	-10.51578	  8.20672	 12.75771	 -1.69727	 42.43387	710.71997	 33.00	
 20.005	-17.433	 32.75114	 38.29677	 -9.67885	  3.76902	 18.29354	 -1.49735	 42.42424	710.77002	 33.10	
 20.004	-29.051	 33.04661	 35.85160	 -7.68563	 -0.11930	 23.66059	 -1.38743	 42.43418	710.82001	 33.10	
 19.999	-40.602	 33.29828	 32.45432	 -5.78139	 -3.04620	 28.24224	 -1.23194	 42.44512	710.81000	 33.00	
 19.989	-52.269	 33.48784	 28.18722	 -3.12341	 -5.59602	 32.29908	 -1.08246	 42.40315	710.77002	 33.00	
 20.009	-63.844	 33.67775	 23.33269	  0.47135	 -7.39350	 35.59496	 -0.99627	 42.41696	710.78998	 33.00	
 19.992	-75.457	 33.93714	 18.23421	  4.91532	 -8.13969	 37.67778	 -0.94809	 42.40173	710.85999	 33.10	
 19.999	-87.075	 34.11934	 13.20232	  9.76692	 -8.39613	 38.53752	 -0.89821	 42.41879	710.90002	 33.00	
 19.989	-98.733	 34.29982	  8.41293	 15.00716	 -8.20969	 38.18220	 -0.89925	 42.41523	710.95001	 33.00	
 20.005	-110.327	 34.42710	  3.92057	 20.20935	 -7.28046	 36.64023	 -0.90801	 42.40199	710.83002	 33.00	
 20.009	-121.926	 34.53558	  0.10006	 25.38844	 -5.73711	 33.79223	 -0.94319	 42.39286	710.84998	 33.00	
 19.995	-133.545	 34.66821	 -2.88588	 29.96207	 -3.15472	 30.02294	 -0.97980	 42.42105	710.90002	 33.00	
 20.000	-145.147	 34.65661	 -5.16238	 33.75067	 -0.10352	 25.51822	 -1.09906	 42.40312	710.90002	 33.00	
 20.008	-156.764	 34.58769	 -7.00389	 36.57753	  3.63922	 20.51871	 -1.23189	 42.40951	710.90002	 33.00	
 20.003	-168.362	 34.51484	 -7.82491	 38.11873	  8.04342	 15.25599	 -1.36706	 42.39430	710.88000	 33.00	
 20.000	180.000	 34.39186	 -8.05787	 38.44094	 13.17328	  9.78881	 -1.55938	 42.38004	710.70001	 33.00	
