FileType=PCF
NHL=14
Date=03/13/19	11:13:17
Facility=APL
Serial=16071-4
Customer=NASA
NP=6
Mach=0.450000
Calibration=1:1
CalPts=490
TstPts=95
PortNumbering=AP Standard
Units=Torr C m/s kg/m^3 deg mm 
Theta[deg]	Phi[deg]	P1[Torr]	P2[Torr]	P3[Torr]	P4[Torr]	P5[Torr]	P6[Torr]	Pt[Torr]	Ps[Abs,Torr]	Ts[C]	
  0.000	  0.000	 91.49322	 43.50843	 38.62791	 42.57311	 39.05562	  2.02615	 91.32995	711.65002	 37.90	
  1.691	128.401	 91.46319	 40.49571	 41.33681	 46.36842	 35.60926	  1.95305	 91.30091	711.48999	 38.00	
  1.692	 77.194	 91.43458	 44.42698	 37.19819	 47.08638	 34.76448	  2.07106	 91.29855	711.53998	 38.10	
  1.699	 26.182	 91.44550	 47.66483	 34.15526	 44.39632	 37.21616	  2.13373	 91.34897	711.59003	 38.20	
  1.699	-26.182	 91.54492	 47.69173	 34.34368	 40.47156	 40.82248	  2.04893	 91.40034	711.58002	 38.30	
  1.692	-77.194	 91.61985	 44.46472	 37.71229	 38.20516	 43.61083	  1.91177	 91.44803	711.64001	 38.40	
  1.691	-128.401	 91.62847	 40.49354	 41.80445	 39.17150	 42.59164	  1.80621	 91.46126	711.57001	 38.50	
  1.700	180.000	 91.61890	 38.72811	 43.56522	 42.75507	 39.00157	  1.82075	 91.46614	711.53003	 38.60	
  3.400	180.000	 91.57373	 33.86890	 48.23504	 42.57252	 38.74049	  1.48768	 91.46371	711.50000	 38.70	
  3.388	-152.325	 91.59385	 34.83313	 47.21159	 38.49005	 42.93512	  1.47013	 91.45817	711.56000	 38.80	
  3.397	-124.529	 91.62134	 37.68387	 44.15068	 35.29064	 46.67534	  1.45713	 91.47841	711.53998	 38.90	
  3.399	-96.763	 91.61836	 41.86412	 39.73173	 33.54239	 48.47362	  1.51653	 91.49648	711.46997	 39.00	
  3.394	-69.283	 91.58437	 46.39920	 35.20243	 33.91012	 47.84435	  1.65993	 91.53667	711.59998	 39.10	
  3.400	-41.398	 91.52472	 50.27050	 31.74324	 36.25472	 44.98952	  1.80920	 91.54663	711.59003	 39.20	
  3.401	-14.021	 91.40826	 52.39812	 29.47244	 39.80710	 40.68629	  1.95564	 91.51430	711.58002	 39.30	
  3.401	 14.021	 91.35025	 52.42476	 29.20105	 44.13018	 36.72172	  2.04768	 91.55419	711.51001	 39.30	
  3.400	 41.398	 91.34779	 50.30429	 31.22990	 48.25598	 32.83797	  2.06210	 91.56819	711.53998	 39.40	
  3.394	 69.283	 91.40942	 46.51410	 34.46985	 51.55593	 30.33952	  1.99156	 91.62471	711.60999	 39.50	
  3.399	 96.763	 91.47365	 42.05360	 38.76552	 52.36773	 29.78097	  1.87992	 91.59356	711.50000	 39.60	
  3.397	124.529	 91.56156	 37.82816	 43.36107	 50.84073	 31.24444	  1.71795	 91.59176	711.57001	 39.70	
  3.388	152.325	 91.71489	 34.93013	 46.83066	 47.08621	 34.64024	  1.57850	 91.66960	711.53003	 39.70	
  5.099	161.165	 91.35470	 29.58157	 51.57285	 46.75127	 33.73307	  1.08045	 91.60185	711.53998	 39.80	
  5.109	142.013	 91.22675	 31.69705	 48.97186	 51.45488	 29.64249	  1.20368	 91.63264	711.56000	 39.90	
  5.095	123.033	 91.11225	 34.87402	 45.09186	 54.74568	 26.74781	  1.33989	 91.61916	711.58002	 39.90	
  5.105	104.191	 90.98800	 39.07735	 40.44070	 56.48591	 25.15380	  1.51625	 91.65092	711.59003	 40.00	
  5.093	 85.207	 90.92398	 43.74386	 35.78134	 56.63044	 24.94135	  1.68235	 91.69019	711.52002	 40.10	
  5.104	 66.290	 90.84176	 48.37181	 31.63458	 55.25316	 25.92817	  1.78798	 91.69283	711.57001	 40.10	
  5.094	 47.331	 90.75049	 52.25450	 27.39505	 52.30957	 28.32158	  1.87532	 91.65993	711.58002	 40.20	
  5.089	 28.397	 90.76392	 55.37926	 24.88521	 47.89701	 31.89439	  1.89807	 91.66641	711.59998	 40.30	
  5.096	  9.576	 90.82612	 57.10010	 23.59189	 43.41876	 36.12548	  1.85501	 91.70744	711.46002	 40.30	
  5.096	 -9.576	 90.91280	 57.08988	 23.75340	 39.15976	 40.54633	  1.72281	 91.66844	711.50000	 40.40	
  5.089	-28.397	 91.06741	 55.36391	 25.39790	 35.03081	 44.91555	  1.55110	 91.70592	711.56000	 40.40	
  5.094	-47.331	 91.18787	 52.20215	 28.30359	 31.64295	 49.00755	  1.40742	 91.67486	711.50000	 40.50	
  5.104	-66.290	 91.31523	 48.11510	 32.78383	 29.45012	 52.13630	  1.24251	 91.65635	711.53003	 40.60	
  5.093	-85.207	 91.49323	 43.52971	 37.02859	 28.59764	 53.37337	  1.08094	 91.69686	711.53998	 40.60	
  5.105	-104.191	 91.57972	 38.97058	 41.87075	 29.13579	 52.94520	  1.00930	 91.74144	711.58002	 40.70	
  5.095	-123.033	 91.67247	 34.81699	 46.26489	 31.10512	 50.74511	  0.94238	 91.75442	711.53998	 40.70	
  5.109	-142.013	 91.61437	 31.66145	 49.83556	 34.22435	 46.89940	  0.92149	 91.69077	711.57001	 40.80	
  5.099	-161.165	 91.62204	 29.67853	 52.05135	 38.27518	 42.35317	  0.93084	 91.71898	711.50000	 40.90	
  5.100	180.000	 91.59782	 28.93946	 52.72599	 42.36898	 38.13901	  1.00603	 91.75362	711.40997	 40.90	
  6.800	180.000	 90.97765	 23.45969	 57.36960	 41.98809	 37.27817	  0.42411	 91.77112	711.53998	 41.00	
  6.796	-166.229	 91.05652	 24.18195	 56.92845	 37.84628	 41.32727	  0.38234	 91.76078	711.59003	 41.00	
  6.808	-152.311	 91.09350	 25.67671	 55.30333	 33.63414	 46.07395	  0.35472	 91.73991	711.40997	 41.10	
  6.795	-138.383	 91.16257	 28.09772	 52.38313	 30.03532	 50.27821	  0.36225	 91.78098	711.53003	 41.10	
  6.792	-124.591	 91.14607	 31.29623	 48.79441	 27.17524	 53.92888	  0.34416	 91.78108	711.44000	 41.20	
  6.787	-110.754	 91.10549	 35.07409	 44.61600	 25.13608	 56.32293	  0.34158	 91.79973	711.53998	 41.30	
  6.800	-96.985	 91.00673	 39.37458	 39.98146	 23.91202	 57.66225	  0.41782	 91.79765	711.44000	 41.30	
  6.800	-83.015	 90.91148	 43.91066	 35.32388	 23.70663	 57.71933	  0.51592	 91.83286	711.47998	 41.40	
  6.787	-69.246	 90.82790	 48.35488	 31.23479	 24.53713	 56.57055	  0.60238	 91.85992	711.45001	 41.40	
  6.792	-55.409	 90.65973	 52.59240	 26.70991	 26.21128	 54.29485	  0.72536	 91.86682	711.46997	 41.40	
  6.795	-41.617	 90.49562	 56.29319	 23.33502	 28.74270	 50.64943	  0.89834	 91.87033	711.46002	 41.40	
  6.808	-27.689	 90.33023	 59.22422	 20.77972	 32.15055	 46.41196	  1.04001	 91.85526	711.46002	 41.50	
  6.796	-13.771	 90.14272	 61.03770	 19.19420	 36.23830	 41.72465	  1.20419	 91.82504	711.42999	 41.50	
  6.800	  0.000	 90.03298	 61.63703	 18.55590	 40.51392	 37.67656	  1.33486	 91.82851	711.45001	 41.60	
  6.796	 13.771	 89.95565	 61.05323	 18.76770	 44.61708	 33.27067	  1.44684	 91.86524	711.40997	 41.60	
  6.808	 27.689	 89.92962	 59.29866	 20.07974	 49.15838	 29.09465	  1.50157	 91.89385	711.50000	 41.70	
  6.795	 41.617	 89.87363	 56.35634	 22.34222	 53.70925	 25.55652	  1.39349	 91.84837	711.56000	 41.70	
  6.792	 55.409	 89.92801	 52.76309	 25.40679	 57.08437	 22.83927	  1.38015	 91.87749	711.41998	 41.70	
  6.787	 69.246	 90.03457	 48.62102	 29.36094	 59.44762	 21.07896	  1.29447	 91.88663	711.46997	 41.80	
  6.800	 83.015	 90.11259	 44.07077	 33.90378	 60.86086	 20.01614	  1.17991	 91.89668	711.47998	 41.80	
  6.800	 96.985	 90.22958	 39.48275	 38.28022	 61.13226	 19.92538	  1.05059	 91.91295	711.46997	 41.80	
  6.787	110.754	 90.34665	 35.12012	 42.96379	 60.14481	 20.86987	  0.93499	 91.85221	711.50000	 41.80	
  6.792	124.591	 90.50925	 31.39620	 47.37598	 58.19767	 22.61087	  0.78733	 91.86524	711.41998	 41.80	
  6.795	138.383	 90.68051	 27.87411	 51.13966	 55.21285	 25.28332	  0.67784	 91.88866	711.45001	 41.90	
  6.808	152.311	 90.83814	 25.38171	 54.32998	 50.80231	 28.82822	  0.57256	 91.88293	711.44000	 41.90	
  6.796	166.229	 91.02694	 23.88680	 56.60546	 46.28379	 33.04911	  0.48997	 91.92653	711.45001	 41.90	
  8.491	168.704	 90.04379	 18.81677	 60.95521	 45.61655	 31.72082	 -0.21130	 91.91457	711.42999	 42.00	
  8.502	157.493	 89.89415	 19.84685	 59.14016	 50.16825	 27.53141	 -0.14234	 91.88284	711.42999	 42.00	
  8.494	146.194	 89.77109	 21.82379	 56.39763	 54.98699	 23.82951	 -0.01025	 91.93909	711.56000	 42.10	
  8.495	135.039	 89.60944	 24.50282	 52.76690	 58.61013	 20.71957	  0.09077	 91.94518	711.46002	 42.10	
  8.487	123.723	 89.39617	 27.88832	 48.72227	 61.57266	 18.14948	  0.20984	 91.91029	711.48999	 42.10	
  8.492	112.575	 89.24215	 31.93373	 44.28609	 63.71500	 16.31354	  0.30724	 91.94932	711.53003	 42.20	
  8.510	101.220	 89.07687	 36.17594	 39.38757	 65.01005	 15.18103	  0.40693	 91.95715	711.57001	 42.20	
  8.500	 90.000	 88.92434	 40.70918	 34.81218	 65.20996	 14.86196	  0.52095	 91.94650	711.46997	 42.30	
  8.510	 78.780	 88.78664	 45.30373	 30.18132	 64.47989	 15.25370	  0.59553	 91.92793	711.53998	 42.30	
  8.492	 67.425	 88.71836	 50.02291	 25.77826	 62.75026	 16.55265	  0.56684	 91.93616	711.52002	 42.30	
  8.487	 56.277	 88.65140	 54.18839	 22.09176	 60.17183	 18.51267	  0.43430	 91.93069	711.51001	 42.40	
  8.495	 44.961	 88.56160	 58.04252	 18.87235	 56.81780	 21.03946	  0.72082	 91.88686	711.58002	 42.40	
  8.494	 33.806	 88.58114	 61.25824	 16.45456	 52.48577	 24.18209	  0.72706	 91.91295	711.57001	 42.40	
  8.502	 22.507	 88.56128	 63.71558	 14.70944	 48.04560	 27.90744	  0.83803	 91.87970	711.54999	 42.50	
  8.491	 11.296	 88.64223	 65.23973	 13.80221	 43.28436	 32.15582	  0.85726	 91.91014	711.57001	 42.50	
  8.500	  0.000	 88.75592	 65.73154	 13.65108	 39.26757	 36.70357	  0.78922	 91.92363	711.45001	 42.50	
  8.491	-11.296	 88.86240	 65.19321	 14.16982	 34.76531	 41.30459	  0.62694	 91.87993	711.48999	 42.50	
  8.502	-22.507	 89.05106	 63.70191	 15.54520	 30.66551	 45.60276	  0.44135	 91.93377	711.58002	 42.60	
  8.494	-33.806	 89.21323	 61.13043	 17.51914	 27.10382	 49.97506	  0.18869	 91.86708	711.46002	 42.60	
  8.495	-44.961	 89.44854	 57.98616	 20.19872	 24.09392	 54.39401	 -0.12321	 91.96288	711.48999	 42.60	
  8.487	-56.277	 89.63434	 54.01459	 23.66460	 21.50578	 57.77884	 -0.10493	 91.94984	711.58002	 42.60	
  8.492	-67.425	 89.77734	 49.88452	 27.65079	 19.96932	 60.08474	 -0.13466	 91.91386	711.53003	 42.60	
  8.510	-78.780	 89.91376	 45.25677	 32.50488	 18.81321	 61.59355	 -0.23952	 91.94406	711.62000	 42.70	
  8.500	-90.000	 90.04824	 40.60487	 36.91092	 18.66701	 62.02908	 -0.27885	 91.92525	711.45001	 42.70	
  8.510	-101.220	 90.18822	 36.07772	 41.68056	 19.29201	 61.51049	 -0.34855	 91.90364	711.42999	 42.70	
  8.492	-112.575	 90.26468	 31.90391	 46.28948	 20.70654	 59.88746	 -0.40680	 91.89752	711.64001	 42.70	
  8.487	-123.723	 90.38004	 27.76651	 50.54467	 22.78953	 57.45547	 -0.35860	 91.94396	711.45001	 42.80	
  8.495	-135.039	 90.43063	 24.39660	 54.51688	 25.57726	 54.15248	 -0.27679	 91.94083	711.45001	 42.80	
  8.494	-146.194	 90.41657	 21.72698	 57.77841	 28.84139	 49.77986	 -0.30057	 91.95193	711.46002	 42.80	
  8.502	-157.493	 90.37959	 20.00730	 60.16582	 32.77578	 45.25351	 -0.30240	 91.96097	711.44000	 42.80	
  8.491	-168.704	 90.27373	 18.91288	 61.39746	 37.03914	 40.80125	 -0.25452	 91.92248	711.51001	 42.80	
  8.500	180.000	 90.18998	 18.46961	 61.71884	 41.41751	 36.19677	 -0.21176	 91.93247	711.47998	 42.80	
 10.200	180.000	 88.98100	 13.22127	 65.68390	 40.32833	 34.93090	 -0.99279	 92.00169	711.50000	 42.90	
 10.191	-170.497	 89.05830	 13.62796	 65.46545	 36.04488	 39.64032	 -0.98381	 91.96971	711.44000	 42.90	
 10.210	-161.034	 89.06767	 14.55451	 64.40326	 31.50517	 44.03721	 -1.02825	 91.92056	711.56000	 42.90	
 10.194	-151.526	 89.16628	 16.13534	 62.51033	 27.49465	 48.74440	 -1.05167	 91.94829	711.40002	 42.90	
 10.190	-142.105	 89.19329	 18.18159	 59.76830	 24.06045	 53.17673	 -1.43005	 91.92594	711.53998	 42.90	
 10.215	-132.646	 89.17229	 20.82065	 56.23284	 20.82983	 57.45238	 -1.43380	 91.95083	711.50000	 42.90	
 10.203	-123.092	 89.12887	 24.22618	 52.13655	 18.19581	 60.68766	 -1.53914	 91.97552	711.65002	 42.90	
 10.192	-113.678	 89.04734	 28.22355	 47.80215	 16.25355	 63.15501	 -1.25711	 91.94589	711.59998	 43.00	
 10.208	-104.249	 88.95942	 32.61361	 43.14700	 14.76749	 64.88734	 -1.11060	 91.92165	711.52002	 43.00	
 10.210	-94.801	 88.85799	 37.06110	 38.26800	 13.93259	 65.84673	 -1.02546	 91.96712	711.54999	 43.00	
 10.210	-85.199	 88.72046	 41.77503	 33.75742	 13.82377	 65.87769	 -1.03960	 91.99455	711.59998	 43.00	
 10.208	-75.751	 88.52269	 46.44530	 28.81834	 14.17654	 65.04218	 -1.02670	 91.94612	711.54999	 43.00	
 10.192	-66.322	 88.36061	 51.02451	 24.22994	 15.19441	 63.37029	 -1.40366	 91.93253	711.57001	 43.00	
 10.203	-56.908	 88.21586	 55.25537	 20.41011	 16.91662	 61.01323	 -1.37561	 91.95667	711.57001	 43.00	
 10.215	-47.354	 88.00354	 59.36138	 16.97577	 19.11109	 57.83340	 -1.24064	 91.96947	711.59003	 43.10	
 10.190	-37.895	 87.86035	 62.84892	 14.18209	 22.00679	 53.61681	 -1.13097	 92.00063	711.59998	 43.10	
 10.194	-28.474	 87.61549	 65.64221	 11.81898	 25.35797	 49.03436	 -1.00490	 91.94230	711.57001	 43.10	
 10.210	-18.966	 87.41479	 67.75031	  9.85667	 29.15919	 44.28469	 -0.78796	 91.93700	711.56000	 43.10	
 10.191	 -9.503	 87.27534	 68.97897	  8.63163	 33.45469	 40.07365	 -0.31109	 91.93549	711.62000	 43.20	
 10.200	  0.000	 87.13184	 69.44320	  8.05434	 37.99330	 35.35488	  0.05527	 91.94006	711.53003	 43.20	
 10.191	  9.503	 86.99348	 68.97169	  8.38240	 42.39195	 30.83576	 -0.40246	 91.92893	711.46997	 43.20	
 10.210	 18.966	 86.90430	 67.77010	  9.19230	 46.62797	 26.56851	 -0.51461	 91.94393	711.48999	 43.30	
 10.194	 28.474	 86.92268	 65.72014	 10.68611	 51.27140	 22.71349	 -0.50349	 91.99471	711.53003	 43.30	
 10.190	 37.895	 86.96695	 62.89550	 12.80274	 55.68356	 19.40261	 -0.45823	 91.99101	711.53998	 43.30	
 10.215	 47.354	 86.88668	 59.35554	 15.27826	 59.89296	 16.33790	 -0.52395	 91.92355	711.48999	 43.30	
 10.203	 56.908	 86.98900	 55.32891	 18.43342	 63.22365	 13.93779	 -0.67400	 92.00975	711.52002	 43.40	
 10.192	 66.322	 86.98355	 51.02013	 22.03677	 65.77602	 11.93033	 -0.80758	 91.92139	711.42999	 43.40	
 10.208	 75.751	 87.07243	 46.46501	 26.21120	 67.68083	 10.59749	 -0.86438	 91.95320	711.50000	 43.40	
 10.210	 85.199	 87.18137	 41.71709	 30.77565	 68.74941	  9.92810	 -0.34805	 91.94213	711.53998	 43.40	
 10.210	 94.801	 87.34055	 37.02155	 35.66672	 68.98866	  9.86739	 -0.26827	 91.94835	711.60999	 43.40	
 10.208	104.249	 87.47692	 32.53304	 40.36386	 68.37585	 10.38898	 -1.08311	 91.91354	711.54999	 43.50	
 10.192	113.678	 87.69977	 28.22624	 45.18837	 66.99153	 11.65915	 -0.77236	 91.95090	711.48999	 43.50	
 10.203	123.092	 87.94106	 24.43865	 49.75046	 64.81551	 13.57251	 -1.18923	 91.97664	711.54999	 43.50	
 10.215	132.646	 88.13189	 21.10979	 53.96857	 61.89777	 15.94012	 -0.67949	 91.99854	711.47998	 43.50	
 10.190	142.105	 88.30620	 18.36305	 57.95465	 58.29504	 18.84081	 -0.95128	 91.98250	711.59003	 43.50	
 10.194	151.526	 88.44282	 16.10022	 61.05368	 53.87832	 22.09409	 -1.35600	 91.97536	711.48999	 43.50	
 10.210	161.034	 88.59743	 14.41145	 63.49210	 49.34714	 25.97710	 -0.95484	 91.94930	711.59998	 43.50	
 10.191	170.497	 88.81309	 13.51719	 65.02895	 44.65597	 30.39408	 -0.99006	 91.98820	711.50000	 43.50	
 11.899	171.783	 87.19637	  7.96670	 68.67389	 43.69980	 28.80622	 -2.39591	 91.99757	711.45001	 43.60	
 11.890	163.610	 87.05834	  8.95728	 67.34842	 48.11058	 24.48738	 -2.40488	 91.99106	711.51001	 43.60	
 11.889	155.445	 86.86929	 10.32091	 65.26933	 52.66153	 20.50221	 -2.47121	 91.97507	711.42999	 43.60	
 11.909	147.299	 86.66466	 12.21003	 62.45160	 57.24078	 17.00097	 -2.41507	 91.95996	711.53003	 43.60	
 11.902	139.148	 86.46092	 14.58758	 59.01738	 61.28392	 13.82933	 -2.30116	 91.94726	711.41998	 43.60	
 11.894	130.867	 86.29456	 17.56681	 54.83340	 64.76566	 11.08511	 -2.21721	 91.93716	711.42999	 43.60	
 11.897	122.732	 86.14156	 20.94663	 50.53360	 67.69032	  8.75581	 -2.15475	 91.95084	711.40002	 43.70	
 11.903	114.597	 85.95982	 24.54411	 46.00467	 69.84009	  6.98800	 -2.15286	 91.97259	711.41998	 43.70	
 11.893	106.346	 85.79398	 28.72346	 41.14706	 71.19449	  5.73568	 -2.08197	 91.96703	711.45001	 43.70	
 11.892	 98.155	 85.66322	 33.33137	 36.34858	 72.14692	  4.94474	 -1.97923	 91.99973	711.46997	 43.70	
 11.900	 90.000	 85.44427	 37.90435	 31.43476	 72.31060	  4.55286	 -1.46230	 91.96818	711.44000	 43.70	
 11.892	 81.845	 85.25263	 42.58498	 26.77640	 71.56551	  5.00514	 -1.79269	 91.91906	711.42999	 43.70	
 11.893	 73.654	 85.18459	 47.37238	 22.36029	 70.49117	  5.97497	 -1.79087	 91.98621	711.53003	 43.80	
 11.903	 65.403	 85.08772	 52.00378	 18.27814	 68.50099	  7.32145	 -1.75526	 91.97677	711.37000	 43.80	
 11.897	 57.268	 85.00363	 56.29189	 14.78375	 65.87348	  9.12893	 -1.65457	 91.97798	711.41998	 43.80	
 11.894	 49.133	 84.93719	 60.41416	 11.59142	 62.67363	 11.48237	 -1.43299	 91.98409	711.57001	 43.80	
 11.902	 40.852	 84.92984	 64.10188	  8.29739	 58.74508	 14.28619	 -1.34472	 91.96347	711.41998	 43.80	
 11.909	 32.701	 84.98493	 67.23031	  6.22896	 54.16242	 17.53897	 -1.35750	 92.00434	711.57001	 43.80	
 11.889	 24.555	 84.96095	 69.57248	  4.70480	 49.73928	 21.11354	 -1.41374	 91.95766	711.64001	 43.80	
 11.890	 16.390	 84.97814	 71.39278	  3.61484	 44.95698	 25.16299	 -1.41899	 91.97176	711.52002	 43.80	
 11.899	  8.217	 85.00523	 72.53010	  2.92345	 40.79785	 29.40955	 -1.44871	 91.92702	711.57001	 43.90	
 11.900	  0.000	 85.18454	 72.90720	  2.85246	 36.25885	 33.89868	 -1.15441	 91.92510	711.51001	 43.90	
 11.899	 -8.217	 85.33182	 72.50498	  3.31398	 31.78773	 38.72688	 -1.61932	 91.91227	711.53003	 43.90	
 11.890	-16.390	 85.49735	 71.33045	  4.21989	 27.57208	 43.30679	 -1.73829	 91.94498	711.48999	 43.90	
 11.889	-24.555	 85.67854	 69.52057	  5.72486	 23.74712	 47.69960	 -1.84794	 91.92574	711.48999	 44.00	
 11.909	-32.701	 85.82478	 67.15348	  7.77462	 20.05428	 52.26736	 -1.97128	 91.94153	711.51001	 44.00	
 11.902	-40.852	 86.02088	 64.09473	 10.35631	 16.88343	 56.84641	 -1.96393	 91.95618	711.41998	 44.00	
 11.894	-49.133	 86.22070	 60.32262	 13.61405	 14.23452	 60.73051	 -1.97604	 91.95789	711.40997	 44.00	
 11.897	-57.268	 86.43947	 56.16605	 17.23619	 12.21876	 63.79005	 -2.07566	 91.91563	711.47998	 44.00	
 11.903	-65.403	 86.57304	 51.87268	 21.08338	 10.50317	 66.34010	 -2.13895	 91.92994	711.53003	 44.00	
 11.893	-73.654	 86.73346	 47.25269	 25.31878	  9.39997	 68.17440	 -2.18399	 91.90708	711.47998	 44.00	
 11.892	-81.845	 86.88474	 42.47932	 29.96626	  8.81074	 69.27888	 -2.07178	 91.89147	711.48999	 44.00	
 11.900	-90.000	 87.01266	 37.76140	 34.69318	  8.63195	 69.65972	 -1.77647	 91.89466	711.46002	 44.00	
 11.892	-98.155	 87.22950	 33.37406	 39.25319	  9.12769	 69.26762	 -1.88094	 91.93708	711.46002	 44.00	
 11.893	-106.346	 87.31357	 28.79975	 44.20317	 10.10938	 68.07516	 -2.19628	 91.89645	711.60999	 44.00	
 11.903	-114.597	 87.41645	 24.54096	 48.95921	 11.60536	 66.11162	 -2.22830	 91.91026	711.51001	 44.00	
 11.897	-122.732	 87.50361	 20.95357	 53.29178	 13.69688	 63.48801	 -2.22854	 91.89394	711.45001	 44.10	
 11.894	-130.867	 87.54527	 17.60723	 57.49025	 16.11856	 60.28855	 -2.05611	 91.90969	711.46002	 44.10	
 11.902	-139.148	 87.56378	 14.58014	 61.23632	 19.07128	 56.46096	 -2.13480	 91.88029	711.58002	 44.10	
 11.909	-147.299	 87.56644	 12.26851	 64.31337	 22.52250	 51.81396	 -2.23577	 91.91035	711.46002	 44.10	
 11.889	-155.445	 87.50427	 10.42851	 66.55074	 26.25414	 47.26137	 -2.33641	 91.88360	711.58002	 44.20	
 11.890	-163.610	 87.45837	  8.97318	 68.18323	 30.25972	 42.76137	 -2.40333	 91.89725	711.54999	 44.20	
 11.899	-171.783	 87.35983	  8.09187	 69.09699	 34.68047	 38.10007	 -1.87581	 91.90117	711.48999	 44.20	
 11.900	180.000	 87.25749	  7.75669	 69.20061	 39.19939	 33.28777	 -1.87161	 91.88102	711.41998	 44.20	
 13.600	180.000	 85.33018	  2.49205	 72.79210	 37.70024	 31.49142	 -2.94568	 91.88940	711.56000	 44.20	
 13.608	-172.853	 85.41809	  2.54373	 72.72514	 33.17488	 36.18683	 -2.77415	 91.90456	711.56000	 44.20	
 13.611	-165.583	 85.56654	  3.33424	 71.95462	 28.77407	 41.11177	 -2.90823	 91.94561	711.52002	 44.20	
 13.601	-158.353	 85.64734	  4.60438	 70.34131	 24.79271	 45.53082	 -2.77381	 91.90961	711.47998	 44.20	
 13.609	-151.210	 85.69826	  6.17916	 68.31843	 20.91277	 50.30121	 -2.58890	 91.91768	711.51001	 44.30	
 13.611	-143.999	 85.71231	  8.22555	 65.68111	 17.31186	 54.88986	 -2.47401	 91.91244	711.57001	 44.30	
 13.601	-136.825	 85.75590	 10.76206	 62.45274	 14.17993	 59.27541	 -2.37653	 91.90028	711.41998	 44.30	
 13.596	-129.640	 85.71972	 13.76078	 58.64132	 11.41181	 62.87949	 -2.39082	 91.90298	711.41998	 44.30	
 13.611	-122.431	 85.59475	 17.19495	 54.26188	  8.98174	 66.15479	 -2.47781	 91.85773	711.39001	 44.30	
 13.604	-115.211	 85.51355	 20.94472	 49.84109	  6.99559	 68.91888	 -2.44318	 91.89255	711.37000	 44.30	
 13.595	-108.042	 85.41197	 24.86898	 45.14861	  5.46597	 70.92729	 -2.43356	 91.88112	711.51001	 44.30	
 13.607	-100.793	 85.30035	 29.20735	 40.22444	  4.31572	 72.11878	 -2.36055	 91.91337	711.53003	 44.30	
 13.601	-93.617	 85.07734	 33.75272	 35.52677	  3.56410	 72.89905	 -2.25682	 91.89332	711.46002	 44.30	
 13.601	-86.383	 84.90379	 38.22568	 30.69977	  3.32081	 72.90571	 -2.34385	 91.88688	711.50000	 44.30	
 13.607	-79.207	 84.71788	 42.92610	 26.01522	  3.53821	 72.22254	 -2.47452	 91.88527	711.41998	 44.30	
 13.595	-71.958	 84.56517	 47.77299	 21.55404	  4.27710	 71.11007	 -2.52198	 91.89969	711.45001	 44.30	
 13.604	-64.789	 84.40723	 52.37155	 17.40851	  5.46482	 69.19169	 -2.47610	 91.90416	711.48999	 44.30	
 13.611	-57.569	 84.29811	 56.79058	 13.44216	  7.10584	 66.64588	 -2.43003	 91.92001	711.48999	 44.40	
 13.596	-50.360	 84.11063	 61.05527	  9.65618	  9.26662	 63.44942	 -2.41659	 91.93568	711.34003	 44.40	
 13.601	-43.175	 83.90030	 64.84738	  6.14701	 11.67556	 59.82967	 -2.45394	 91.95770	711.35999	 44.40	
 13.611	-36.001	 83.63066	 68.13959	  3.71627	 14.56825	 55.35463	 -2.52907	 91.92067	711.41998	 44.40	
 13.609	-28.790	 83.45019	 70.88984	  1.82084	 18.11107	 50.76509	 -2.55051	 91.89577	711.37000	 44.40	
 13.601	-21.647	 83.23988	 73.06895	  0.13445	 21.96397	 45.94318	 -2.49816	 91.87141	711.48999	 44.40	
 13.611	-14.417	 83.00473	 74.77663	 -1.22611	 25.94734	 41.67683	 -2.38454	 91.86602	711.46997	 44.40	
 13.608	 -7.147	 82.85087	 75.80513	 -2.03492	 30.22556	 36.75742	 -2.27593	 91.86259	711.40997	 44.40	
 13.600	  0.000	 82.67714	 76.08621	 -1.99874	 34.52892	 32.11679	 -2.22886	 91.83380	711.53998	 44.40	
 13.608	  7.147	 82.54132	 75.80993	 -1.89892	 38.93860	 27.86005	 -2.24079	 91.86623	711.51001	 44.40	
 13.611	 14.417	 82.39581	 74.80697	 -1.58735	 43.46239	 23.38127	 -2.29003	 91.86472	711.41998	 44.50	
 13.601	 21.647	 82.33624	 73.10103	 -0.83328	 47.87447	 19.19034	 -2.28275	 91.82919	711.45001	 44.50	
 13.609	 28.790	 82.40382	 70.96925	  0.41600	 52.56388	 15.31511	 -2.27992	 91.92359	711.45001	 44.50	
 13.611	 36.001	 82.34151	 68.15268	  2.15664	 56.95124	 11.72211	 -2.29194	 91.85762	711.51001	 44.50	
 13.601	 43.175	 82.35120	 64.87798	  4.27037	 61.40928	  8.34220	 -2.32412	 91.90405	711.38000	 44.50	
 13.596	 50.360	 82.31750	 61.06581	  6.92330	 65.05669	  5.30871	 -2.43211	 91.82092	711.48999	 44.50	
 13.611	 57.569	 82.40666	 56.86032	 10.21096	 68.24459	  3.00979	 -2.61516	 91.82915	711.40002	 44.60	
 13.604	 64.789	 82.46902	 52.47211	 14.19953	 70.98834	  1.01574	 -2.74467	 91.84065	711.47998	 44.50	
 13.595	 71.958	 82.54873	 47.88919	 18.10177	 72.84429	 -0.38943	 -2.71136	 91.82721	711.34998	 44.50	
 13.607	 79.207	 82.60148	 43.04615	 22.40669	 74.46941	 -1.43463	 -2.75954	 91.78281	711.40997	 44.60	
 13.601	 86.383	 82.82826	 38.29255	 26.95254	 75.41923	 -1.88994	 -2.76292	 91.88010	711.37000	 44.60	
 13.601	 93.617	 82.96317	 33.78100	 31.73381	 75.76089	 -1.76584	 -2.77883	 91.83765	711.42999	 44.60	
 13.607	100.793	 83.14789	 29.15083	 36.70716	 75.36236	 -0.26989	 -2.93692	 91.83495	711.34003	 44.60	
 13.595	108.042	 83.36289	 24.87056	 41.50042	 74.15842	  0.64478	 -3.10708	 91.86417	711.45001	 44.60	
 13.604	115.211	 83.51224	 20.83334	 46.28019	 72.44530	  1.85731	 -3.13032	 91.82413	711.33002	 44.60	
 13.611	122.431	 83.75274	 17.01505	 50.97047	 70.36225	  3.58594	 -3.08672	 91.83810	711.34998	 44.60	
 13.596	129.640	 83.97316	 13.53181	 55.39275	 67.51254	  5.83321	 -3.10519	 91.83873	711.40002	 44.70	
 13.601	136.825	 84.21166	 10.59221	 59.59330	 64.19117	  8.50830	 -3.12316	 91.86176	711.40997	 44.70	
 13.611	143.999	 84.39341	  8.12607	 63.25987	 60.30640	 11.52912	 -3.19643	 91.81107	711.39001	 44.70	
 13.609	151.210	 84.65520	  6.10886	 66.45704	 55.67973	 14.99878	 -3.26316	 91.84281	711.39001	 44.70	
 13.601	158.353	 84.81905	  4.49635	 68.82121	 51.29697	 18.63968	 -3.20540	 91.82896	711.33002	 44.70	
 13.611	165.583	 85.02098	  3.33394	 70.81440	 46.60443	 22.69455	 -3.04796	 91.86098	711.27002	 44.70	
 13.608	172.853	 85.15858	  2.58341	 72.13933	 41.91944	 27.06814	 -2.96925	 91.83327	711.38000	 44.70	
 15.298	173.587	 82.86897	 -2.34160	 75.43521	 40.34141	 25.27458	 -3.30520	 91.84391	711.46997	 44.70	
 15.291	167.167	 82.69470	 -2.08490	 74.28580	 44.95624	 20.94031	 -3.49822	 91.86475	711.25000	 44.70	
 15.307	160.676	 82.46391	 -1.23828	 72.46400	 49.45020	 16.70990	 -3.68127	 91.84225	711.26001	 44.70	
 15.300	154.261	 82.32089	  0.19543	 70.11341	 54.01950	 12.93594	 -3.88698	 91.86789	711.37000	 44.80	
 15.288	147.854	 82.13332	  1.98510	 67.33324	 58.55067	  9.24165	 -3.96704	 91.87628	711.41998	 44.70	
 15.293	141.428	 81.86803	  4.15538	 63.91014	 62.89809	  4.98114	 -3.93152	 91.83311	711.34003	 44.80	
 15.299	134.985	 81.69125	  6.69973	 60.07770	 66.62504	  2.09408	 -3.89283	 91.85540	711.47998	 44.80	
 15.305	128.583	 81.48065	  9.62469	 55.81297	 69.95282	 -0.31142	 -3.89622	 91.83430	711.41998	 44.80	
 15.309	122.142	 81.23798	 12.94719	 51.34592	 72.52571	 -2.38475	 -3.86127	 91.82228	711.45001	 44.80	
 15.304	115.711	 81.03593	 16.88761	 46.56002	 74.94438	 -4.02688	 -3.93545	 91.81593	711.45001	 44.80	
 15.297	109.291	 80.87356	 21.00179	 41.72313	 76.73616	 -5.37163	 -3.98853	 91.86527	711.41998	 44.80	
 15.293	102.897	 80.69682	 25.16841	 37.00735	 77.88435	 -6.36637	 -3.92751	 91.87086	711.48999	 44.90	
 15.293	 96.458	 80.53502	 29.63239	 32.12674	 78.46184	 -6.77533	 -3.73585	 91.82374	711.46997	 44.80	
 15.300	 90.000	 80.33408	 34.06408	 27.48507	 78.50084	 -6.92572	 -3.66875	 91.80693	711.56000	 44.90	
 15.293	 83.542	 80.20677	 38.72808	 22.92091	 78.00937	 -7.04024	 -3.63303	 91.81147	711.46002	 44.90	
 15.293	 77.103	 80.05640	 43.48901	 18.37987	 76.86935	 -6.50928	 -3.57197	 91.82629	711.40997	 44.90	
 15.297	 70.709	 80.01136	 48.19394	 13.89455	 75.16110	 -5.29448	 -3.61688	 91.83120	711.47998	 44.90	
 15.304	 64.289	 79.98972	 52.82721	 10.03502	 73.10548	 -3.84326	 -3.67082	 91.88084	711.40997	 44.90	
 15.309	 57.858	 79.84822	 57.29491	  6.42974	 70.44072	 -2.07807	 -3.53009	 91.84219	711.46002	 44.90	
 15.305	 51.417	 79.77244	 61.57520	  3.34775	 67.12936	  0.09054	 -3.31974	 91.81850	711.46002	 44.90	
 15.299	 45.015	 79.73914	 65.38068	  0.73277	 63.49096	  2.52388	 -3.19080	 91.79799	711.29999	 44.90	
 15.293	 38.572	 79.74110	 68.83156	 -1.33826	 59.32888	  5.27442	 -3.18286	 91.83874	711.41998	 44.90	
 15.288	 32.146	 79.73620	 71.88443	 -3.07145	 54.82455	  8.69779	 -3.10058	 91.86388	711.47998	 44.90	
 15.300	 25.739	 79.69426	 74.43729	 -4.82918	 50.25113	 12.68714	 -3.07005	 91.84566	711.42999	 44.90	
 15.307	 19.324	 79.66372	 76.44782	 -6.33565	 45.91296	 17.07805	 -3.07268	 91.81562	711.46002	 44.90	
 15.291	 12.833	 79.76490	 77.85384	 -7.06016	 41.28346	 21.57239	 -3.04291	 91.80779	711.37000	 44.90	
 15.298	  6.413	 79.84866	 78.69177	 -7.27759	 36.62095	 26.05208	 -2.93542	 91.78728	711.53998	 44.90	
 15.300	  0.000	 80.05089	 78.99840	 -7.53058	 32.30690	 30.33245	 -2.88974	 91.80823	711.41998	 44.90	
 15.298	 -6.413	 80.16042	 78.70628	 -7.35053	 28.14749	 34.82770	 -2.87050	 91.79709	711.37000	 44.90	
 15.291	-12.833	 80.37190	 77.85773	 -6.56689	 23.75744	 39.80251	 -2.88393	 91.85708	711.53003	 44.90	
 15.307	-19.324	 80.48875	 76.41150	 -5.53657	 19.44828	 44.41225	 -2.92794	 91.81609	711.48999	 44.90	
 15.300	-25.739	 80.63809	 74.34615	 -4.03950	 15.11222	 48.90454	 -2.91617	 91.76520	711.56000	 44.90	
 15.288	-32.146	 80.87482	 71.77999	 -2.19705	 11.22541	 53.59034	 -2.85652	 91.83334	711.54999	 44.90	
 15.293	-38.572	 81.04034	 68.75025	  0.02977	  8.13599	 58.05823	 -2.75597	 91.78732	711.37000	 44.90	
 15.299	-45.015	 81.25953	 65.25233	  2.58262	  5.43488	 62.34675	 -2.66390	 91.76701	711.40997	 44.90	
 15.305	-51.417	 81.51530	 61.37728	  5.48568	  3.09551	 65.96897	 -2.62596	 91.80546	711.52002	 44.90	
 15.309	-57.858	 81.65583	 57.07419	  8.98006	  0.96268	 69.07380	 -2.55746	 91.78271	711.54999	 45.00	
 15.304	-64.289	 81.82434	 52.62397	 13.37018	 -0.49271	 71.71483	 -2.50998	 91.79360	711.53003	 45.00	
 15.297	-70.709	 82.03496	 48.05791	 17.61782	 -1.29685	 73.44007	 -2.52382	 91.76903	711.46997	 45.00	
 15.293	-77.103	 82.25420	 43.36596	 22.03223	 -2.05862	 74.95744	 -2.48947	 91.77438	711.34003	 45.00	
 15.293	-83.542	 82.45551	 38.64671	 26.65147	 -1.92512	 75.91640	 -2.35085	 91.79793	711.41998	 45.10	
 15.300	-90.000	 82.61516	 34.08004	 31.35228	 -1.67525	 76.19811	 -2.30953	 91.77402	711.42999	 45.10	
 15.293	-96.458	 82.79883	 29.56396	 36.21510	 -1.27029	 75.75452	 -2.33208	 91.77409	711.31000	 45.10	
 15.293	-102.897	 83.02950	 25.18986	 40.85344	 -0.64512	 74.82084	 -2.40027	 91.84393	711.32001	 45.10	
 15.297	-109.291	 83.10249	 20.97729	 45.70765	  0.58090	 73.27296	 -2.40645	 91.82700	711.34003	 45.00	
 15.304	-115.711	 83.15121	 16.89566	 50.45853	  2.06399	 71.38787	 -2.39553	 91.82301	711.28003	 45.00	
 15.309	-122.142	 83.21704	 13.00715	 54.94944	  3.88261	 68.78029	 -2.40373	 91.82219	711.34003	 45.00	
 15.305	-128.583	 83.33434	  9.60991	 59.26075	  6.25614	 65.37981	 -2.39950	 91.82019	711.29999	 45.10	
 15.299	-134.985	 83.47115	  6.63721	 63.26290	  8.90594	 61.79192	 -2.41678	 91.86016	711.32001	 45.10	
 15.293	-141.428	 83.48388	  4.19410	 66.71393	 11.91559	 57.55416	 -2.48257	 91.88239	711.31000	 45.10	
 15.288	-147.854	 83.42097	  2.09555	 69.49596	 15.18533	 53.03895	 -2.62266	 91.86128	711.34003	 45.10	
 15.300	-154.261	 83.36541	  0.28738	 72.05659	 18.83625	 48.39028	 -2.77076	 91.86243	711.34003	 45.10	
 15.307	-160.676	 83.31472	 -1.13590	 73.99272	 22.89736	 43.86461	 -2.95120	 91.88377	711.37000	 45.10	
 15.291	-167.167	 83.22474	 -2.13946	 75.30731	 27.11292	 39.08929	 -3.09620	 91.91495	711.39001	 45.10	
 15.298	-173.587	 83.12667	 -2.74053	 76.01284	 31.47727	 34.22763	 -3.14451	 91.92435	711.42999	 45.10	
 15.300	180.000	 83.04695	 -2.76017	 76.05395	 36.06424	 29.53576	 -3.20194	 91.92897	711.34003	 45.10	
 17.000	180.000	 80.48889	 -7.63839	 78.91982	 34.12136	 27.31037	 -3.35364	 91.92696	711.42999	 45.10	
 16.990	-174.179	 80.59645	 -7.87812	 78.93469	 29.70718	 31.95682	 -3.22420	 91.92865	711.42999	 45.20	
 17.009	-168.383	 80.70630	 -7.56312	 78.37225	 25.20070	 36.88027	 -3.06938	 91.93977	711.45001	 45.20	
 17.000	-162.596	 80.78205	 -6.64337	 77.20300	 20.79035	 41.61085	 -2.93672	 91.88264	711.37000	 45.20	
 16.990	-156.759	 80.86378	 -5.41708	 75.54371	 16.44309	 46.15440	 -2.71961	 91.90334	711.35999	 45.20	
 16.995	-150.919	 80.92776	 -3.81966	 73.32586	 12.19084	 51.10905	 -2.54142	 91.95961	711.45001	 45.20	
 16.988	-145.161	 80.99100	 -1.85401	 70.57479	  8.64730	 55.53088	 -2.47749	 91.92533	711.48999	 45.20	
 17.014	-139.343	 81.01048	  0.27997	 67.60520	  5.35901	 60.15923	 -2.35050	 92.00259	711.40002	 45.20	
 17.007	-133.546	 80.95820	  2.83609	 63.92240	  2.42808	 64.20387	 -2.28297	 91.95135	711.41998	 45.20	
 17.001	-127.699	 80.93631	  5.76851	 59.84515	 -0.03882	 67.85237	 -2.30066	 92.00515	711.45001	 45.20	
 17.006	-121.937	 80.86708	  8.94328	 55.52839	 -2.20706	 71.13979	 -2.18392	 92.00539	711.42999	 45.20	
 17.002	-116.134	 80.73317	 12.54704	 50.92450	 -4.12793	 73.43372	 -2.19544	 91.92542	711.38000	 45.20	
 17.001	-110.310	 80.64690	 16.59636	 46.14046	 -5.79899	 75.75928	 -2.18052	 91.99007	711.40997	 45.20	
 16.988	-104.517	 80.57655	 20.94489	 41.32490	 -6.99423	 77.45113	 -2.21962	 92.01608	711.42999	 45.20	
 17.008	-98.662	 80.39079	 25.33246	 36.52553	 -8.00733	 78.61322	 -2.21138	 92.04912	711.39001	 45.20	
 16.996	-92.909	 80.17193	 29.73176	 31.58015	 -8.42137	 79.12194	 -2.13123	 91.96605	711.45001	 45.20	
 16.996	-87.091	 80.09553	 34.14152	 27.12382	 -8.47806	 79.15385	 -2.14994	 92.01955	711.38000	 45.20	
 17.012	-81.253	 79.81879	 38.67827	 22.50748	 -8.74199	 78.72454	 -2.23465	 91.98190	711.46997	 45.20	
 16.988	-75.483	 79.70145	 43.36828	 17.99693	 -8.16045	 77.69888	 -2.30124	 92.00738	711.40997	 45.20	
 17.001	-69.690	 79.49119	 48.03965	 13.17639	 -7.17891	 76.10330	 -2.37958	 91.98772	711.41998	 45.20	
 17.002	-63.866	 79.31976	 52.71185	  9.06148	 -5.91427	 73.88717	 -2.41241	 91.98187	711.28003	 45.20	
 17.006	-58.063	 79.09518	 57.24264	  5.36689	 -4.41988	 71.57894	 -2.40776	 92.01350	711.34998	 45.20	
 17.001	-52.301	 78.94978	 61.53532	  2.31055	 -2.52459	 68.45353	 -2.52444	 92.01925	711.39001	 45.20	
 17.007	-46.454	 78.79130	 65.61198	 -0.38935	 -0.18913	 64.91780	 -2.64500	 92.06122	711.40997	 45.20	
 17.014	-40.657	 78.50211	 69.26580	 -3.42217	  2.34784	 60.79298	 -2.75546	 92.00616	711.32001	 45.20	
 16.988	-34.839	 78.35020	 72.53143	 -5.81185	  5.42369	 56.24526	 -2.85569	 92.06971	711.40997	 45.20	
 16.995	-29.081	 78.10684	 75.31139	 -7.79758	  8.64050	 51.79510	 -2.97878	 92.05704	711.45001	 45.20	
 16.990	-23.241	 78.10306	 77.63200	 -9.37926	 12.29824	 46.98693	 -3.03551	 91.99812	711.44000	 45.20	
 17.000	-17.404	 77.95796	 79.52034	-10.70653	 16.57371	 42.45797	 -3.11440	 92.04707	711.40997	 45.20	
 17.009	-11.617	 77.74161	 80.80634	-11.78491	 21.14061	 37.67430	 -3.21906	 92.02979	711.38000	 45.20	
 16.990	 -5.821	 77.69054	 81.60717	-12.47528	 25.90716	 32.81143	 -3.27302	 92.08372	711.40997	 45.20	
 17.000	  0.000	 77.48860	 81.87791	-12.75518	 30.33368	 28.22007	 -3.39062	 92.06976	711.37000	 45.20	
 16.990	  5.821	 77.32343	 81.60223	-12.52070	 34.16966	 24.02522	 -3.60807	 92.09426	711.42999	 45.20	
 17.009	 11.617	 77.04356	 80.82909	-12.37632	 38.89164	 18.99887	 -3.67546	 92.02006	711.34003	 45.20	
 17.000	 17.404	 77.03410	 79.53165	-11.60014	 43.56799	 14.43368	 -3.75597	 92.02161	711.40002	 45.20	
 16.990	 23.241	 77.03513	 77.73006	-10.51747	 48.16351	 10.59625	 -3.80433	 92.02340	711.37000	 45.20	
 16.995	 29.081	 77.03094	 75.41822	 -9.11066	 52.59983	  6.79065	 -3.86691	 92.04998	711.25000	 45.20	
 16.988	 34.839	 77.04749	 72.60657	 -7.28990	 57.05845	  3.33773	 -3.97291	 92.05439	711.40997	 45.20	
 17.014	 40.657	 77.04694	 69.48055	 -5.15789	 61.41234	  0.32046	 -4.09472	 92.07317	711.48999	 45.20	
 17.007	 46.454	 77.13218	 65.87242	 -2.71730	 65.55639	 -2.39864	 -4.17335	 92.06393	711.46997	 45.20	
 17.001	 52.301	 77.15950	 61.86862	 -0.26408	 69.25475	 -4.92304	 -4.27886	 92.09180	711.40997	 45.20	
 17.006	 58.063	 77.19189	 57.59733	  2.37554	 72.56120	 -6.98273	 -4.48263	 92.11549	711.59998	 45.20	
 17.002	 63.866	 77.24828	 53.07253	  5.84840	 75.05893	 -8.60519	 -4.53670	 92.06209	711.46002	 45.20	
 17.001	 69.690	 77.37971	 48.37904	  9.64676	 77.38943	 -9.89979	 -4.54014	 92.07843	711.45001	 45.20	
 16.988	 75.483	 77.49002	 43.63108	 13.69629	 79.14541	-10.93819	 -4.51497	 92.08080	711.46002	 45.20	
 17.012	 81.253	 77.50121	 38.87506	 18.08154	 80.48990	-11.87663	 -4.53518	 92.06737	711.46002	 45.20	
 16.996	 87.091	 77.74520	 34.24177	 22.86480	 81.22676	-12.22387	 -4.56418	 92.10719	711.50000	 45.20	
 16.996	 92.909	 77.95388	 30.01685	 27.26997	 81.51295	-12.13081	 -4.72430	 92.10750	711.40002	 45.20	
 17.008	 98.662	 78.09135	 25.56822	 31.94426	 81.22883	-12.09452	 -4.86288	 92.11123	711.51001	 45.20	
 16.988	104.517	 78.26175	 21.15686	 36.99465	 80.47878	-11.39313	 -4.87898	 92.16969	711.29999	 45.20	
 17.001	110.310	 78.38081	 16.76646	 41.65100	 79.19952	-10.42749	 -4.84425	 92.06972	711.38000	 45.30	
 17.002	116.134	 78.66621	 12.76224	 46.62600	 77.40036	 -9.02496	 -4.73694	 92.12040	711.42999	 45.30	
 17.006	121.937	 78.71025	  9.14985	 51.41864	 75.00971	 -7.40394	 -4.66100	 92.07866	711.34998	 45.20	
 17.001	127.699	 78.96801	  5.94880	 55.96752	 72.41607	 -5.33612	 -4.62937	 92.11867	711.41998	 45.20	
 17.007	133.546	 79.19512	  2.95198	 60.36863	 69.07496	 -2.94780	 -4.61060	 92.13113	711.41998	 45.20	
 17.014	139.343	 79.43984	  0.32115	 64.47724	 65.42900	 -0.13405	 -4.55932	 92.17864	711.53003	 45.20	
 16.988	145.161	 79.58892	 -1.91682	 67.96687	 61.39708	  2.87575	 -4.52590	 92.12907	711.46002	 45.20	
 16.995	150.919	 79.83754	 -3.73434	 71.01808	 56.76944	  6.22293	 -4.41520	 92.17613	711.45001	 45.20	
 16.990	156.759	 80.08363	 -5.25535	 73.76633	 52.18206	  9.98309	 -4.21113	 92.16837	711.39001	 45.20	
 17.000	162.596	 80.20348	 -6.53555	 75.95503	 47.43303	 14.54513	 -4.07637	 92.14844	711.46997	 45.20	
 17.009	168.383	 80.41439	 -7.36041	 77.60525	 43.07093	 18.82457	 -3.81681	 92.18674	711.46002	 45.20	
 16.990	174.179	 80.57709	 -7.67217	 78.55084	 38.51847	 23.27147	 -3.52846	 92.11716	711.45001	 45.20	
 18.709	174.675	 77.60600	-12.97610	 81.31675	 36.24324	 20.77799	 -3.58017	 92.13030	711.46997	 45.20	
 18.703	169.441	 77.49294	-12.72122	 80.32289	 40.73555	 16.10781	 -3.82074	 92.12366	711.56000	 45.20	
 18.691	164.085	 77.35027	-11.88753	 78.85580	 45.37692	 11.71201	 -4.05904	 92.13996	711.51001	 45.20	
 18.706	158.818	 77.15657	-10.80089	 76.87959	 49.79601	  7.77628	 -4.26992	 92.14236	711.47998	 45.20	
 18.695	153.537	 77.15094	 -9.34540	 74.36414	 54.51581	  4.12700	 -4.54408	 92.14158	711.40002	 45.20	
 18.704	148.255	 76.91745	 -7.66545	 71.39178	 58.92280	  0.71597	 -4.75201	 92.13153	711.46002	 45.20	
 18.698	142.952	 76.73185	 -5.67742	 68.15974	 63.41584	 -2.39910	 -4.86210	 92.12132	711.28003	 45.20	
 18.699	137.625	 76.53257	 -3.46303	 64.42656	 67.43987	 -5.37998	 -4.99246	 92.13185	711.42999	 45.20	
 18.705	132.343	 76.28473	 -0.93221	 60.25924	 71.10808	 -8.07442	 -5.07748	 92.08936	711.37000	 45.20	
 18.713	127.067	 76.04540	  1.99106	 55.83609	 74.28411	-10.40306	 -5.14912	 92.11459	711.40997	 45.20	
 18.700	121.794	 75.86494	  5.18671	 51.32076	 76.85976	-12.19531	 -5.21998	 92.08550	711.28003	 45.20	
 18.698	116.504	 75.59978	  8.66047	 46.55018	 79.18604	-13.73346	 -5.33284	 92.07575	711.27002	 45.20	
 18.707	111.165	 75.36820	 12.48017	 41.62127	 81.10676	-14.98007	 -5.47453	 92.11626	711.38000	 45.20	
 18.690	105.863	 75.10111	 16.54811	 36.58017	 82.58739	-15.92303	 -5.58083	 92.07044	711.40997	 45.20	
 18.696	100.583	 74.87916	 20.95260	 31.68611	 83.54225	-16.64829	 -5.64414	 92.05540	711.40997	 45.20	
 18.700	 95.309	 74.74958	 25.51814	 26.84542	 84.15721	-17.12138	 -5.66594	 92.12003	711.51001	 45.20	
 18.700	 90.000	 74.60036	 29.63501	 22.42506	 84.12775	-17.27259	 -5.52556	 92.11803	711.45001	 45.20	
 18.700	 84.691	 74.41269	 33.70941	 18.03939	 83.54964	-17.28577	 -5.35357	 92.10142	711.38000	 45.20	
 18.696	 79.417	 74.27895	 38.65429	 13.55646	 82.46715	-16.89498	 -5.33747	 92.07810	711.42999	 45.20	
 18.690	 74.137	 74.22519	 43.48992	  9.37750	 81.03436	-16.10544	 -5.27676	 92.08096	711.52002	 45.20	
 18.707	 68.835	 74.16821	 48.30861	  5.48363	 79.16885	-15.03493	 -5.28650	 92.15997	711.44000	 45.20	
 18.698	 63.496	 74.10065	 53.10169	  2.27946	 76.68024	-13.59213	 -5.24260	 92.14645	711.46002	 45.20	
 18.700	 58.206	 73.97601	 57.53799	 -1.03927	 74.09931	-11.87401	 -5.17551	 92.11737	711.52002	 45.20	
 18.713	 52.933	 73.87856	 61.80297	 -4.14003	 70.88171	-10.00347	 -5.05604	 92.16018	711.40002	 45.20	
 18.705	 47.657	 73.85495	 65.90395	 -6.82391	 67.27547	 -7.62168	 -4.91021	 92.13168	711.47998	 45.20	
 18.699	 42.375	 73.87309	 69.66335	 -9.22174	 63.07634	 -4.93807	 -4.83179	 92.14418	711.52002	 45.20	
 18.698	 37.048	 73.80464	 73.01752	-11.48238	 58.84603	 -1.87077	 -4.72834	 92.16261	711.40997	 45.20	
 18.704	 31.745	 73.78164	 75.94519	-13.32810	 54.51791	  1.38336	 -4.59143	 92.15067	711.45001	 45.20	
 18.695	 26.463	 73.78590	 78.48000	-14.87440	 49.87682	  4.78933	 -4.45146	 92.14960	711.52002	 45.20	
 18.706	 21.182	 73.80083	 80.64455	-16.19905	 45.52586	  8.56165	 -4.29424	 92.17622	711.53003	 45.10	
 18.691	 15.915	 73.83199	 82.28224	-17.09778	 40.98168	 12.40471	 -4.16523	 92.14843	711.41998	 45.10	
 18.703	 10.559	 73.84769	 83.49583	-17.77449	 35.94165	 16.49751	 -4.03770	 92.12238	711.56000	 45.10	
 18.709	  5.325	 73.93034	 84.21351	-18.11956	 31.42064	 21.35087	 -3.88026	 92.12646	711.47998	 45.10	
 18.700	  0.000	 74.12819	 84.46270	-18.24113	 27.14823	 26.01491	 -3.73678	 92.17236	711.46997	 45.10	
 18.709	 -5.325	 74.32014	 84.25842	-17.84858	 22.67432	 30.43691	 -3.52991	 92.18411	711.42999	 45.10	
 18.703	-10.559	 74.47411	 83.48151	-16.96710	 17.93694	 35.15909	 -3.32081	 92.13597	711.38000	 45.10	
 18.691	-15.915	 74.68989	 82.31401	-16.07790	 13.91152	 40.16395	 -3.15003	 92.16178	711.48999	 45.10	
 18.706	-21.182	 74.85369	 80.59097	-14.93252	  9.98388	 44.91665	 -2.99895	 92.17525	711.38000	 45.10	
 18.695	-26.463	 75.11333	 78.45798	-13.40927	  6.31334	 49.37069	 -2.90138	 92.16794	711.46997	 45.10	
 18.704	-31.745	 75.31044	 75.94588	-11.70911	  2.92757	 53.97708	 -2.80146	 92.15939	711.50000	 45.10	
 18.698	-37.048	 75.52830	 72.91218	 -9.48894	 -0.19389	 58.43443	 -2.68654	 92.17029	711.53998	 45.10	
 18.699	-42.375	 75.74493	 69.50430	 -6.86749	 -3.01170	 63.04518	 -2.64692	 92.16315	711.50000	 45.10	
 18.705	-47.657	 75.94365	 65.70017	 -4.05504	 -5.46491	 66.95196	 -2.53418	 92.14573	711.47998	 45.20	
 18.713	-52.933	 76.08953	 61.59398	 -1.12134	 -7.62142	 70.47745	 -2.40473	 92.14802	711.47998	 45.20	
 18.700	-58.206	 76.30173	 57.24312	  2.15450	 -9.45597	 73.52266	 -2.26781	 92.15288	711.51001	 45.20	
 18.698	-63.496	 76.54165	 52.74460	  5.42647	-11.02913	 75.99039	 -2.15972	 92.16441	711.53003	 45.20	
 18.707	-68.835	 76.66254	 47.97332	  9.15072	-12.30634	 78.31819	 -2.10267	 92.20645	711.54999	 45.20	
 18.690	-74.137	 76.84668	 43.22614	 13.28347	-13.20311	 79.92742	 -2.12691	 92.14276	711.54999	 45.20	
 18.696	-79.417	 76.92568	 38.48708	 18.11111	-14.00826	 81.11021	 -2.01880	 92.14874	711.70001	 45.20	
 18.700	-84.691	 77.13050	 33.74202	 22.80643	-14.15137	 81.78476	 -2.01685	 92.14874	711.65002	 45.20	
 18.700	-90.000	 77.39005	 29.60396	 27.09654	-13.88787	 82.06750	 -1.97984	 92.18938	711.64001	 45.20	
 18.700	-95.309	 77.49975	 25.27005	 31.72614	-13.83418	 81.72537	 -1.97488	 92.16028	711.50000	 45.20	
 18.696	-100.583	 77.82501	 20.83323	 36.69790	-13.21948	 81.00294	 -1.94900	 92.20468	711.59998	 45.10	
 18.690	-105.863	 77.99316	 16.38146	 41.50830	-12.18027	 79.75427	 -2.00056	 92.16552	711.63000	 45.10	
 18.707	-111.165	 78.09371	 12.31199	 46.34786	-10.93566	 77.96178	 -1.98779	 92.15932	711.69000	 45.10	
 18.698	-116.504	 78.23075	  8.54004	 51.24843	 -9.26804	 75.64542	 -1.98669	 92.17320	711.65997	 45.10	
 18.700	-121.794	 78.35965	  5.12692	 55.81010	 -7.28668	 73.21120	 -2.06086	 92.15960	711.60999	 45.10	
 18.713	-127.067	 78.29486	  1.93013	 60.18244	 -5.10270	 70.09727	 -2.11613	 92.16658	711.64001	 45.10	
 18.705	-132.343	 78.37341	 -0.95632	 64.36633	 -2.61959	 66.36948	 -2.15737	 92.16994	711.62000	 45.10	
 18.699	-137.625	 78.39828	 -3.48841	 68.13334	  0.24929	 62.38522	 -2.19775	 92.18484	711.71997	 45.10	
 18.698	-142.952	 78.38172	 -5.65585	 71.32401	  3.33903	 57.84797	 -2.21685	 92.14735	711.73999	 45.10	
 18.704	-148.255	 78.35467	 -7.60048	 74.35358	  6.62833	 53.40736	 -2.28990	 92.17290	711.65997	 45.10	
 18.695	-153.537	 78.34230	 -9.30283	 76.84128	 10.13686	 48.69478	 -2.38911	 92.18463	711.71002	 45.10	
 18.706	-158.818	 78.22017	-10.89615	 78.81144	 13.80291	 44.03494	 -2.49543	 92.15315	711.71002	 45.10	
 18.691	-164.085	 78.19637	-12.09659	 80.35559	 18.17376	 39.31276	 -2.68288	 92.19537	711.67999	 45.10	
 18.703	-169.441	 78.03054	-12.96713	 81.40325	 22.96319	 34.37796	 -2.89302	 92.22362	711.62000	 45.10	
 18.709	-174.675	 77.89310	-13.28657	 81.91546	 27.69236	 29.42241	 -3.07956	 92.19503	711.64001	 45.10	
 18.700	180.000	 77.78354	-13.23471	 81.85686	 32.17903	 24.81137	 -3.25439	 92.17764	711.54999	 45.20	
 20.400	180.000	 74.60809	-18.60235	 84.23659	 29.81693	 21.92941	 -3.18989	 92.14059	711.65997	 45.20	
 20.401	-175.153	 74.71628	-18.55115	 84.33289	 25.29804	 26.60962	 -2.97100	 92.12822	711.66998	 45.20	
 20.407	-170.264	 74.87277	-18.21308	 83.88810	 20.29229	 31.51825	 -2.72375	 92.18212	711.59998	 45.20	
 20.410	-165.423	 75.05997	-17.44646	 83.00735	 15.94945	 36.49752	 -2.49039	 92.19318	711.59003	 45.20	
 20.392	-160.496	 75.11631	-16.33813	 81.54414	 11.85278	 41.45060	 -2.38417	 92.17521	711.64001	 45.20	
 20.401	-155.705	 75.15797	-15.01884	 79.76000	  8.07676	 46.14454	 -2.22876	 92.19596	711.71002	 45.20	
 20.405	-150.835	 75.31255	-13.38056	 77.59512	  4.59249	 50.73866	 -2.14523	 92.23849	711.78003	 45.10	
 20.397	-145.903	 75.43612	-11.40374	 74.79858	  1.19283	 55.54981	 -2.11640	 92.24357	711.69000	 45.10	
 20.392	-141.062	 75.46928	 -9.40055	 71.58281	 -1.89288	 59.87060	 -2.07256	 92.18229	711.58002	 45.10	
 20.396	-136.227	 75.47781	 -7.14675	 68.29282	 -4.74012	 64.17586	 -2.07362	 92.17265	711.52002	 45.10	
 20.408	-131.372	 75.42017	 -4.70796	 64.47636	 -7.44794	 68.03236	 -2.00997	 92.17368	711.56000	 45.10	
 20.410	-126.511	 75.30247	 -1.97231	 60.22295	-10.01202	 71.83221	 -1.94147	 92.20802	711.60999	 45.10	
 20.400	-121.604	 75.16175	  1.11598	 55.79440	-12.21198	 74.65808	 -1.91811	 92.18826	711.62000	 45.10	
 20.403	-116.741	 74.96743	  4.44849	 51.16660	-14.08990	 77.41782	 -1.79806	 92.13496	711.65002	 45.10	
 20.413	-111.900	 74.85869	  8.06579	 46.36514	-15.70788	 79.69416	 -1.84206	 92.16930	711.63000	 45.10	
 20.398	-107.004	 74.78437	 11.99016	 41.48302	-16.98157	 81.57246	 -1.81911	 92.18423	711.57001	 45.10	
 20.394	-102.132	 74.61699	 16.13275	 36.54573	-17.91915	 83.02548	 -1.82385	 92.20699	711.64001	 45.10	
 20.403	-97.332	 74.35259	 20.48549	 31.65895	-18.68517	 84.00160	 -1.85732	 92.18723	711.56000	 45.10	
 20.392	-92.440	 74.15014	 25.04462	 26.86144	-19.08474	 84.53487	 -1.88554	 92.17818	711.66998	 45.10	
 20.392	-87.560	 73.99200	 29.01952	 22.60406	-19.19069	 84.54542	 -1.87848	 92.18367	711.58002	 45.10	
 20.403	-82.668	 73.81695	 33.06870	 17.88370	-19.32067	 84.11082	 -1.90708	 92.15514	711.59998	 45.10	
 20.394	-77.868	 73.55746	 37.87371	 13.48455	-19.03955	 83.22298	 -1.87352	 92.17893	711.54999	 45.10	
 20.398	-72.996	 73.43671	 42.78297	  9.27286	-18.38919	 81.73789	 -1.91383	 92.16753	711.53003	 45.10	
 20.413	-68.100	 73.16418	 47.41266	  5.65736	-17.48909	 80.05776	 -1.95139	 92.18546	711.50000	 45.10	
 20.403	-63.259	 73.02592	 52.14853	  1.90791	-16.17899	 77.86646	 -1.98889	 92.21017	711.53003	 45.10	
 20.400	-58.396	 72.81188	 56.69160	 -1.59074	-14.65447	 75.15637	 -2.11411	 92.24702	711.50000	 45.10	
 20.410	-53.489	 72.61327	 61.05368	 -4.86422	-12.77045	 72.36539	 -2.22040	 92.17323	711.46997	 45.10	
 20.408	-48.628	 72.46260	 65.32685	 -7.87906	-10.66287	 68.79520	 -2.32659	 92.22286	711.64001	 45.10	
 20.396	-43.773	 72.31768	 69.16514	-10.58168	 -8.33953	 64.91386	 -2.41877	 92.18793	711.65002	 45.10	
 20.392	-38.938	 72.10411	 72.61586	-13.01369	 -5.72776	 60.58619	 -2.49265	 92.16925	711.63000	 45.20	
 20.397	-34.097	 71.97930	 75.85852	-15.19501	 -2.86543	 56.22121	 -2.57947	 92.20885	711.59998	 45.20	
 20.405	-29.165	 71.72811	 78.70319	-17.25221	  0.22721	 51.48484	 -2.64202	 92.16571	711.58002	 45.20	
 20.401	-24.295	 71.47421	 81.04884	-18.84937	  3.65705	 47.06725	 -2.74225	 92.17009	711.57001	 45.10	
 20.392	-19.504	 71.36594	 83.07645	-20.12785	  7.47222	 42.50910	 -2.91979	 92.23379	711.59998	 45.20	
 20.410	-14.577	 71.13270	 84.68049	-21.27158	 11.45739	 37.43463	 -3.07358	 92.21275	711.58002	 45.10	
 20.407	 -9.736	 70.95616	 85.73326	-22.13397	 15.46340	 32.68140	 -3.26795	 92.20796	711.60999	 45.10	
 20.401	 -4.847	 70.79980	 86.39571	-22.83683	 19.85655	 27.47757	 -3.52136	 92.19830	711.63000	 45.10	
 20.400	  0.000	 70.59329	 86.58318	-23.25786	 24.20507	 22.53470	 -3.84104	 92.17148	711.65002	 45.10	
 20.401	  4.847	 70.43726	 86.38386	-23.19475	 28.07255	 18.72553	 -4.04104	 92.19132	711.53998	 45.10	
 20.407	  9.736	 70.38621	 85.81387	-23.07089	 33.19020	 14.45270	 -4.24557	 92.26302	711.56000	 45.10	
 20.410	 14.577	 70.24999	 84.73431	-22.58306	 37.79437	 10.28872	 -4.38458	 92.26447	711.57001	 45.10	
 20.392	 19.504	 70.23251	 83.14625	-21.52765	 42.69168	  6.34402	 -4.61997	 92.24463	711.51001	 45.10	
 20.401	 24.295	 70.17966	 81.23284	-20.40024	 47.24703	  2.62680	 -4.77649	 92.25174	711.53003	 45.10	
 20.405	 29.165	 70.16401	 78.83079	-19.02035	 51.57926	 -0.97093	 -4.97918	 92.18418	711.52002	 45.10	
 20.397	 34.097	 70.25132	 76.07267	-17.36017	 56.20988	 -4.33817	 -5.14415	 92.22046	711.60999	 45.10	
 20.392	 38.938	 70.23384	 72.92770	-15.50697	 60.50120	 -7.34288	 -5.32554	 92.24222	711.59003	 45.10	
 20.396	 43.773	 70.21767	 69.46229	-13.37113	 64.62583	 -9.92239	 -5.41731	 92.20625	711.60999	 45.10	
 20.408	 48.628	 70.27438	 65.64093	-10.90441	 68.67947	-12.21549	 -5.53977	 92.18907	711.54999	 45.10	
 20.410	 53.489	 70.34779	 61.49452	 -8.15697	 72.18357	-14.29214	 -5.65979	 92.17680	711.77002	 45.10	
 20.400	 58.396	 70.46055	 57.16647	 -5.14134	 75.50856	-16.13238	 -5.76473	 92.19353	711.66998	 45.10	
 20.403	 63.259	 70.45673	 52.60659	 -1.88251	 78.15604	-17.80131	 -5.83458	 92.15737	711.69000	 45.10	
 20.413	 68.100	 70.52170	 47.93498	  1.64704	 80.61510	-19.14942	 -5.87813	 92.20412	711.63000	 45.10	
 20.398	 72.996	 70.60133	 43.12872	  5.44968	 82.54019	-20.17333	 -5.90868	 92.15785	711.71997	 45.10	
 20.394	 77.868	 70.72301	 38.28694	  9.02097	 84.27245	-20.72408	 -5.95798	 92.18483	711.65002	 45.10	
 20.403	 82.668	 70.79965	 33.44312	 13.20978	 85.47045	-21.29012	 -5.95744	 92.18634	711.63000	 45.10	
 20.392	 87.560	 70.96666	 28.55481	 17.80168	 86.13469	-21.80517	 -5.99375	 92.17891	711.66998	 45.10	
 20.392	 92.440	 71.18356	 24.35884	 22.08099	 86.40936	-21.78611	 -6.21543	 92.20084	711.73999	 45.10	
 20.403	 97.332	 71.34967	 20.77681	 26.19272	 86.26199	-21.50465	 -6.47248	 92.19659	711.67999	 45.10	
 20.394	102.132	 71.56193	 16.37248	 31.14359	 85.64340	-21.27431	 -6.38965	 92.20095	711.53998	 45.10	
 20.398	107.004	 71.75587	 12.21905	 36.12604	 84.51431	-20.76061	 -6.19730	 92.20395	711.60999	 45.10	
 20.413	111.900	 71.99372	  8.20621	 41.26330	 82.89124	-19.77954	 -6.04934	 92.22437	711.59003	 45.10	
 20.403	116.741	 72.23038	  4.68349	 46.02459	 80.91076	-18.61362	 -5.84300	 92.20468	711.63000	 45.10	
 20.400	121.604	 72.52862	  1.36116	 50.92134	 78.62207	-17.00876	 -5.66824	 92.23842	711.63000	 45.10	
 20.410	126.511	 72.71789	 -1.86006	 55.64567	 75.70821	-15.15122	 -5.51059	 92.21766	711.65997	 45.10	
 20.408	131.372	 72.83448	 -4.78643	 59.94936	 72.81307	-13.13204	 -5.33178	 92.17854	711.65997	 45.10	
 20.396	136.227	 73.11334	 -7.28118	 64.17307	 69.27632	-10.68290	 -5.22404	 92.22281	711.70001	 45.10	
 20.392	141.062	 73.37373	 -9.52177	 68.02232	 65.35903	 -7.81971	 -4.99777	 92.21918	711.71997	 45.10	
 20.397	145.903	 73.55212	-11.56858	 71.41628	 60.97127	 -4.83676	 -4.79853	 92.19801	711.83002	 45.10	
 20.405	150.835	 73.72750	-13.49705	 74.63370	 56.55415	 -1.66633	 -4.52154	 92.17191	711.77002	 45.10	
 20.401	155.705	 73.94342	-15.04935	 77.37714	 51.88392	  1.88585	 -4.34132	 92.18264	711.82001	 45.10	
 20.392	160.496	 74.19032	-16.24015	 79.62726	 47.47147	  5.68106	 -4.05600	 92.20020	711.75000	 45.00	
 20.410	165.423	 74.33115	-17.32027	 81.50034	 42.94021	  9.63784	 -3.79121	 92.19830	711.76001	 45.10	
 20.407	170.264	 74.49956	-18.05500	 82.93225	 38.22221	 13.76302	 -3.57046	 92.20821	711.71997	 45.00	
 20.401	175.153	 74.58705	-18.39075	 83.83274	 33.59261	 18.04607	 -3.35027	 92.20226	711.69000	 45.10	
  0.141	 45.000	 92.40182	 44.26108	 38.68255	 43.55801	 39.21935	  2.05176	 92.16807	711.71002	 45.10	
  4.001	128.691	 92.05910	 36.23547	 45.16034	 52.36799	 30.23034	  1.54823	 92.21735	711.62000	 45.00	
  4.002	 76.995	 91.87421	 45.70419	 35.28241	 54.15758	 28.30282	  1.85269	 92.25699	711.63000	 45.00	
  4.002	 25.892	 91.80389	 53.49414	 27.81790	 46.94264	 34.28826	  1.99843	 92.21275	711.67999	 45.00	
  4.002	-25.892	 92.01859	 53.51100	 28.20880	 37.74411	 43.43177	  1.79135	 92.24435	711.79999	 45.00	
  4.002	-76.995	 92.30258	 45.63307	 36.22144	 32.34162	 50.20498	  1.48837	 92.30331	711.65002	 45.00	
  4.001	-128.691	 92.31949	 36.24544	 45.97710	 34.80056	 47.63444	  1.29870	 92.21653	711.65002	 45.00	
  4.000	180.000	 92.28633	 32.42373	 50.21721	 42.91341	 38.82727	  1.32662	 92.25541	711.77002	 45.00	
  8.000	180.000	 90.78514	 19.97956	 60.74594	 41.80480	 36.66579	 -0.04164	 92.27936	711.71002	 45.00	
  7.991	-152.370	 90.93410	 22.04383	 58.26130	 31.86103	 47.16276	 -0.13170	 92.23702	711.84003	 45.00	
  7.997	-124.550	 90.91778	 28.55679	 50.46870	 24.39419	 56.49139	 -0.19564	 92.21581	711.71002	 45.00	
  8.006	-96.837	 90.72605	 38.42029	 40.01107	 20.58991	 60.81800	 -0.13896	 92.21181	711.71997	 45.00	
  7.988	-69.228	 90.45652	 49.08696	 29.20405	 21.37034	 59.39344	  0.08094	 92.20332	711.78003	 45.00	
  7.997	-41.563	 90.08220	 58.35060	 20.62828	 26.36062	 52.34723	  0.44189	 92.20979	711.82001	 45.00	
  8.008	-13.821	 89.64063	 64.04237	 15.94270	 34.85613	 42.02464	  0.78999	 92.19937	711.73999	 45.00	
  8.008	 13.821	 89.35594	 64.07789	 15.41820	 44.82138	 31.69178	  1.03567	 92.24748	711.69000	 45.00	
  7.997	 41.563	 89.29089	 58.48376	 19.33423	 55.39724	 23.02785	  0.61704	 92.24078	711.70001	 45.00	
  7.988	 69.228	 89.37194	 49.18804	 27.33547	 62.29938	 17.63295	  0.82311	 92.20073	711.71997	 45.00	
  8.006	 96.837	 89.66248	 38.50581	 37.79665	 64.35411	 16.27303	  0.59839	 92.26641	711.72998	 44.90	
  7.997	124.550	 90.04750	 28.76496	 48.68057	 60.80495	 19.50684	  0.33076	 92.24824	711.71002	 44.90	
  7.991	152.370	 90.49372	 22.11532	 57.10503	 52.17785	 26.71575	  0.09778	 92.27176	711.65002	 44.90	
 12.009	161.059	 87.07425	  8.97653	 67.14133	 49.82793	 22.99319	 -2.48186	 92.25549	711.57001	 44.90	
 12.013	142.081	 86.65209	 13.35230	 60.61218	 60.29246	 14.70417	 -2.42055	 92.24543	711.66998	 44.90	
 12.006	123.113	 86.22200	 20.51608	 50.94040	 67.96944	  8.56970	 -2.24532	 92.23258	711.67999	 44.90	
 12.007	104.200	 85.81551	 29.72622	 39.91967	 72.00397	  5.19908	 -2.14022	 92.25947	711.63000	 45.00	
 11.989	 85.301	 85.40901	 40.54331	 28.71589	 72.36736	  4.52799	 -1.86344	 92.20516	711.71002	 44.90	
 12.013	 66.294	 85.11632	 51.60961	 18.46378	 69.15314	  6.74361	 -1.87685	 92.22949	711.59003	 44.90	
 12.012	 47.388	 84.96237	 61.50662	 10.48289	 62.29792	 11.61861	 -1.50694	 92.26799	711.65997	 44.90	
 11.990	 28.440	 85.01779	 68.86172	  5.02601	 52.11447	 19.13985	 -1.46091	 92.23964	711.71997	 45.00	
 11.991	  9.464	 85.12556	 72.78180	  2.69654	 41.67200	 28.67612	 -1.47916	 92.24139	711.62000	 45.00	
 11.991	 -9.464	 85.56152	 72.80322	  3.17396	 31.27877	 39.51977	 -1.66785	 92.26830	711.56000	 45.00	
 11.990	-28.440	 85.93090	 68.81853	  6.36464	 21.88596	 50.03831	 -1.93868	 92.23669	711.58002	 45.00	
 12.012	-47.388	 86.30907	 61.41546	 12.62063	 14.56472	 60.22336	 -1.99536	 92.20215	711.62000	 45.00	
 12.013	-66.294	 86.75653	 51.53326	 21.40620	 10.11634	 66.94331	 -2.19355	 92.21926	711.66998	 45.00	
 11.989	-85.301	 87.16757	 40.48658	 32.00101	  8.40273	 69.97156	 -1.88095	 92.24212	711.65997	 45.00	
 12.007	-104.200	 87.44434	 29.84883	 42.98721	  9.48630	 68.87868	 -2.23175	 92.20434	711.64001	 45.00	
 12.006	-123.113	 87.68636	 20.62657	 53.74596	 13.61595	 63.72105	 -2.24149	 92.24746	711.75000	 45.00	
 12.013	-142.081	 87.70922	 13.37859	 62.74779	 20.05471	 55.02098	 -2.17748	 92.20255	711.67999	 45.00	
 12.009	-161.059	 87.62117	  9.03634	 68.16720	 28.83460	 44.11086	 -2.46456	 92.19444	711.64001	 45.00	
 16.000	180.000	 82.21026	 -4.87273	 77.48518	 35.35207	 28.73689	 -3.26205	 92.16708	711.65002	 45.00	
 15.990	-165.604	 82.46230	 -4.07953	 76.40820	 25.00539	 39.96271	 -3.04477	 92.15105	711.69000	 45.00	
 16.002	-151.165	 82.64040	 -1.05052	 72.18423	 15.34279	 50.96637	 -2.64635	 92.21284	711.78003	 45.00	
 16.002	-136.836	 82.71708	  3.98342	 65.18665	  6.93831	 61.39221	 -2.42349	 92.17590	711.71997	 45.00	
 15.995	-122.439	 82.53712	 11.05287	 55.56072	  1.56784	 69.79874	 -2.30384	 92.17471	711.76001	 45.00	
 15.993	-107.966	 82.39339	 20.49551	 44.63055	 -2.00533	 75.05042	 -2.34536	 92.18342	711.71997	 44.90	
 16.005	-93.629	 81.98535	 30.65854	 33.34038	 -5.31734	 77.62464	 -2.24818	 92.17835	711.71997	 45.00	
 15.992	-79.234	 81.59348	 41.32006	 22.54499	 -5.35028	 76.91251	 -2.35817	 92.18158	711.56000	 45.00	
 16.009	-64.774	 81.13212	 52.34161	 11.82537	 -3.12782	 73.14694	 -2.44076	 92.16862	711.60999	 45.00	
 15.997	-50.364	 80.67022	 62.58847	  3.39800	  1.14811	 66.36620	 -2.59003	 92.15431	711.69000	 44.90	
 15.997	-36.045	 80.26108	 71.02623	 -2.67733	  7.35100	 56.77378	 -2.81193	 92.17586	711.69000	 44.90	
 16.000	-21.597	 79.83373	 77.07030	 -7.01071	 15.98358	 46.12360	 -3.00335	 92.22955	711.72998	 44.90	
 16.003	 -7.169	 79.39870	 80.08270	 -9.39053	 26.70496	 34.81272	 -3.02475	 92.16256	711.59003	 45.00	
 16.003	  7.169	 79.00994	 80.08556	 -9.38444	 36.55891	 24.52411	 -3.25637	 92.20210	711.62000	 45.00	
 16.000	 21.597	 78.83863	 77.12579	 -7.84159	 47.50674	 13.46771	 -3.37052	 92.22295	711.65002	 45.00	
 15.997	 36.045	 78.81253	 71.11496	 -3.95395	 57.94529	  4.92113	 -3.53231	 92.22636	711.75000	 45.00	
 15.997	 50.364	 78.84486	 62.82241	  1.16527	 67.47570	 -1.51374	 -3.70041	 92.20714	711.66998	 45.00	
 16.009	 64.774	 79.01837	 52.55628	  8.59225	 74.37537	 -6.16771	 -4.01279	 92.22134	711.65997	 45.10	
 15.992	 79.234	 79.22573	 41.50422	 18.54003	 78.73687	 -8.98302	 -4.00736	 92.19901	711.71997	 45.10	
 16.005	 93.629	 79.66424	 30.83379	 29.12481	 80.07899	 -9.11054	 -4.16922	 92.25371	711.75000	 45.10	
 15.993	107.966	 79.98047	 20.54122	 40.37844	 78.45600	 -7.96350	 -4.38417	 92.20851	711.64001	 45.10	
 15.995	122.439	 80.50169	 11.18250	 51.79134	 73.62959	 -4.39429	 -4.22233	 92.19824	711.71997	 45.10	
 16.002	136.836	 80.99985	  4.07369	 62.03969	 66.40862	  1.10811	 -4.18936	 92.23125	711.73999	 45.10	
 16.002	151.165	 81.42589	 -1.05163	 69.95095	 56.47847	  8.56366	 -4.13973	 92.19748	711.77002	 45.10	
 15.990	165.604	 81.93575	 -4.02975	 75.32976	 46.01070	 18.64420	 -3.71771	 92.24332	711.64001	 45.10	
 20.003	168.362	 75.19576	-16.64559	 81.86122	 40.52822	 12.77036	 -3.72641	 92.16450	711.71002	 45.10	
 20.008	156.764	 74.82758	-14.29218	 77.52979	 51.13834	  3.49547	 -4.25393	 92.24438	711.71997	 45.10	
 20.000	145.147	 74.32999	-10.19828	 70.62276	 61.69828	 -4.30398	 -4.82914	 92.21630	711.72998	 45.10	
 19.995	133.545	 73.79250	 -4.90994	 61.71813	 71.03867	-11.09342	 -5.25737	 92.26179	711.78998	 45.10	
 20.009	121.926	 73.28364	  2.00259	 51.30256	 78.09249	-15.71643	 -5.63213	 92.22448	711.76001	 45.10	
 20.005	110.327	 72.79499	 10.32070	 39.95419	 83.01225	-18.92000	 -5.96416	 92.23800	711.78003	 45.10	
 19.989	 98.733	 72.34233	 20.19278	 28.23903	 85.65891	-20.47210	 -6.27053	 92.26252	711.76001	 45.10	
 19.999	 87.075	 71.93114	 29.62090	 18.08182	 85.66504	-20.80158	 -5.91312	 92.21529	711.73999	 45.10	
 19.992	 75.457	 71.59298	 41.05589	  7.90301	 82.98315	-19.65171	 -5.83087	 92.16529	711.82001	 45.10	
 20.009	 63.844	 71.41190	 52.25299	 -0.47575	 78.20580	-17.29232	 -5.75577	 92.22163	711.87000	 45.10	
 19.989	 52.269	 71.27187	 62.53492	 -7.76471	 71.15446	-13.06936	 -5.50986	 92.16628	711.87000	 45.10	
 19.999	 40.602	 71.10383	 71.55075	-13.66516	 61.87624	 -7.28681	 -5.27614	 92.18641	711.84998	 45.10	
 20.004	 29.051	 71.04837	 78.52676	-17.91794	 51.71417	 -0.02005	 -4.90019	 92.21564	711.90002	 45.10	
 20.005	 17.433	 71.10137	 83.44080	-20.70966	 41.07690	  8.79893	 -4.45946	 92.26574	711.83002	 45.10	
 20.006	  5.780	 71.27396	 85.82570	-22.00363	 29.82242	 18.55075	 -4.05527	 92.21202	711.75000	 45.10	
 20.006	 -5.780	 71.70461	 85.85574	-21.50719	 19.69909	 29.14564	 -3.50567	 92.24644	711.88000	 45.10	
 20.005	-17.433	 72.13293	 83.33942	-19.57777	  9.99164	 40.69205	 -3.03359	 92.20804	711.89001	 45.10	
 20.004	-29.051	 72.56635	 78.46191	-16.20984	  1.47391	 51.39642	 -2.74064	 92.18310	711.91998	 45.10	
 19.999	-40.602	 73.01489	 71.32854	-11.18670	 -5.49391	 61.97344	 -2.54789	 92.20263	711.79999	 45.10	
 19.989	-52.269	 73.46179	 62.16187	 -4.56891	-10.97200	 71.13764	 -2.27275	 92.15933	711.79999	 45.10	
 20.009	-63.844	 73.81391	 51.75257	  3.22130	-14.94733	 77.67097	 -2.02319	 92.14597	711.79999	 45.10	
 19.992	-75.457	 74.34914	 40.72673	 12.05842	-17.32872	 81.97724	 -1.92546	 92.17370	711.91998	 45.10	
 19.999	-87.075	 74.77360	 29.95183	 22.84317	-18.01237	 83.95802	 -1.88163	 92.19820	711.78998	 45.10	
 19.989	-98.733	 75.26055	 19.96593	 33.46780	-17.35478	 83.18943	 -1.87185	 92.17082	711.77002	 45.10	
 20.005	-110.327	 75.58163	 10.13567	 44.90444	-15.02499	 79.87302	 -1.87649	 92.17282	711.78998	 45.00	
 20.009	-121.926	 75.95242	  1.84372	 56.02612	-10.95161	 74.38467	 -1.97141	 92.22729	711.84003	 45.00	
 19.995	-133.545	 76.22717	 -4.79673	 65.95174	 -5.30717	 66.18869	 -2.10712	 92.21192	711.79999	 45.10	
 20.000	-145.147	 76.13905	-10.06743	 73.85397	  1.46418	 56.20689	 -2.15215	 92.18627	711.81000	 45.10	
 20.008	-156.764	 75.92007	-14.19426	 79.70695	  9.70823	 45.32542	 -2.31663	 92.23042	711.76001	 45.10	
 20.003	-168.362	 75.71726	-16.79503	 83.03303	 19.23650	 33.95001	 -2.65111	 92.19531	711.81000	 45.10	
 20.000	180.000	 75.40585	-17.34162	 83.70176	 30.61987	 22.41925	 -3.21788	 92.19678	711.79999	 45.10	
