FileType=PCF
NHL=14
Date=05/30/19	10:19:24
Facility=APL
Serial=16071-4
Customer=NASA
NP=6
Mach=0.550000
Calibration=1:1
CalPts=490
TstPts=95
PortNumbering=AP Standard
Units=Torr C m/s kg/m^3 deg mm 
Theta[deg]	Phi[deg]	P1[Torr]	P2[Torr]	P3[Torr]	P4[Torr]	P5[Torr]	P6[Torr]	Pt[Torr]	Ps[Abs,Torr]	Ts[C]	
  0.000	  0.000	164.28758	 83.03822	 75.18215	 80.93470	 77.81051	  6.81498	164.16681	702.50000	 36.70	
  1.691	128.401	164.28546	 78.18612	 79.76890	 86.88444	 71.68913	  6.72978	164.17474	702.50000	 36.70	
  1.692	 77.194	164.20470	 84.58138	 73.03748	 88.25048	 70.18591	  6.77800	164.14822	702.66998	 36.70	
  1.699	 26.182	164.20876	 89.92171	 67.82014	 84.08471	 74.03411	  6.73021	164.18506	702.47998	 36.80	
  1.699	-26.182	164.23926	 89.86755	 68.00480	 77.36726	 80.78300	  6.66018	164.17215	702.65002	 36.70	
  1.692	-77.194	164.34503	 84.60750	 73.50198	 73.52377	 85.00352	  6.63681	164.25191	702.58002	 36.70	
  1.691	-128.401	164.43311	 78.09955	 80.16367	 75.12583	 83.69989	  6.62231	164.30188	702.57001	 36.70	
  1.700	180.000	164.46867	 75.24273	 83.08443	 81.10793	 77.83255	  6.63831	164.34567	702.59003	 36.80	
  3.400	180.000	164.42415	 67.07327	 90.94102	 80.74345	 77.32449	  6.17207	164.37944	702.65002	 36.80	
  3.388	-152.325	164.43188	 68.80774	 89.16097	 73.71712	 84.52676	  6.19227	164.39046	702.40002	 36.90	
  3.397	-124.529	164.45486	 73.69214	 84.06611	 68.32363	 90.10581	  6.19761	164.40675	702.45001	 36.80	
  3.399	-96.763	164.33481	 80.59458	 76.75548	 65.72345	 92.60833	  6.15651	164.35699	702.50000	 36.90	
  3.394	-69.283	164.22296	 87.97079	 69.30037	 66.35079	 91.60612	  6.17586	164.36047	702.58002	 36.90	
  3.400	-41.398	164.08179	 94.47241	 63.09624	 70.30092	 87.15984	  6.20208	164.35432	702.59003	 36.90	
  3.401	-14.021	164.09409	 98.24426	 59.56613	 76.64677	 80.56597	  6.24662	164.48799	702.58002	 36.90	
  3.401	 14.021	164.01274	 98.17335	 59.39632	 83.99789	 73.14454	  6.32522	164.48769	702.53998	 37.60	
  3.400	 41.398	164.04768	 94.42883	 62.53552	 90.60300	 66.86089	  6.42132	164.50053	702.59003	 37.60	
  3.394	 69.283	164.10034	 88.14148	 68.52911	 94.89144	 62.84637	  6.43728	164.45953	702.63000	 37.60	
  3.399	 96.763	164.26955	 80.94941	 75.88916	 95.92518	 62.11892	  6.46660	164.48363	702.62000	 37.60	
  3.397	124.529	164.43158	 73.90413	 83.24253	 93.48615	 64.89321	  6.35088	164.53340	702.69000	 37.60	
  3.388	152.325	164.56689	 69.02217	 88.67439	 88.05703	 70.40910	  6.23951	164.54634	702.64001	 37.60	
  5.099	161.165	164.12727	 60.13083	 96.84966	 87.74007	 69.40435	  5.52744	164.55574	702.66998	 37.60	
  5.109	142.013	163.96532	 63.78633	 92.54308	 94.37352	 62.61589	  5.61874	164.53464	702.57001	 37.60	
  5.095	123.033	163.75870	 69.36429	 86.20403	 99.54047	 56.72911	  5.79169	164.52034	702.70001	 37.60	
  5.105	104.191	163.56935	 76.22334	 78.69646	102.66243	 53.74884	  5.84731	164.52289	702.63000	 37.60	
  5.093	 85.207	163.41034	 83.76653	 70.98604	103.04270	 53.25389	  5.91244	164.54805	702.56000	 37.60	
  5.104	 66.290	163.26938	 91.22003	 63.67124	100.97438	 54.51302	  5.92615	164.58522	702.47998	 37.60	
  5.094	 47.331	163.15067	 97.97304	 57.41215	 96.52397	 58.59357	  5.90140	164.60712	702.59003	 37.70	
  5.089	 28.397	163.10155	103.07852	 53.17065	 90.37692	 65.05972	  5.81412	164.62828	702.58002	 37.70	
  5.096	  9.576	163.09985	105.63142	 51.08921	 83.23338	 72.02180	  5.75655	164.58339	702.57001	 37.70	
  5.096	 -9.576	163.23065	105.61550	 51.39751	 75.65787	 79.85323	  5.70082	164.63100	702.51001	 37.80	
  5.089	-28.397	163.34372	103.11618	 53.86806	 68.76225	 87.10309	  5.67130	164.62987	702.53998	 37.80	
  5.094	-47.331	163.56982	 98.01820	 58.49933	 62.94133	 93.39028	  5.69811	164.62784	702.48999	 37.80	
  5.104	-66.290	163.79366	 91.17515	 64.84759	 58.72581	 97.83089	  5.64920	164.66202	702.54999	 37.80	
  5.093	-85.207	163.96066	 83.55499	 72.37814	 56.73924	 99.95741	  5.62462	164.63824	702.38000	 37.90	
  5.105	-104.191	164.03476	 75.94340	 80.13432	 57.73616	 99.41688	  5.58028	164.56964	702.42999	 37.90	
  5.095	-123.033	164.13457	 69.13686	 87.51656	 61.18587	 96.15765	  5.54043	164.54643	702.56000	 37.90	
  5.109	-142.013	164.22993	 63.52333	 93.65755	 66.34875	 90.99303	  5.55339	164.57025	702.42999	 38.00	
  5.099	-161.165	164.25223	 60.09587	 97.40337	 72.88496	 84.22170	  5.49634	164.54938	702.58002	 38.10	
  5.100	180.000	164.22037	 58.85652	 98.52344	 80.24042	 76.81755	  5.48618	164.56433	702.46002	 38.10	
  6.800	180.000	163.34807	 50.72074	105.40703	 79.28158	 75.76918	  4.88180	164.61218	702.50000	 38.10	
  6.796	-166.229	163.37123	 51.57675	104.71445	 71.98311	 83.16016	  4.96116	164.60190	702.47998	 38.10	
  6.808	-152.311	163.39719	 54.10344	102.27426	 65.15966	 90.17125	  5.05757	164.63321	702.54999	 38.10	
  6.795	-138.383	163.36894	 58.12608	 97.61223	 58.61535	 96.37811	  5.05443	164.65689	702.45001	 38.20	
  6.792	-124.591	163.24982	 63.32298	 91.68662	 53.22171	101.55921	  4.99784	164.63557	702.47998	 38.20	
  6.787	-110.754	163.11424	 69.79177	 84.56711	 50.64702	105.26736	  5.03672	164.64735	702.51001	 38.20	
  6.800	-96.985	162.91315	 76.55293	 77.05288	 49.21868	107.12933	  5.08504	164.59000	702.58002	 38.20	
  6.800	-83.015	162.73608	 84.01643	 69.45094	 48.98996	107.08720	  5.12418	164.62617	702.48999	 38.30	
  6.787	-69.246	162.54193	 91.44102	 62.37153	 50.24676	104.95216	  5.16771	164.59488	702.53003	 38.30	
  6.792	-55.409	162.33800	 98.36851	 55.94423	 52.77003	101.02830	  5.19510	164.60504	702.52002	 38.40	
  6.795	-41.617	162.12462	104.59332	 50.50088	 57.15521	 95.65823	  5.25232	164.63451	702.50000	 38.40	
  6.808	-27.689	161.87381	109.01463	 46.28547	 63.94287	 89.24360	  5.19979	164.63031	702.48999	 38.50	
  6.796	-13.771	161.73598	111.91526	 43.72219	 70.99165	 81.99242	  5.25904	164.64923	702.51001	 38.50	
  6.800	  0.000	161.60915	112.86657	 42.68163	 78.15667	 74.47917	  5.22304	164.65123	702.60999	 38.50	
  6.796	 13.771	161.56413	111.88302	 43.29676	 85.44543	 67.03208	  5.18776	164.67328	702.65002	 38.40	
  6.808	 27.689	161.57243	108.94381	 45.53910	 92.50524	 59.41022	  5.24345	164.67746	702.57001	 38.40	
  6.795	 41.617	161.63733	104.74956	 49.38119	 98.68667	 54.15689	  5.24862	164.69502	702.69000	 38.40	
  6.792	 55.409	161.75934	 98.54182	 54.52915	103.86987	 50.67548	  5.27445	164.65932	702.57001	 38.40	
  6.787	 69.246	161.89383	 91.75233	 60.76736	107.67565	 47.65865	  5.28027	164.65332	702.53003	 38.40	
  6.800	 83.015	162.08459	 84.41597	 67.81996	109.87881	 45.93680	  5.27658	164.67638	702.56000	 38.30	
  6.800	 96.985	162.30244	 77.02901	 75.32145	110.15282	 46.00927	  5.25785	164.68811	702.59003	 38.30	
  6.787	110.754	162.52182	 69.91732	 82.92212	108.44238	 47.83441	  5.22700	164.68748	702.58002	 38.30	
  6.792	124.591	162.76820	 63.53282	 90.16460	104.97166	 50.99008	  5.25966	164.70015	702.56000	 38.30	
  6.795	138.383	162.98657	 58.36624	 96.24688	 99.81536	 54.57897	  5.12368	164.68196	702.53998	 38.30	
  6.808	152.311	163.18546	 54.31252	101.30009	 93.64545	 61.12365	  4.94692	164.67397	702.48999	 38.30	
  6.796	166.229	163.36116	 51.71896	104.40149	 86.67020	 68.46883	  4.91869	164.69939	702.56000	 38.30	
  8.491	168.704	161.84135	 43.13840	111.37864	 85.41509	 66.58022	  4.64954	164.66504	702.58002	 38.40	
  8.502	157.493	161.75005	 45.34029	108.60569	 92.78325	 58.51102	  4.69557	164.70853	702.52002	 38.40	
  8.494	146.194	161.56914	 48.73874	104.61755	 99.43871	 52.94443	  4.79318	164.69235	702.62000	 38.50	
  8.495	135.039	161.28651	 53.21212	 98.82975	105.50426	 48.03656	  4.89313	164.66866	702.60999	 38.50	
  8.487	123.723	161.07709	 58.66624	 92.37289	110.54279	 43.65712	  4.95624	164.73053	702.62000	 38.50	
  8.492	112.575	160.73083	 64.62102	 85.13417	113.67976	 40.21620	  4.83710	164.65839	702.53003	 38.60	
  8.510	101.220	160.51482	 71.75806	 77.29098	115.71149	 38.26194	  4.77095	164.65634	702.54999	 38.60	
  8.500	 90.000	160.27809	 79.21532	 69.68114	116.24281	 37.58108	  4.80138	164.65457	702.51001	 38.60	
  8.510	 78.780	160.08113	 86.67875	 62.28954	115.20231	 38.21565	  4.77320	164.66344	702.56000	 38.70	
  8.492	 67.425	159.87560	 94.12154	 55.30128	112.78056	 40.21114	  4.76645	164.64313	702.56000	 38.70	
  8.487	 56.277	159.75214	101.18204	 49.25200	109.00812	 43.38273	  4.83705	164.69400	702.62000	 38.70	
  8.495	 44.961	159.59540	107.42313	 44.00722	103.74992	 47.65499	  4.85660	164.66847	702.53003	 38.70	
  8.494	 33.806	159.54535	112.33537	 39.82462	 97.69824	 52.50563	  4.89438	164.66151	702.47998	 38.70	
  8.502	 22.507	159.45810	116.28158	 36.74169	 90.93692	 57.48604	  4.95751	164.68286	702.59003	 38.70	
  8.491	 11.296	159.47569	118.54639	 35.05641	 83.72408	 64.51953	  4.97908	164.64793	702.52002	 38.70	
  8.500	  0.000	159.55080	119.48898	 34.47672	 76.19758	 72.76376	  5.03919	164.69269	702.51001	 38.70	
  8.491	-11.296	159.67332	118.60173	 35.34914	 68.50152	 80.47872	  5.09278	164.64943	702.53998	 38.70	
  8.502	-22.507	159.80156	116.33829	 37.31814	 60.67196	 87.92775	  5.08839	164.67267	702.57001	 38.80	
  8.494	-33.806	160.03114	112.33152	 40.88284	 54.66393	 95.00120	  5.09555	164.67949	702.62000	 38.80	
  8.495	-44.961	160.28296	107.20535	 45.34161	 50.13105	101.28692	  5.12208	164.66365	702.58002	 38.80	
  8.487	-56.277	160.57716	100.85834	 50.99479	 46.18880	106.69360	  5.08989	164.66177	702.53998	 38.80	
  8.492	-67.425	160.75121	 93.97488	 57.19899	 43.04567	110.47446	  5.04468	164.65192	702.53998	 38.90	
  8.510	-78.780	160.96983	 86.27324	 64.38269	 41.18417	112.76310	  5.01791	164.64560	702.53998	 38.90	
  8.500	-90.000	161.21933	 78.69645	 71.89884	 40.83097	113.69968	  4.94484	164.66939	702.52002	 38.90	
  8.510	-101.220	161.38361	 71.42181	 79.47686	 41.69904	113.02403	  4.89168	164.64418	702.59998	 38.90	
  8.492	-112.575	161.57355	 64.47701	 87.26011	 43.88505	110.80431	  4.83601	164.65491	702.51001	 38.90	
  8.487	-123.723	161.80919	 58.43332	 94.22375	 47.49780	107.23375	  4.81491	164.70511	702.53003	 38.80	
  8.495	-135.039	161.93604	 52.99861	100.74666	 51.51328	102.07878	  4.84009	164.70370	702.57001	 38.90	
  8.494	-146.194	162.03632	 48.79778	105.72021	 55.79515	 95.97622	  4.88088	164.70314	702.51001	 38.90	
  8.502	-157.493	162.03102	 45.25232	109.63643	 63.00372	 89.19321	  4.82518	164.68867	702.63000	 38.90	
  8.491	-168.704	161.93044	 43.21401	111.84687	 70.31569	 81.99192	  4.73249	164.63503	702.59003	 38.90	
  8.500	180.000	161.94763	 42.60415	112.55837	 77.86087	 74.30726	  4.62359	164.66087	702.51001	 38.90	
 10.200	180.000	159.95723	 34.35952	119.13348	 76.08127	 72.15893	  4.78958	164.64473	702.46997	 38.90	
 10.191	-170.497	160.03374	 34.94134	118.59286	 68.11242	 80.10800	  4.85633	164.69800	702.54999	 38.90	
 10.210	-161.034	160.03276	 36.50526	116.69361	 60.21101	 87.64352	  4.92089	164.70107	702.60999	 38.90	
 10.194	-151.526	160.03131	 39.31421	113.27104	 53.76429	 94.94266	  4.91991	164.68860	702.46002	 38.90	
 10.190	-142.105	159.99605	 42.97948	108.63535	 49.06707	101.52718	  4.93939	164.70372	702.53998	 38.90	
 10.215	-132.646	159.86810	 47.48157	103.39422	 43.87569	107.55753	  4.90225	164.68773	702.53003	 38.90	
 10.203	-123.092	159.77322	 53.02648	 96.50745	 39.63926	112.33617	  4.95077	164.75066	702.56000	 38.90	
 10.192	-113.678	159.56073	 59.18042	 89.42790	 36.16149	116.29835	  4.96378	164.69868	702.57001	 38.90	
 10.208	-104.249	159.40778	 66.07240	 81.46606	 33.88260	119.29537	  5.03837	164.69963	702.54999	 38.90	
 10.210	-94.801	159.15746	 73.25462	 73.89383	 32.68261	120.54665	  5.09928	164.70937	702.54999	 38.90	
 10.210	-85.199	158.93552	 80.66908	 66.29565	 32.29797	120.40140	  5.15549	164.72394	702.63000	 39.00	
 10.208	-75.751	158.64294	 88.52554	 58.72141	 32.89048	118.92144	  5.17318	164.69131	702.53998	 38.90	
 10.192	-66.322	158.45354	 96.01045	 51.78651	 35.00412	115.56327	  5.21114	164.70857	702.54999	 39.00	
 10.203	-56.908	158.19495	103.06847	 45.54378	 38.10985	111.72666	  5.30318	164.72581	702.63000	 39.00	
 10.215	-47.354	157.92241	109.39481	 39.87500	 42.34562	106.60104	  5.26427	164.71318	702.58002	 39.00	
 10.190	-37.895	157.69173	114.97356	 35.12833	 47.05484	100.30862	  5.25040	164.71448	702.59998	 39.00	
 10.194	-28.474	157.44554	119.56236	 31.18537	 52.25229	 93.56729	  5.24709	164.72876	702.57001	 39.00	
 10.210	-18.966	157.27536	122.96916	 28.32960	 58.46277	 86.02198	  5.27507	164.73579	702.59998	 39.10	
 10.191	 -9.503	157.12636	124.93292	 26.77933	 65.58790	 78.32990	  5.21117	164.72549	702.66998	 39.10	
 10.200	  0.000	156.92915	125.54544	 26.19607	 74.00105	 69.79649	  5.16100	164.66609	702.60999	 39.20	
 10.191	  9.503	156.83714	124.88091	 26.33982	 81.59395	 62.23678	  5.07678	164.67291	702.54999	 39.30	
 10.210	 18.966	156.80585	122.97932	 27.67574	 89.04917	 55.55467	  5.04278	164.69569	702.50000	 39.30	
 10.194	 28.474	156.86197	119.55235	 30.23175	 96.19532	 50.12179	  4.94963	164.68085	702.65002	 39.50	
 10.190	 37.895	156.95163	115.07642	 33.87997	102.79621	 44.46754	  4.91353	164.69780	702.56000	 39.50	
 10.215	 47.354	157.04651	109.71732	 38.35779	108.83578	 39.62582	  4.83510	164.74756	702.64001	 39.50	
 10.203	 56.908	157.24237	103.31033	 43.78215	113.83719	 35.49889	  4.76062	164.71660	702.54999	 39.40	
 10.192	 66.322	157.45320	 96.07474	 49.88728	117.67535	 32.50159	  4.68508	164.69933	702.60999	 39.40	
 10.208	 75.751	157.55907	 88.65415	 56.52807	121.18430	 30.24618	  4.63369	164.68761	702.63000	 39.50	
 10.210	 85.199	157.80513	 81.01935	 63.88491	122.84637	 29.26061	  4.64054	164.69720	702.47998	 39.50	
 10.210	 94.801	158.00807	 73.41809	 71.45950	123.06796	 29.41925	  4.61953	164.65988	702.56000	 39.40	
 10.208	104.249	158.30009	 66.21235	 79.00673	122.02163	 30.39994	  4.68113	164.69601	702.65997	 39.40	
 10.192	113.678	158.60585	 59.37601	 86.85001	119.22928	 32.65956	  4.81661	164.68449	702.57001	 39.40	
 10.203	123.092	158.93925	 53.29914	 94.41379	115.11584	 35.91697	  4.90247	164.73247	702.60999	 39.50	
 10.215	132.646	159.08800	 47.81944	101.13516	110.87582	 40.08556	  4.93174	164.67654	702.62000	 39.50	
 10.190	142.105	159.32338	 43.08537	107.14568	104.80921	 45.30165	  4.96405	164.65741	702.53998	 39.50	
 10.194	151.526	159.57570	 39.23824	111.90083	 98.24103	 51.15243	  4.85759	164.69431	702.56000	 39.50	
 10.210	161.034	159.71182	 36.46444	115.79468	 91.21558	 56.55009	  4.79064	164.68701	702.59003	 39.50	
 10.191	170.497	159.91429	 34.99580	118.13070	 83.83116	 63.78350	  4.76506	164.71382	702.50000	 39.50	
 11.899	171.783	157.48514	 26.27747	124.25948	 81.55902	 61.48173	  4.99095	164.70757	702.52002	 39.50	
 11.890	163.610	157.33171	 27.55780	122.39943	 89.12035	 54.90083	  5.01229	164.73216	702.47998	 39.40	
 11.889	155.445	157.19330	 29.82862	119.11692	 96.45389	 48.84304	  5.10969	164.74409	702.48999	 39.40	
 11.909	147.299	156.91565	 33.02397	114.61062	103.38340	 42.41117	  5.18820	164.72606	702.53003	 39.40	
 11.902	139.148	156.64116	 37.29445	109.19955	109.90130	 36.93642	  5.11882	164.71255	702.65002	 39.40	
 11.894	130.867	156.39449	 42.28027	102.87068	115.33733	 32.13585	  5.17514	164.70981	702.66998	 39.40	
 11.897	122.732	156.08913	 47.69831	 95.95345	120.29053	 27.92628	  4.93845	164.73607	702.66998	 39.40	
 11.903	114.597	155.79320	 53.82680	 88.22736	124.57941	 24.81117	  4.87968	164.72467	702.70001	 39.40	
 11.893	106.346	155.57755	 60.52238	 80.38392	127.20637	 22.82528	  4.81094	164.73079	702.60999	 39.40	
 11.892	 98.155	155.27702	 67.71369	 72.64105	128.61784	 21.62291	  4.78385	164.69305	702.59003	 39.40	
 11.900	 90.000	154.95189	 74.79885	 65.18372	128.95738	 21.02574	  4.79730	164.67828	702.57001	 39.40	
 11.892	 81.845	154.69879	 82.32668	 57.75419	128.13379	 21.10691	  4.79897	164.69519	702.60999	 39.40	
 11.893	 73.654	154.42876	 90.00191	 50.54416	126.13982	 22.34076	  4.94696	164.65628	702.59003	 39.40	
 11.903	 65.403	154.22655	 97.67908	 43.77092	122.76814	 24.50119	  4.97233	164.67476	702.59998	 39.40	
 11.897	 57.268	154.09221	104.91130	 37.78331	117.99451	 27.60869	  4.98969	164.68942	702.67999	 39.50	
 11.894	 49.133	153.87689	111.33410	 32.37451	113.28230	 31.52453	  5.00564	164.64391	702.66998	 39.50	
 11.902	 40.852	153.86873	117.21786	 27.30951	107.20056	 36.31736	  5.15231	164.71315	702.69000	 39.50	
 11.909	 32.701	153.75955	122.26484	 23.16367	100.83087	 41.39803	  5.10051	164.69621	702.67999	 39.50	
 11.889	 24.555	153.75769	125.94395	 20.37620	 93.95502	 47.44769	  5.17087	164.70157	702.65002	 39.60	
 11.890	 16.390	153.70906	128.87619	 18.46232	 86.47076	 53.92002	  5.25786	164.69820	702.59003	 39.60	
 11.899	  8.217	153.71761	130.90761	 17.36599	 78.76089	 59.80630	  5.27520	164.74007	702.58002	 39.60	
 11.900	  0.000	153.81403	131.40741	 17.40960	 70.62447	 67.28137	  5.28644	164.69469	702.70001	 39.60	
 11.899	 -8.217	153.87688	130.80228	 17.60035	 63.08059	 74.78553	  5.35431	164.66113	702.59003	 39.60	
 11.890	-16.390	154.09209	129.00862	 19.04496	 56.65264	 83.56203	  5.40900	164.70276	702.59998	 39.60	
 11.889	-24.555	154.23523	125.96635	 21.44181	 50.25069	 91.25634	  5.41814	164.69656	702.60999	 39.70	
 11.909	-32.701	154.34271	122.07581	 24.67160	 43.75180	 98.55804	  5.46607	164.68010	702.62000	 39.80	
 11.902	-40.852	154.65894	117.16286	 28.99874	 38.39755	105.17983	  5.41075	164.69923	702.60999	 39.80	
 11.894	-49.133	154.92050	111.09576	 34.12669	 33.96451	111.31459	  5.45324	164.67340	702.58002	 39.80	
 11.897	-57.268	155.17567	104.70430	 39.84127	 29.76941	116.22970	  5.46000	164.68671	702.63000	 39.80	
 11.903	-65.403	155.41751	 97.38634	 46.00882	 26.62234	121.00361	  5.39706	164.65933	702.71002	 39.80	
 11.893	-73.654	155.73209	 89.74991	 53.04619	 24.64843	124.18892	  5.30782	164.67827	702.63000	 39.80	
 11.892	-81.845	155.98346	 81.94188	 60.40274	 23.66735	125.99768	  5.30767	164.65967	702.77002	 39.80	
 11.900	-90.000	156.22334	 74.52268	 67.87321	 23.85080	126.70155	  5.26103	164.66721	702.72998	 39.80	
 11.892	-98.155	156.47656	 67.42847	 75.42920	 24.36449	126.13309	  5.25405	164.66104	702.78998	 39.90	
 11.893	-106.346	156.76337	 60.28984	 83.20149	 25.68685	124.55129	  5.28466	164.71596	702.70001	 39.90	
 11.903	-114.597	156.95488	 53.40810	 91.22968	 28.04252	121.72916	  5.24100	164.69463	702.75000	 39.90	
 11.897	-122.732	157.15112	 47.32543	 98.47131	 31.43625	117.29536	  5.19868	164.69252	702.76001	 39.90	
 11.894	-130.867	157.30064	 41.84395	105.58255	 35.78571	112.32616	  5.13708	164.63809	702.78998	 39.90	
 11.902	-139.148	157.51840	 37.07647	111.23811	 40.68757	106.46755	  5.15011	164.70148	702.71002	 39.90	
 11.909	-147.299	157.54784	 33.12564	116.18739	 46.25162	 99.92151	  5.06015	164.66679	702.78003	 39.90	
 11.889	-155.445	157.59836	 30.00031	120.27282	 52.23805	 92.88931	  5.09358	164.69096	702.73999	 39.90	
 11.890	-163.610	157.60760	 27.69202	123.17830	 57.88754	 85.39699	  5.12323	164.68164	702.78003	 39.90	
 11.899	-171.783	157.55171	 26.09411	124.83024	 65.41471	 77.61637	  5.11436	164.69017	702.79999	 39.90	
 11.900	180.000	157.49617	 25.69221	125.17473	 72.90771	 68.86120	  4.99612	164.66504	702.73999	 40.00	
 13.600	180.000	154.34865	 16.78057	131.29631	 70.43402	 66.04616	  5.18513	164.69205	702.69000	 40.00	
 13.608	-172.853	154.37880	 16.90034	131.05188	 62.64419	 73.70366	  5.22867	164.68770	702.66998	 40.10	
 13.611	-165.583	154.47380	 18.31198	129.50627	 55.57067	 82.71231	  5.37550	164.68587	702.89001	 40.10	
 13.601	-158.353	154.47668	 20.50062	126.61922	 49.78345	 90.37250	  5.37162	164.66258	702.69000	 40.10	
 13.609	-151.210	154.46651	 22.91425	123.08752	 43.28242	 97.69267	  5.29610	164.65535	702.76001	 40.10	
 13.611	-143.999	154.47620	 26.67290	118.54247	 37.32569	104.66307	  5.31560	164.67693	702.84998	 40.00	
 13.601	-136.825	154.33173	 30.99121	113.09495	 32.27940	111.19452	  5.36701	164.66052	702.83002	 40.00	
 13.596	-129.640	154.09737	 35.75739	107.34515	 27.47354	116.62819	  5.34009	164.65007	702.90002	 40.00	
 13.611	-122.431	153.88745	 41.32170	100.10264	 23.24291	121.95183	  5.48564	164.63716	702.91998	 40.00	
 13.604	-115.211	153.70082	 47.45863	 92.59423	 20.12651	126.23895	  5.50329	164.62970	702.71997	 40.10	
 13.595	-108.042	153.52191	 53.98679	 84.64873	 17.85127	129.27759	  5.45255	164.62492	702.84998	 40.10	
 13.607	-100.793	153.31131	 61.14838	 76.76285	 16.10451	131.33755	  5.34289	164.64091	702.83002	 40.20	
 13.601	-93.617	153.08716	 68.30956	 69.14567	 15.33230	132.35818	  5.29284	164.70518	702.75000	 40.30	
 13.601	-86.383	152.80798	 75.40746	 61.71286	 14.88090	132.27441	  5.33430	164.64015	702.73999	 40.30	
 13.607	-79.207	152.51601	 82.99691	 54.06367	 14.96322	131.19307	  5.39141	164.66246	702.78003	 40.30	
 13.595	-71.958	152.29712	 90.82903	 46.87769	 16.36112	128.92598	  5.45242	164.64151	702.72998	 40.30	
 13.604	-64.789	151.98375	 98.34280	 40.10740	 18.48947	125.65392	  5.47890	164.61121	702.71002	 40.30	
 13.611	-57.569	151.55824	105.88448	 33.58752	 21.27067	120.94095	  5.47881	164.61594	702.81000	 40.30	
 13.596	-50.360	151.45741	112.46382	 28.08533	 25.16812	115.59974	  5.50679	164.64490	702.82001	 40.30	
 13.601	-43.175	151.16600	118.52287	 22.80468	 29.54930	109.90415	  5.44328	164.62483	702.77002	 40.20	
 13.611	-36.001	150.91066	123.82996	 18.54037	 34.58844	103.33860	  5.43167	164.62819	702.79999	 40.20	
 13.609	-28.790	150.62517	128.48270	 14.99359	 40.63279	 96.27810	  5.43650	164.63229	702.75000	 40.30	
 13.601	-21.647	150.46965	132.05862	 12.13577	 47.15925	 88.65300	  5.41692	164.64157	702.76001	 40.30	
 13.611	-14.417	150.35918	134.81554	 10.10401	 54.13766	 79.66480	  5.40029	164.65271	702.75000	 40.30	
 13.608	 -7.147	150.17871	136.49210	  8.75086	 60.39808	 71.69325	  5.42692	164.64072	702.71002	 40.40	
 13.600	  0.000	150.04712	136.86180	  8.56448	 67.49109	 64.02219	  5.38253	164.57614	702.73999	 40.40	
 13.608	  7.147	149.95926	136.39098	  8.49837	 74.51974	 57.62123	  5.39416	164.63312	702.69000	 40.50	
 13.611	 14.417	149.91037	134.74742	  9.25843	 83.07942	 51.18918	  5.35616	164.66502	702.76001	 40.40	
 13.601	 21.647	149.97989	132.14915	 11.13387	 91.16621	 44.24871	  5.38679	164.67053	702.75000	 40.40	
 13.609	 28.790	149.92979	128.53323	 13.59240	 98.27715	 38.07095	  5.35110	164.59212	702.72998	 40.40	
 13.611	 36.001	150.01660	124.13108	 16.88214	104.97056	 32.47214	  5.34004	164.62788	702.76001	 40.40	
 13.601	 43.175	150.12793	118.74946	 20.94452	111.58142	 27.58792	  5.33335	164.63242	702.75000	 40.40	
 13.596	 50.360	150.23781	112.58769	 25.65526	117.17043	 23.32232	  5.27637	164.56422	702.73999	 40.40	
 13.611	 57.569	150.33954	105.84273	 31.06710	122.30417	 19.54394	  5.26295	164.51239	702.75000	 40.30	
 13.604	 64.789	150.61018	 98.67318	 37.50753	127.13097	 16.73567	  5.30694	164.54869	702.75000	 40.30	
 13.595	 71.958	150.81311	 91.15174	 43.99326	130.52678	 14.42276	  5.27328	164.58626	702.78998	 40.30	
 13.607	 79.207	150.96858	 83.29016	 51.13623	132.89977	 12.73702	  5.19052	164.55090	702.71997	 40.30	
 13.601	 86.383	151.22520	 75.42648	 58.62036	134.14056	 12.20680	  5.01580	164.53607	702.78998	 40.30	
 13.601	 93.617	151.49460	 68.68408	 65.71162	134.39485	 12.69367	  4.97413	164.57637	702.84003	 40.30	
 13.607	100.793	151.79811	 61.46049	 73.33579	133.69865	 13.23400	  5.21788	164.57939	702.88000	 40.40	
 13.595	108.042	152.10516	 54.41818	 81.30531	131.89607	 14.79954	  5.24708	164.58514	702.79999	 40.40	
 13.604	115.211	152.31998	 47.76247	 89.14182	128.93430	 17.14290	  5.22468	164.50296	702.83002	 40.50	
 13.611	122.431	152.62315	 41.60927	 97.11304	124.99161	 20.11256	  5.16396	164.56480	702.83002	 40.50	
 13.596	129.640	152.87939	 36.03300	104.20526	119.57330	 23.88068	  5.21910	164.51588	702.71002	 40.50	
 13.601	136.825	153.19676	 31.24055	110.60661	114.18655	 28.45947	  5.34889	164.53828	702.81000	 40.60	
 13.611	143.999	153.44609	 26.63627	116.37421	108.11296	 33.61755	  5.48176	164.53340	702.81000	 40.60	
 13.609	151.210	153.66162	 23.05510	121.36192	101.20313	 39.39458	  5.49992	164.53329	702.84003	 40.60	
 13.601	158.353	153.93344	 20.42110	125.17314	 93.91428	 46.03805	  5.39695	164.53603	702.73999	 40.60	
 13.611	165.583	154.03252	 18.29290	128.44283	 86.15904	 52.79660	  5.23772	164.52791	702.69000	 40.60	
 13.608	172.853	154.18346	 17.48466	130.29515	 77.62550	 58.83471	  5.18307	164.52858	702.82001	 40.60	
 15.298	173.587	150.74908	  8.55110	135.85277	 74.64393	 56.86115	  5.32327	164.56102	702.78003	 40.60	
 15.291	167.167	150.60120	  9.39137	134.07182	 82.18106	 50.11938	  5.29346	164.54805	702.78998	 40.60	
 15.307	160.676	150.35918	 10.97595	131.40549	 90.83707	 42.96595	  5.41685	164.53375	702.89001	 40.60	
 15.300	154.261	150.17590	 13.48839	127.47138	 98.58100	 36.32136	  5.54010	164.53705	702.76001	 40.60	
 15.288	147.854	149.97743	 16.76271	122.94753	105.62228	 30.31933	  5.53129	164.46283	702.78003	 40.60	
 15.293	141.428	149.82298	 20.73444	117.53510	112.25188	 24.92751	  5.43229	164.45096	702.81000	 40.60	
 15.299	134.985	149.57170	 25.06654	111.35246	118.21159	 20.06835	  5.14437	164.50157	702.72998	 40.60	
 15.305	128.583	149.18701	 29.62174	104.84579	123.86222	 15.70050	  5.08601	164.46901	702.78998	 40.60	
 15.309	122.142	148.90147	 35.37557	 97.59450	129.15999	 12.16535	  5.15592	164.47328	702.77002	 40.60	
 15.304	115.711	148.62534	 41.52855	 89.51337	133.09732	  9.16697	  5.28439	164.46895	702.72998	 40.70	
 15.297	109.291	148.32658	 47.95144	 81.77901	136.07484	  6.86060	  5.36135	164.43173	702.75000	 40.80	
 15.293	102.897	148.06250	 54.70884	 73.99249	138.18480	  5.06632	  5.36587	164.47841	702.85999	 40.80	
 15.293	 96.458	147.81355	 62.32067	 65.98759	139.27524	  3.98270	  5.32673	164.50368	702.83002	 40.80	
 15.300	 90.000	147.43777	 68.98687	 58.81005	139.50064	  3.65104	  5.19191	164.47650	702.73999	 40.80	
 15.293	 83.542	147.15501	 76.14864	 51.54977	138.79842	  3.51700	  5.31972	164.48206	702.77002	 40.80	
 15.293	 77.103	146.92241	 83.99361	 44.10255	137.06433	  4.46182	  5.31811	164.45070	702.73999	 40.80	
 15.297	 70.709	146.69954	 91.74612	 37.34275	134.47896	  6.23911	  5.31103	164.44070	702.75000	 40.90	
 15.304	 64.289	146.54033	 99.45533	 30.60584	130.98555	  8.63407	  5.36888	164.51274	702.60999	 40.90	
 15.309	 57.858	146.32710	106.67809	 24.90239	126.20901	 11.54963	  5.34288	164.51608	702.78003	 40.90	
 15.305	 51.417	146.14282	113.34839	 19.70212	120.82743	 15.05104	  5.39351	164.51793	702.71002	 40.90	
 15.299	 45.015	145.89117	119.68796	 14.93355	115.16808	 19.12989	  5.35034	164.49066	702.67999	 40.90	
 15.293	 38.572	145.86809	125.28707	 10.84078	108.85000	 23.89875	  5.36641	164.48131	702.71002	 40.90	
 15.288	 32.146	145.80023	130.18398	  7.35376	102.10507	 29.17479	  5.27533	164.47021	702.79999	 40.90	
 15.300	 25.739	145.69160	134.29694	  4.37042	 95.07976	 34.87611	  5.30425	164.47964	702.81000	 40.90	
 15.307	 19.324	145.59468	137.58087	  1.94962	 86.97683	 41.24659	  5.28934	164.54465	702.83002	 40.90	
 15.291	 12.833	145.51622	139.91051	  0.41051	 78.48628	 48.18129	  5.36890	164.51189	702.95001	 40.90	
 15.298	  6.413	145.61229	141.20979	 -0.19559	 70.99426	 55.29593	  5.34563	164.46941	702.70001	 40.90	
 15.300	  0.000	145.72128	141.79497	 -0.21013	 64.14900	 60.83244	  5.36548	164.45830	702.85999	 41.00	
 15.298	 -6.413	145.86630	141.29675	  0.11573	 58.15696	 68.33475	  5.33356	164.46553	702.85999	 41.00	
 15.291	-12.833	146.12814	139.81755	  1.34882	 51.07233	 76.41349	  5.32535	164.48293	702.81000	 41.00	
 15.307	-19.324	146.15482	137.55524	  3.12381	 43.74491	 84.45659	  5.26059	164.48979	703.01001	 41.10	
 15.300	-25.739	146.28343	134.15369	  5.65024	 37.37004	 93.12530	  5.27948	164.44762	702.83002	 41.10	
 15.288	-32.146	146.56369	129.99658	  8.71509	 31.38805	100.59132	  5.29952	164.43822	702.89001	 41.10	
 15.293	-38.572	146.88748	125.03446	 12.47413	 25.57568	107.64587	  5.36438	164.49382	702.20001	 41.10	
 15.299	-45.015	147.16928	119.36564	 16.79971	 20.61827	113.96093	  5.34968	164.49524	702.09003	 41.20	
 15.305	-51.417	147.40161	113.11263	 21.51534	 16.41774	119.63556	  5.36682	164.49060	702.45001	 41.30	
 15.309	-57.858	147.59471	106.46831	 27.30629	 13.10130	125.09907	  5.37059	164.48347	702.85999	 41.30	
 15.304	-64.289	147.95407	 98.93253	 33.87176	 10.23213	129.67967	  5.32401	164.49062	702.35999	 41.30	
 15.297	-70.709	148.26363	 91.27498	 40.56711	  7.92857	133.09564	  5.32292	164.46204	702.32001	 41.30	
 15.293	-77.103	148.47292	 83.51587	 47.71740	  6.40140	135.64438	  5.29580	164.49678	702.33002	 41.30	
 15.293	-83.542	148.72301	 75.70956	 55.13666	  5.71562	137.10678	  5.27637	164.46519	702.33002	 41.30	
 15.300	-90.000	149.04913	 68.73172	 62.41848	  6.25480	137.61737	  5.20607	164.49013	702.21002	 41.30	
 15.293	-96.458	149.30589	 61.73881	 69.87930	  6.62823	137.19139	  5.22395	164.49113	703.03998	 41.30	
 15.293	-102.897	149.65636	 54.39699	 77.76234	  7.76940	135.88684	  5.27299	164.46707	702.25000	 41.30	
 15.297	-109.291	149.90977	 47.60887	 85.59583	  9.77930	133.64536	  5.37781	164.49678	702.15997	 41.30	
 15.304	-115.711	150.06006	 41.11036	 93.61455	 12.26092	130.29521	  5.43405	164.46812	702.13000	 41.30	
 15.309	-122.142	150.23878	 35.15702	101.12843	 15.31237	126.00826	  5.44057	164.49269	702.19000	 41.40	
 15.305	-128.583	150.33795	 29.50242	108.39539	 19.04822	120.79608	  5.38600	164.47774	702.27002	 41.40	
 15.299	-134.985	150.60426	 24.38588	114.33494	 23.58043	115.14716	  5.27959	164.46960	702.16998	 41.40	
 15.293	-141.428	150.80334	 19.83216	120.19946	 28.65038	108.90135	  5.25081	164.49281	702.22998	 41.40	
 15.288	-147.854	150.89409	 16.03041	125.19657	 34.27125	102.10053	  5.21912	164.49498	702.10999	 41.40	
 15.300	-154.261	150.78046	 13.27379	129.44598	 40.24154	 94.88672	  5.25431	164.49236	702.16998	 41.40	
 15.307	-160.676	150.74451	 11.03745	132.72472	 46.69867	 87.35740	  5.31169	164.42853	702.15997	 41.40	
 15.291	-167.167	150.81171	  9.18958	134.99789	 53.90468	 78.37357	  5.34069	164.46036	702.16998	 41.50	
 15.298	-173.587	150.75763	  8.07361	136.24744	 59.69458	 70.52725	  5.36382	164.44344	702.12000	 41.50	
 15.300	180.000	150.66423	  7.97008	136.51242	 67.41624	 62.68682	  5.27766	164.43047	702.20001	 41.40	
 17.000	180.000	146.65425	 -1.10542	141.55505	 64.20453	 59.82179	  5.28857	164.46594	702.06000	 41.40	
 16.990	-174.179	146.78438	 -0.84841	141.35722	 57.46424	 66.95066	  5.29418	164.48854	702.17999	 41.40	
 17.009	-168.383	146.78465	  0.03081	140.24559	 50.89838	 74.97541	  5.26423	164.45753	702.14001	 41.40	
 17.000	-162.596	146.79820	  1.74149	138.06508	 43.60388	 82.91268	  5.16721	164.41429	702.21002	 41.50	
 16.990	-156.759	146.82994	  3.88984	135.19933	 36.85998	 91.74591	  5.04554	164.43684	702.15002	 41.50	
 16.995	-150.919	146.78604	  6.19469	131.34785	 30.60021	 99.27465	  5.06644	164.39980	702.23999	 41.50	
 16.988	-145.161	146.78578	  9.26346	126.70999	 25.00822	106.32128	  5.04979	164.43088	702.28003	 41.40	
 17.014	-139.343	146.72110	 13.43797	121.40314	 19.77064	112.85229	  5.13330	164.45299	702.21002	 41.40	
 17.007	-133.546	146.52269	 18.14819	115.31288	 14.96635	118.77001	  5.13365	164.41916	702.19000	 41.50	
 17.001	-127.699	146.29533	 23.19809	108.96733	 10.66855	124.64459	  5.19244	164.43152	702.12000	 41.50	
 17.006	-121.937	146.07870	 28.62340	101.79187	  7.00525	129.80016	  5.19373	164.45334	702.15997	 41.50	
 17.002	-116.134	145.86867	 34.76238	 94.20636	  3.97093	134.02750	  5.25707	164.42700	702.12000	 41.50	
 17.001	-110.310	145.65390	 41.09457	 86.24194	  1.38544	137.61488	  5.21142	164.43654	702.17999	 41.50	
 16.988	-104.517	145.38954	 47.89684	 78.37601	 -0.70263	140.04263	  5.13588	164.43771	702.17999	 41.50	
 17.008	-98.662	145.00526	 55.06334	 70.31555	 -2.24666	141.70143	  5.11561	164.47519	702.25000	 41.60	
 16.996	-92.909	144.72194	 62.12819	 62.51580	 -2.79702	142.39302	  5.16872	164.48886	702.21002	 41.70	
 16.996	-87.091	144.43172	 68.35731	 55.88674	 -3.26238	142.30954	  5.17695	164.44624	702.28998	 41.80	
 17.012	-81.253	144.06337	 75.95782	 48.33223	 -3.34536	141.45731	  5.17986	164.42598	702.34003	 41.80	
 16.988	-75.483	143.92297	 83.66010	 41.00349	 -2.27559	139.69963	  5.13471	164.47237	702.28998	 41.80	
 17.001	-69.690	143.62463	 91.46593	 33.90821	 -0.73808	137.04692	  5.18647	164.45280	702.25000	 41.90	
 17.002	-63.866	143.39363	 99.10262	 26.78226	  1.71002	133.52364	  5.13162	164.44571	702.16998	 41.80	
 17.006	-58.063	143.18822	106.62228	 20.71907	  4.50210	129.02592	  5.17447	164.51830	702.28998	 41.80	
 17.001	-52.301	142.86610	113.36086	 15.60425	  7.44173	123.57698	  5.17626	164.46506	702.28998	 41.80	
 17.007	-46.454	142.50920	119.95051	 10.71523	 11.50549	117.78318	  5.20219	164.43439	702.23999	 41.70	
 17.014	-40.657	142.23763	125.90196	  6.19647	 16.33390	111.65878	  5.21326	164.46541	702.25000	 41.70	
 16.988	-34.839	142.04839	130.94438	  2.48250	 21.93237	104.68234	  5.17471	164.41594	702.23999	 41.70	
 16.995	-29.081	141.74042	135.63596	 -0.86431	 27.43134	 97.38998	  5.21408	164.45613	702.22998	 41.60	
 16.990	-23.241	141.52162	139.47363	 -3.70256	 33.58168	 89.01336	  5.17423	164.42604	702.27002	 41.60	
 17.000	-17.404	141.40291	142.35980	 -5.90791	 40.34208	 80.69283	  5.09527	164.41193	702.25000	 41.60	
 17.009	-11.617	141.13716	144.46252	 -7.75434	 47.32414	 72.52488	  5.13550	164.36659	702.21997	 41.60	
 16.990	 -5.821	141.07144	145.64711	 -8.70415	 54.78742	 64.63692	  5.12956	164.37502	702.15002	 41.60	
 17.000	  0.000	141.04691	146.16908	 -9.09593	 61.73922	 58.11521	  5.21821	164.47746	702.17999	 41.60	
 16.990	  5.821	140.85127	145.66118	 -9.04714	 67.08128	 52.07455	  5.20275	164.42157	702.23999	 41.60	
 17.009	 11.617	140.78769	144.44191	 -8.55196	 74.75623	 44.80612	  5.10952	164.43169	702.23999	 41.60	
 17.000	 17.404	140.80330	142.36575	 -7.20078	 82.42316	 37.87152	  5.17314	164.41054	702.14001	 41.70	
 16.990	 23.241	140.90527	139.44743	 -5.11070	 90.73451	 31.41127	  5.18859	164.41283	702.21002	 41.70	
 16.995	 29.081	140.85022	135.81755	 -2.57689	 98.62151	 25.32763	  5.21965	164.37749	702.21002	 41.70	
 16.988	 34.839	141.02126	131.26347	  0.61437	105.66795	 19.89663	  5.27838	164.42056	702.31000	 41.70	
 17.014	 40.657	140.99385	126.04807	  4.21777	112.49000	 14.80475	  5.27828	164.40144	702.21002	 41.70	
 17.007	 46.454	141.17474	120.23188	  8.62592	118.54331	 10.43407	  5.21439	164.43040	702.27002	 41.70	
 17.001	 52.301	141.36511	113.77761	 13.49285	124.29572	  6.49061	  5.22698	164.42790	702.10999	 41.80	
 17.006	 58.063	141.56453	106.92227	 18.56087	129.88524	  3.05748	  5.22544	164.40805	702.15997	 41.80	
 17.002	 63.866	141.73586	 99.57302	 24.00132	134.41014	  0.29262	  5.19098	164.38997	702.20001	 41.90	
 17.001	 69.690	141.96350	 91.79520	 30.20018	138.16780	 -2.06164	  5.21520	164.40077	702.13000	 41.90	
 16.988	 75.483	142.16962	 84.11385	 37.11070	140.90163	 -3.88828	  5.20023	164.39549	702.14001	 42.00	
 17.012	 81.253	142.30247	 76.39527	 44.24200	142.90358	 -5.14053	  5.22469	164.43814	702.22998	 42.00	
 16.996	 87.091	142.58049	 68.85299	 51.71960	143.78011	 -5.43161	  5.22767	164.42551	702.26001	 42.00	
 16.996	 92.909	142.86002	 62.51778	 58.16579	144.07339	 -5.16800	  5.22276	164.42041	702.15997	 42.10	
 17.008	 98.662	143.18408	 55.33323	 65.88116	143.48236	 -4.69983	  5.24727	164.40128	702.09003	 42.10	
 16.988	104.517	143.53148	 48.02433	 73.98373	142.15128	 -3.28520	  5.35540	164.34692	702.28003	 42.10	
 17.001	110.310	143.85164	 41.26534	 81.80227	139.91570	 -1.46333	  5.29125	164.36992	702.21997	 42.00	
 17.002	116.134	144.15990	 34.61621	 89.68213	136.74908	  1.09074	  5.17701	164.34071	702.23999	 42.00	
 17.006	121.937	144.50040	 28.58902	 97.95212	132.72847	  4.08062	  5.05334	164.38719	702.21997	 42.00	
 17.001	127.699	144.84476	 23.19701	105.20106	127.54985	  7.61611	  4.94115	164.32794	702.26001	 41.90	
 17.007	133.546	145.14253	 18.34680	111.90704	121.98991	 11.62080	  4.91697	164.39236	702.26001	 41.90	
 17.014	139.343	145.43066	 14.15133	118.42019	116.14082	 16.22349	  5.06304	164.39888	702.21997	 41.90	
 16.988	145.161	145.67690	 10.21511	124.08755	109.69228	 21.34998	  5.27453	164.41426	702.25000	 41.80	
 16.995	150.919	145.94431	  6.86838	128.98044	102.72274	 26.93955	  5.41351	164.40936	702.20001	 41.80	
 16.990	156.759	146.16666	  4.10762	133.20058	 95.33728	 33.16999	  5.31994	164.39964	702.27002	 41.80	
 17.000	162.596	146.33749	  1.81154	136.75853	 86.73675	 39.82304	  5.19024	164.41525	702.21002	 41.80	
 17.009	168.383	146.48380	  0.19490	139.23703	 78.78745	 46.93009	  5.10623	164.41080	702.21997	 41.80	
 16.990	174.179	146.51123	 -0.53687	140.73724	 71.15145	 54.04119	  5.11388	164.35715	702.28003	 41.80	
 18.709	174.675	141.86026	 -9.59347	145.31645	 66.89300	 50.77810	  5.02424	164.37344	702.26001	 41.70	
 18.703	169.441	141.77875	 -8.64175	143.81293	 74.76993	 43.39952	  4.96334	164.34393	702.22998	 41.70	
 18.691	164.085	141.67937	 -7.22070	141.45972	 82.85414	 36.31226	  4.95926	164.31891	702.10999	 41.70	
 18.706	158.818	141.44922	 -5.31305	138.51688	 90.99123	 29.53326	  5.03568	164.30197	702.25000	 41.70	
 18.695	153.537	141.32193	 -2.75355	134.58058	 99.06508	 23.40701	  5.18689	164.29938	702.29999	 41.60	
 18.704	148.255	141.08736	  0.10815	130.00021	106.19057	 17.62352	  5.13479	164.30696	702.21002	 41.60	
 18.698	142.952	140.84737	  3.59298	124.71233	113.07543	 12.15829	  4.92926	164.35497	702.21997	 41.70	
 18.699	137.625	140.52086	  7.31373	118.73965	119.40022	  7.11196	  4.82424	164.34166	702.13000	 41.70	
 18.705	132.343	140.15573	 11.50374	112.20040	125.42812	  2.73786	  4.77971	164.31203	702.23999	 41.70	
 18.713	127.067	139.88904	 16.29460	105.28062	131.13777	 -1.01007	  4.81264	164.32732	702.28998	 41.70	
 18.700	121.794	139.56183	 21.67085	 97.73460	136.05090	 -4.26102	  4.94349	164.37903	702.12000	 41.80	
 18.698	116.504	139.32794	 27.89790	 89.64193	140.02629	 -7.09198	  5.06752	164.38345	702.27002	 41.80	
 18.707	111.165	138.95621	 34.31301	 81.72319	143.30070	 -9.61619	  5.14701	164.39752	702.23999	 41.90	
 18.690	105.863	138.62651	 41.05718	 73.98985	145.63271	-11.53073	  5.16751	164.40952	702.28003	 41.80	
 18.696	100.583	138.26630	 48.00851	 65.85307	147.30875	-12.94213	  5.18297	164.35101	702.25000	 41.90	
 18.700	 95.309	137.95561	 55.28819	 57.80382	148.31294	-13.80045	  5.02648	164.34790	702.20001	 41.90	
 18.700	 90.000	137.53810	 61.95381	 50.63976	148.41760	-14.05608	  5.08063	164.31822	702.29999	 41.80	
 18.700	 84.691	137.23839	 68.64573	 44.25966	147.66451	-14.25608	  5.01174	164.29109	702.20001	 41.80	
 18.696	 79.417	137.11192	 76.24359	 36.72971	146.28616	-13.42668	  5.02132	164.31114	702.25000	 41.90	
 18.690	 74.137	137.03348	 83.93105	 29.84451	144.16164	-12.08311	  5.00628	164.30515	702.14001	 41.80	
 18.707	 68.835	136.76260	 91.71665	 23.33204	141.22505	-10.61499	  4.99378	164.32840	702.21997	 41.80	
 18.698	 63.496	136.59387	 99.38410	 17.48685	137.43228	 -8.31647	  5.00027	164.33249	702.34003	 41.80	
 18.700	 58.206	136.46298	106.83421	 12.05074	132.87318	 -5.58680	  5.00014	164.35179	702.31000	 41.70	
 18.713	 52.933	136.14734	113.70749	  6.87917	127.29986	 -2.48024	  5.02157	164.30302	702.28003	 41.70	
 18.705	 47.657	135.96161	120.25847	  1.98423	121.41194	  1.40317	  5.03590	164.29778	702.31000	 41.70	
 18.699	 42.375	135.82491	126.34055	 -2.45673	115.42059	  5.55586	  5.03374	164.28667	702.32001	 41.70	
 18.698	 37.048	135.84550	131.73752	 -6.23505	108.84641	 10.43617	  5.03957	164.28592	702.27002	 41.80	
 18.704	 31.745	135.78671	136.58472	 -9.56657	101.94810	 15.79606	  5.04710	164.30867	702.17999	 41.70	
 18.695	 26.463	135.67012	140.80400	-12.34840	 93.83266	 21.54041	  5.03354	164.32457	702.31000	 41.70	
 18.706	 21.182	135.58093	144.11102	-14.66228	 85.88220	 27.70405	  5.03039	164.33029	702.16998	 41.70	
 18.691	 15.915	135.53055	146.75572	-16.25239	 78.15897	 34.15766	  4.99455	164.33797	702.29999	 41.70	
 18.703	 10.559	135.48705	148.61826	-17.55761	 70.22562	 41.32432	  5.00347	164.32935	702.23999	 41.70	
 18.709	  5.325	135.54649	149.69897	-18.15246	 63.78155	 48.44330	  5.00628	164.33043	702.32001	 41.60	
 18.700	  0.000	135.60863	150.16069	-18.15364	 58.29791	 54.32345	  5.09561	164.33885	702.32001	 41.70	
 18.709	 -5.325	135.77269	149.77783	-17.68856	 50.77489	 61.36263	  5.05930	164.32910	702.23999	 41.70	
 18.703	-10.559	135.94441	148.61765	-16.67047	 43.59026	 68.35763	  5.00493	164.31253	702.21997	 41.70	
 18.691	-15.915	136.12048	146.71425	-15.12996	 36.45767	 76.64093	  4.99168	164.32321	702.22998	 41.80	
 18.706	-21.182	136.22702	143.95403	-13.23282	 29.69061	 84.70770	  4.95991	164.29185	702.25000	 41.80	
 18.695	-26.463	136.39632	140.57564	-10.61506	 23.29963	 93.00165	  5.01233	164.28854	702.34003	 41.90	
 18.704	-31.745	136.66063	136.33585	 -7.62722	 17.22638	100.93520	  5.05736	164.26984	702.19000	 41.90	
 18.698	-37.048	136.93530	131.33601	 -4.02017	 11.90501	108.14693	  5.02843	164.31410	702.21002	 41.90	
 18.699	-42.375	137.25648	125.87991	  0.04102	  7.11571	114.76796	  5.01558	164.32616	702.20001	 41.90	
 18.705	-47.657	137.46210	119.82489	  4.36699	  2.17241	120.81155	  4.99971	164.33606	702.25000	 41.90	
 18.713	-52.933	137.75163	113.30446	  9.28670	 -2.19881	126.69965	  4.98582	164.28865	702.26001	 42.00	
 18.700	-58.206	138.00638	106.30089	 14.57264	 -4.81435	132.13022	  5.00555	164.29282	702.26001	 42.00	
 18.698	-63.496	138.31635	 98.89764	 20.31027	 -7.00466	136.65372	  4.98302	164.31047	702.28998	 42.00	
 18.707	-68.835	138.68529	 91.08792	 26.82782	 -9.24276	140.25092	  4.96758	164.29668	702.26001	 42.00	
 18.690	-74.137	138.92709	 83.43593	 33.77162	-10.98984	143.05550	  5.01081	164.31195	702.28998	 42.00	
 18.696	-79.417	139.14821	 75.61421	 41.40138	-12.33021	145.01070	  5.04131	164.30157	702.34998	 42.00	
 18.700	-84.691	139.40413	 67.85015	 48.92288	-12.82392	146.29352	  5.03761	164.29547	702.25000	 42.00	
 18.700	-90.000	139.65599	 61.21372	 55.75950	-12.44823	146.75386	  5.01911	164.27426	702.25000	 42.00	
 18.700	-95.309	139.86650	 54.86584	 62.53794	-11.99406	146.55954	  4.97202	164.31239	702.25000	 42.00	
 18.696	-100.583	140.19443	 47.73976	 70.59679	-11.16464	145.34221	  4.92754	164.26022	702.31000	 42.00	
 18.690	-105.863	140.56731	 40.74991	 78.56658	 -9.45636	143.50418	  4.91927	164.26308	702.23999	 42.00	
 18.707	-111.165	140.77791	 34.26368	 86.38853	 -7.34468	140.95180	  4.97240	164.30011	702.20001	 42.00	
 18.698	-116.504	140.98923	 27.82224	 94.31088	 -4.65241	137.31656	  5.06494	164.26244	702.17999	 42.00	
 18.700	-121.794	141.28030	 21.93546	101.98505	 -1.63045	133.15849	  4.98465	164.28337	702.16998	 42.10	
 18.713	-127.067	141.47501	 16.28683	109.15360	  1.75966	128.10112	  4.97242	164.28708	702.31000	 42.10	
 18.705	-132.343	141.76306	 11.57120	115.66289	  5.94712	122.26285	  4.98035	164.28352	702.33002	 42.10	
 18.699	-137.625	141.88962	  7.06311	121.94772	 10.54941	116.29794	  4.93819	164.28746	702.33002	 42.20	
 18.698	-142.952	142.03052	  3.23254	127.54192	 15.70328	109.87386	  4.95666	164.29488	702.33002	 42.20	
 18.704	-148.255	142.08006	 -0.10699	132.51527	 21.12666	102.91807	  4.91332	164.28033	702.29999	 42.20	
 18.695	-153.537	142.11778	 -2.80900	136.80487	 27.06178	 95.51172	  4.89162	164.26485	702.33002	 42.20	
 18.706	-158.818	142.06763	 -5.29256	140.17461	 33.31818	 86.95149	  4.91110	164.24333	702.27002	 42.20	
 18.691	-164.085	142.12082	 -7.27283	142.68507	 40.15773	 79.10944	  4.97893	164.26787	702.32001	 42.20	
 18.703	-169.441	141.99918	 -8.89850	144.68510	 47.52609	 70.86100	  5.06094	164.29373	702.17999	 42.20	
 18.709	-174.675	141.95950	 -9.67952	145.74370	 54.70970	 63.17770	  5.16641	164.30339	702.25000	 42.30	
 18.700	180.000	141.85109	 -9.95180	145.83095	 60.95628	 56.73959	  5.13144	164.25041	702.31000	 42.30	
 20.400	180.000	136.81868	-18.62649	149.87474	 57.97623	 52.69719	  5.00808	164.24968	702.33002	 42.30	
 20.401	-175.153	136.90034	-18.48538	149.76778	 51.11499	 60.43232	  5.05137	164.27168	702.28003	 42.30	
 20.407	-170.264	136.97173	-17.66423	148.86469	 43.65629	 66.74458	  5.00627	164.27591	702.34998	 42.30	
 20.410	-165.423	136.97522	-16.45019	147.24548	 36.04520	 74.66690	  4.92690	164.26123	702.32001	 42.30	
 20.392	-160.496	137.01085	-14.66044	144.79240	 28.77398	 82.76983	  4.80084	164.26691	702.34998	 42.30	
 20.401	-155.705	136.95212	-12.48557	141.62604	 22.67401	 90.57276	  4.72557	164.25542	702.25000	 42.30	
 20.405	-150.835	136.94888	 -9.81421	137.86847	 16.58176	 98.97495	  4.78292	164.29076	702.41998	 42.30	
 20.397	-145.903	137.00113	 -6.71604	133.17305	 10.88385	106.23798	  4.80914	164.28801	702.38000	 42.30	
 20.392	-141.062	136.92503	 -3.19671	127.90616	  5.61454	112.96405	  4.86063	164.26079	702.12000	 42.40	
 20.396	-136.227	136.78564	  0.72054	122.15648	  0.86780	119.25050	  4.84990	164.29802	702.28998	 42.30	
 20.408	-131.372	136.58096	  4.65236	115.81284	 -3.40632	125.32131	  4.84648	164.28214	702.33002	 42.30	
 20.410	-126.511	136.38533	  9.57329	109.17765	 -7.02666	131.10175	  4.81001	164.28282	702.27002	 42.30	
 20.400	-121.604	136.15538	 14.88685	101.84956	-10.18996	136.17520	  4.87781	164.29027	702.31000	 42.30	
 20.403	-116.741	135.88799	 20.70320	 93.94472	-13.11384	140.39819	  4.92898	164.30266	702.35999	 42.30	
 20.413	-111.900	135.59235	 27.05026	 86.30592	-15.97280	143.90964	  4.87697	164.28589	702.23999	 42.30	
 20.398	-107.004	135.40009	 33.74564	 78.50230	-18.17208	146.66853	  4.83552	164.28085	702.32001	 42.20	
 20.394	-102.132	135.08159	 40.49261	 70.50187	-19.87293	148.74545	  4.89915	164.26042	702.28998	 42.20	
 20.403	-97.332	134.65070	 47.34081	 62.45500	-21.05664	150.10403	  4.88318	164.27693	702.28998	 42.20	
 20.392	-92.440	134.49939	 54.46567	 54.68584	-21.59857	150.74104	  4.86869	164.30063	702.33002	 42.20	
 20.392	-87.560	134.20572	 59.76949	 48.87407	-22.12569	150.56998	  4.96206	164.23747	702.27002	 42.20	
 20.403	-82.668	134.04358	 67.57076	 41.30994	-21.92345	149.83170	  4.97402	164.26431	702.40997	 42.30	
 20.394	-77.868	133.76799	 74.97533	 33.71744	-21.12138	148.32103	  4.86782	164.22191	702.28003	 42.30	
 20.398	-72.996	133.51735	 82.73434	 26.63870	-20.21131	146.01733	  4.84707	164.22635	702.34998	 42.40	
 20.413	-68.100	133.16629	 90.41647	 19.97404	-18.23198	143.29662	  4.87014	164.26042	702.33002	 42.40	
 20.403	-63.259	132.91989	 97.95981	 14.03462	-15.90094	139.49933	  4.89909	164.26854	702.25000	 42.40	
 20.400	-58.396	132.72412	105.41681	  8.35509	-13.92846	135.05852	  4.91030	164.24513	702.26001	 42.40	
 20.410	-53.489	132.37117	112.61335	  2.78574	-11.12527	129.69824	  4.96073	164.26222	702.26001	 42.40	
 20.408	-48.628	131.94681	119.21774	 -2.28752	 -7.52476	123.73988	  4.92285	164.20726	702.28003	 42.40	
 20.396	-43.773	131.70157	125.46834	 -6.75766	 -3.06361	117.81767	  4.92781	164.21919	702.38000	 42.40	
 20.392	-38.938	131.56970	131.12656	-10.66788	  2.09103	111.47874	  4.91882	164.29131	702.39001	 42.50	
 20.397	-34.097	131.20551	136.34795	-14.33328	  6.68501	104.40842	  4.93446	164.25766	702.31000	 42.50	
 20.405	-29.165	130.90466	141.01511	-17.57515	 11.94244	 96.72462	  4.87730	164.26514	702.28998	 42.50	
 20.401	-24.295	130.66586	144.86101	-20.17274	 18.32491	 88.37563	  4.91142	164.28546	702.29999	 42.60	
 20.392	-19.504	130.47984	148.00633	-22.35946	 24.81569	 80.46892	  4.85688	164.21721	702.40997	 42.60	
 20.410	-14.577	130.39397	150.47273	-24.09309	 31.94053	 72.22530	  4.90539	164.23303	702.29999	 42.60	
 20.407	 -9.736	130.26154	152.26691	-25.40975	 39.15136	 64.56570	  4.95434	164.25803	702.21002	 42.60	
 20.401	 -4.847	130.04366	153.18661	-26.55024	 46.42062	 57.62730	  4.94439	164.20439	702.27002	 42.60	
 20.400	  0.000	129.97556	153.54988	-26.83768	 53.94320	 49.89732	  4.98336	164.24951	702.22998	 42.70	
 20.401	  4.847	129.87343	153.14981	-26.67050	 59.65651	 44.34962	  4.95785	164.19673	702.20001	 42.70	
 20.407	  9.736	129.78816	152.23163	-26.09617	 66.49709	 37.23275	  4.93231	164.23509	702.23999	 42.70	
 20.410	 14.577	129.78098	150.57649	-25.09458	 73.39154	 30.12616	  4.89974	164.24902	702.25000	 42.70	
 20.392	 19.504	129.90442	148.11613	-23.41977	 81.30901	 23.41090	  4.85872	164.23657	702.21997	 42.70	
 20.401	 24.295	129.81320	145.10138	-21.58542	 88.86617	 16.81735	  4.81950	164.15929	702.28998	 42.70	
 20.405	 29.165	129.93742	141.30031	-19.19276	 96.76620	 10.95112	  4.86422	164.22647	702.33002	 42.60	
 20.397	 34.097	130.06349	136.83821	-16.15863	104.75781	  5.59756	  4.93034	164.24388	702.34003	 42.60	
 20.392	 38.938	130.23526	131.66296	-12.66180	111.75439	  0.87230	  4.94608	164.22455	702.42999	 42.60	
 20.396	 43.773	130.27596	126.13853	 -8.94792	118.05836	 -3.69909	  4.93132	164.26932	702.32001	 42.60	
 20.408	 48.628	130.43045	119.92202	 -4.76427	124.14437	 -7.86020	  4.91038	164.30200	702.29999	 42.60	
 20.410	 53.489	130.51103	113.16982	 -0.21476	129.92363	-11.65156	  4.81605	164.24002	702.33002	 42.60	
 20.400	 58.396	130.75691	106.11247	  5.01474	135.38618	-14.78144	  4.82887	164.22957	702.32001	 42.60	
 20.403	 63.259	130.94073	 98.77235	 10.58083	139.94688	-17.54988	  4.82062	164.24153	702.34998	 42.70	
 20.413	 68.100	131.05655	 91.30132	 16.36595	143.83189	-19.91703	  4.86095	164.24387	702.31000	 42.70	
 20.398	 72.996	131.33134	 83.35239	 22.72910	146.83379	-21.58798	  4.86065	164.26611	702.34003	 42.70	
 20.394	 77.868	131.54216	 75.57711	 29.25128	149.23547	-22.83628	  4.88087	164.22301	702.33002	 42.70	
 20.403	 82.668	131.64900	 67.93994	 36.21624	150.92194	-23.81391	  4.92100	164.23454	702.19000	 42.70	
 20.392	 87.560	131.89404	 60.36667	 43.79873	151.78242	-23.28429	  4.92717	164.20842	702.34003	 42.60	
 20.392	 92.440	132.20630	 54.72462	 49.59550	152.02457	-23.18904	  4.90762	164.21698	702.32001	 42.60	
 20.403	 97.332	132.48506	 47.82342	 57.17796	151.62753	-22.63879	  4.99273	164.22107	702.29999	 42.60	
 20.394	102.132	132.80125	 40.55333	 65.27094	150.46423	-21.91434	  5.01122	164.18794	702.41998	 42.60	
 20.398	107.004	133.13055	 33.75042	 73.37785	148.64693	-20.56530	  5.01534	164.19078	702.35999	 42.60	
 20.413	111.900	133.48071	 26.99186	 81.39925	145.94046	-18.55036	  4.96886	164.21870	702.38000	 42.60	
 20.403	116.741	133.86023	 20.67315	 89.11597	142.75673	-16.04690	  4.94312	164.20776	702.26001	 42.60	
 20.400	121.604	134.19283	 14.88276	 97.20801	138.73653	-13.18729	  4.87912	164.21239	702.35999	 42.70	
 20.410	126.511	134.48509	  9.70575	104.81728	133.92526	-10.07796	  4.72227	164.22061	702.42999	 42.70	
 20.408	131.372	134.79736	  4.86040	111.94848	128.33902	 -6.65468	  4.67406	164.22296	702.33002	 42.70	
 20.396	136.227	135.18474	  0.73649	118.48180	122.25623	 -2.04760	  4.65028	164.18668	702.23999	 42.80	
 20.392	141.062	135.51860	 -2.94419	124.56040	116.18939	  2.70148	  4.71277	164.20537	702.33002	 42.80	
 20.397	145.903	135.79631	 -6.51639	130.16907	109.67542	  7.77908	  4.92855	164.23125	702.34003	 42.90	
 20.405	150.835	135.94995	 -9.77229	135.24615	102.38081	 13.39378	  5.07287	164.19188	702.40002	 42.90	
 20.401	155.705	136.17099	-12.46681	139.56213	 94.40086	 19.52682	  5.04855	164.21115	702.37000	 42.90	
 20.392	160.496	136.36888	-14.54623	143.01616	 86.44276	 25.80465	  4.87626	164.21046	702.29999	 42.80	
 20.410	165.423	136.52821	-16.22900	145.79712	 78.45839	 32.47643	  4.83776	164.21899	702.29999	 42.80	
 20.407	170.264	136.59245	-17.41518	147.92918	 70.32849	 39.66416	  4.83545	164.17078	702.31000	 42.80	
 20.401	175.153	136.65657	-18.34045	149.28371	 63.11073	 46.71943	  4.94716	164.21344	702.33002	 42.80	
  0.141	 45.000	164.36043	 83.75295	 74.63699	 81.50620	 77.31554	  6.88772	164.20502	702.45001	 42.80	
  4.001	128.691	164.02541	 71.03065	 85.67643	 94.54367	 63.14414	  6.21652	164.22580	702.35999	 42.80	
  4.002	 76.995	163.65030	 86.43465	 69.49596	 97.79085	 59.30675	  6.31803	164.21626	702.25000	 42.80	
  4.002	 25.892	163.44217	 99.21868	 57.59825	 87.70676	 68.70969	  6.17496	164.22914	702.25000	 42.70	
  4.002	-25.892	163.62105	 99.36282	 58.08169	 72.05850	 84.50549	  6.06475	164.23901	702.21997	 42.80	
  4.002	-76.995	163.97707	 86.12315	 70.58785	 62.88099	 94.66251	  6.00719	164.23045	702.26001	 42.70	
  4.001	-128.691	164.16672	 70.89090	 86.53145	 66.63029	 91.18329	  5.94941	164.18541	702.22998	 42.70	
  4.000	180.000	164.18629	 64.16232	 93.61146	 80.51038	 77.05711	  5.89558	164.21434	702.31000	 42.70	
  8.000	180.000	161.96637	 44.93064	110.26356	 78.08880	 74.44174	  4.67586	164.19635	702.27002	 42.70	
  7.991	-152.370	161.99995	 48.80209	105.94524	 61.22084	 91.45735	  4.89519	164.17619	702.29999	 42.70	
  7.997	-124.550	161.79884	 59.38660	 93.56249	 49.47395	105.13031	  4.86071	164.20193	702.22998	 42.70	
  8.006	-96.837	161.38611	 74.88584	 76.46819	 43.51195	111.21072	  4.95641	164.19113	702.20001	 42.70	
  7.988	-69.228	160.92569	 92.15595	 59.40988	 44.92538	109.00301	  5.06594	164.19194	702.28003	 42.80	
  7.997	-41.563	160.33009	107.29218	 45.68158	 52.68003	 98.14111	  5.06140	164.18402	702.33002	 42.80	
  8.008	-13.821	159.86954	116.25359	 37.94382	 67.90571	 81.86781	  5.08738	164.17322	702.33002	 42.80	
  8.008	 13.821	159.63887	116.07789	 37.55734	 85.23652	 63.72850	  4.99133	164.16409	702.34003	 42.80	
  7.997	 41.563	159.77527	107.48911	 44.54621	100.75408	 50.60843	  4.94958	164.21399	702.39001	 42.80	
  7.988	 69.228	160.08336	 92.33379	 57.54792	111.47326	 42.03822	  4.90607	164.20888	702.28003	 42.70	
  8.006	 96.837	160.54034	 75.16059	 74.45977	113.91809	 39.98132	  4.86754	164.19719	702.34998	 42.80	
  7.997	124.550	161.16447	 59.56129	 91.96789	108.39312	 45.91306	  5.00459	164.24242	702.35999	 42.80	
  7.991	152.370	161.66353	 48.70999	105.05187	 94.86558	 56.90010	  4.77157	164.17062	702.35999	 42.80	
 12.009	161.059	156.62224	 27.56373	121.48235	 91.11737	 52.65915	  5.03752	164.20802	702.34003	 42.80	
 12.013	142.081	156.08965	 35.09976	111.11842	107.45684	 38.27061	  5.17078	164.23425	702.40997	 42.80	
 12.006	123.113	155.50185	 47.05296	 96.03694	119.90982	 27.50518	  4.91845	164.26190	702.40002	 42.70	
 12.007	104.200	154.77480	 62.02358	 77.99232	127.67512	 21.68172	  4.95767	164.22221	702.34998	 42.70	
 11.989	 85.301	154.12849	 78.73949	 60.54004	128.57368	 20.31992	  4.84807	164.19928	702.40997	 42.70	
 12.013	 66.294	153.63797	 96.70564	 43.96876	123.20728	 23.68013	  5.02795	164.23273	702.39001	 42.70	
 12.012	 47.388	153.25728	112.54365	 30.78376	111.93967	 31.97816	  5.08712	164.20845	702.41998	 42.80	
 11.990	 28.440	153.08925	124.21924	 21.10595	 96.88482	 44.14249	  5.17217	164.17528	702.39001	 42.70	
 11.991	  9.464	153.03693	130.48029	 17.00511	 79.60020	 58.42486	  5.28550	164.18379	702.47998	 42.70	
 11.991	 -9.464	153.28642	130.54355	 17.36584	 61.53013	 75.72611	  5.37838	164.19028	702.40002	 42.70	
 11.990	-28.440	153.61594	124.08734	 22.44665	 46.51770	 94.63628	  5.44592	164.16237	702.40002	 42.70	
 12.012	-47.388	154.19681	112.32150	 32.48903	 34.32051	109.96001	  5.46481	164.19238	702.40997	 42.70	
 12.013	-66.294	154.80089	 96.49238	 46.32697	 25.74545	121.34962	  5.45157	164.19928	702.51001	 42.70	
 11.989	-85.301	155.43797	 78.22624	 63.37119	 23.17982	126.28870	  5.24568	164.13310	702.46002	 42.70	
 12.007	-104.200	156.03517	 61.58296	 80.91144	 24.66204	125.02299	  5.25691	164.19028	702.45001	 42.70	
 12.006	-123.113	156.50560	 46.56445	 98.69990	 31.05341	116.93688	  5.18543	164.17406	702.41998	 42.70	
 12.013	-142.081	156.90414	 35.01108	113.01949	 42.13836	103.97315	  5.12512	164.18468	702.42999	 42.70	
 12.009	-161.059	156.91473	 27.59089	122.44064	 55.28691	 87.34415	  5.09499	164.17206	702.38000	 42.70	
 16.000	180.000	148.89543	  4.34190	138.36032	 66.06364	 61.18164	  5.26296	164.16039	702.40997	 42.80	
 15.990	-165.604	149.05704	  6.02314	136.29333	 50.25103	 79.49768	  5.30764	164.14839	702.31000	 42.80	
 16.002	-151.165	149.00002	 10.86251	128.96350	 34.45258	 98.52430	  5.17579	164.14868	702.34998	 42.90	
 16.002	-136.836	148.85339	 19.81933	117.05631	 21.86345	114.16040	  5.23313	164.14246	702.45001	 42.90	
 15.995	-122.439	148.40733	 32.23678	101.74499	 12.20524	127.03980	  5.33822	164.19827	702.46997	 42.90	
 15.993	-107.966	147.84586	 46.89983	 83.52495	  5.66219	135.81465	  5.31144	164.15800	702.47998	 43.00	
 16.005	-93.629	147.11948	 63.30110	 65.08797	  2.53965	139.34036	  5.18623	164.15750	702.42999	 43.00	
 15.992	-79.234	146.46460	 79.88715	 48.23832	  2.27996	138.04297	  5.29778	164.17024	702.41998	 43.00	
 16.009	-64.774	145.90800	 98.11156	 31.78081	  6.38038	131.49995	  5.28920	164.14751	702.39001	 43.00	
 15.997	-50.364	145.23824	114.61797	 17.84132	 13.69170	119.71009	  5.29626	164.17017	702.53998	 43.00	
 15.997	-36.045	144.62767	128.03967	  7.70968	 24.86156	105.30788	  5.28419	164.15834	702.52002	 42.90	
 16.000	-21.597	144.07582	137.92592	  0.49617	 38.82991	 87.14531	  5.20656	164.17311	702.48999	 42.90	
 16.003	 -7.169	143.76080	142.74547	 -3.37526	 55.66413	 67.97220	  5.33394	164.16316	702.46002	 42.90	
 16.003	  7.169	143.39832	142.66672	 -3.79993	 70.60002	 52.70974	  5.32530	164.14702	702.45001	 42.90	
 16.000	 21.597	143.30536	137.99538	 -0.84843	 89.23209	 36.36263	  5.31601	164.11981	702.40997	 42.90	
 15.997	 36.045	143.57689	128.28664	  6.07754	106.39717	 22.84666	  5.35671	164.11316	702.42999	 42.90	
 15.997	 50.364	143.83661	114.85013	 15.99252	120.83635	 12.29835	  5.33427	164.16608	702.47998	 43.00	
 16.009	 64.774	144.36845	 98.44357	 28.52307	132.73640	  4.91998	  5.36842	164.18155	702.42999	 43.00	
 15.992	 79.234	144.85866	 80.48656	 44.44594	139.40843	  0.47752	  5.33305	164.16542	702.33002	 43.00	
 16.005	 93.629	145.46254	 63.78737	 61.07134	141.27823	  0.09374	  5.28423	164.16861	702.40997	 42.90	
 15.993	107.966	146.26584	 47.28453	 79.38798	138.21613	  2.87460	  5.38101	164.16739	702.41998	 42.90	
 15.995	122.439	146.86647	 32.18065	 98.03337	130.13770	  9.04894	  5.09103	164.10132	702.46997	 43.00	
 16.002	136.836	147.64702	 20.59934	114.09765	117.24363	 18.39592	  5.14184	164.15935	702.38000	 43.00	
 16.002	151.165	148.17461	 11.47985	126.70396	101.98732	 30.66383	  5.52455	164.10887	702.42999	 43.00	
 15.990	165.604	148.68425	  6.06561	135.18491	 83.36603	 46.28688	  5.25170	164.14143	702.42999	 43.00	
 20.003	168.362	137.73004	-15.01444	146.27217	 74.16346	 38.05580	  4.86352	164.13055	702.34998	 43.00	
 20.008	156.764	137.31377	-10.94138	139.56702	 92.93102	 22.28039	  5.04093	164.11655	702.33002	 42.90	
 20.000	145.147	136.87367	 -4.06147	128.73189	110.68668	  8.72714	  4.88715	164.13414	702.47998	 42.90	
 19.995	133.545	136.26755	  4.84466	114.58802	125.30890	 -2.43059	  4.70894	164.14108	702.47998	 42.90	
 20.009	121.926	135.33585	 16.22299	 97.68648	137.79311	-10.84163	  4.87337	164.07623	702.47998	 43.00	
 20.005	110.327	134.56593	 30.60917	 79.17564	146.05801	-16.85736	  5.07666	164.10258	702.52002	 43.00	
 19.989	 98.733	133.80800	 46.79649	 60.29943	150.37065	-20.07006	  5.05983	164.07274	702.34998	 43.00	
 19.999	 87.075	133.04323	 62.02011	 44.18975	150.80675	-21.12634	  4.98515	164.08708	702.46997	 43.10	
 19.992	 75.457	132.71783	 80.19160	 27.18085	147.16519	-19.98547	  4.90925	164.12373	702.40997	 43.10	
 20.009	 63.844	132.10211	 97.98243	 12.80802	139.68845	-15.75927	  4.91095	164.05450	702.39001	 43.10	
 19.989	 52.269	131.72110	114.74048	  0.44259	127.92488	 -8.68777	  4.96936	164.06979	702.45001	 43.10	
 19.999	 40.602	131.50681	129.35860	 -9.73972	113.74165	  1.04914	  5.00569	164.06412	702.46997	 43.00	
 20.004	 29.051	131.16412	140.70923	-17.30140	 96.78435	 12.84987	  4.97865	164.00304	702.48999	 43.00	
 20.005	 17.433	131.05516	148.30190	-22.19820	 78.44373	 27.70296	  4.89667	163.98587	702.50000	 43.10	
 20.006	  5.780	131.03436	152.12306	-24.63033	 61.65938	 44.16374	  4.94310	164.03706	702.40002	 43.10	
 20.006	 -5.780	131.32222	152.10283	-24.26407	 46.12819	 59.81355	  4.97716	164.01456	702.41998	 43.10	
 20.005	-17.433	131.64227	148.28094	-21.19672	 29.49961	 77.37947	  4.96932	164.07410	702.46997	 43.10	
 20.004	-29.051	132.10973	140.46918	-15.61702	 14.20674	 96.42664	  4.98418	164.04042	702.59998	 43.20	
 19.999	-40.602	132.80910	128.82661	 -7.48508	  2.12668	113.14368	  5.00051	164.05882	702.52002	 43.30	
 19.989	-52.269	133.51375	114.21828	  3.32695	 -8.22202	127.41550	  4.99444	164.01303	702.50000	 43.30	
 20.009	-63.844	134.07254	 97.24225	 16.09228	-13.99806	139.08528	  4.95808	164.03848	702.39001	 43.40	
 19.992	-75.457	134.84721	 79.45900	 31.43598	-18.52616	146.17163	  4.91655	164.01846	702.53998	 43.40	
 19.999	-87.075	135.29512	 61.36569	 49.12078	-20.13700	149.49312	  4.97486	164.06590	702.46002	 43.40	
 19.989	-98.733	135.97842	 46.39938	 65.49487	-18.59772	148.65608	  4.89298	164.05298	702.53998	 43.40	
 20.005	-110.327	136.63033	 30.58899	 84.00452	-14.66076	143.88023	  4.89181	164.02052	702.57001	 43.30	
 20.009	-121.926	137.11917	 16.23411	102.08800	 -8.47198	135.07536	  4.89039	164.01326	702.47998	 43.30	
 19.995	-133.545	137.70752	  4.67930	118.17655	  0.29843	121.95180	  4.85603	164.02252	702.39001	 43.30	
 20.000	-145.147	138.06567	 -4.15561	131.54613	 12.00142	107.10480	  4.85283	164.01848	702.46002	 43.30	
 20.008	-156.764	137.90584	-11.01799	141.36256	 25.67742	 88.94611	  4.78362	163.93816	702.40997	 43.30	
 20.003	-168.362	137.97711	-15.05632	147.14497	 42.01086	 70.29564	  5.02126	163.98256	702.48999	 43.30	
 20.000	180.000	137.76205	-16.65583	148.72160	 58.50343	 53.72261	  5.03376	163.94048	702.51001	 43.30	
