FileType=PCF
NHL=14
Date=08/25/17	13:26:38
Facility=APL
Serial=16328-6
Customer=NASA
NP=6
Mach=0.250000
Calibration=1:1
CalPts=490
TstPts=95
PortNumbering=AP Standard
Units=Torr C m/s kg/m^3 deg mm 
Theta[deg]	Phi[deg]	P1[Torr]	P2[Torr]	P3[Torr]	P4[Torr]	P5[Torr]	P6[Torr]	Pt[Torr]	Ps[Abs,Torr]	Ts[C]	
  0.000	  0.000	 30.54478	 16.32533	 16.04580	 15.86727	 16.56344	  0.35592	 30.50339	707.21698	 23.50	
  1.691	128.401	 30.49824	 15.21963	 17.03883	 17.01344	 15.31965	  0.33953	 30.45317	707.13800	 23.50	
  1.692	 77.194	 30.49295	 16.63416	 15.64067	 17.34338	 15.00111	  0.33793	 30.45312	707.20300	 23.50	
  1.699	 26.182	 30.50256	 17.70064	 14.57900	 16.51225	 15.79204	  0.33231	 30.45489	707.04199	 23.50	
  1.699	-26.182	 30.52731	 17.67564	 14.59199	 15.11537	 17.21480	  0.32915	 30.48352	707.08398	 23.50	
  1.692	-77.194	 30.49879	 16.57804	 15.62051	 14.12975	 18.06280	  0.32326	 30.46369	707.18903	 23.50	
  1.691	-128.401	 30.50241	 15.17406	 17.03753	 14.41878	 17.79404	  0.32910	 30.47009	707.01300	 23.50	
  1.700	180.000	 30.55032	 14.62138	 17.70929	 15.79623	 16.56524	  0.33890	 30.50914	707.03101	 23.40	
  3.400	180.000	 30.44204	 12.89811	 19.11715	 15.60523	 16.39860	  0.29464	 30.45220	707.12903	 23.50	
  3.388	-152.325	 30.47624	 13.21980	 18.78349	 14.02606	 17.93206	  0.27565	 30.50957	707.05103	 23.40	
  3.397	-124.529	 30.45226	 14.20870	 17.74253	 12.85969	 19.07453	  0.27149	 30.49131	707.01398	 23.40	
  3.399	-96.763	 30.42935	 15.63787	 16.18891	 12.37823	 19.60406	  0.24977	 30.47565	707.08600	 23.40	
  3.394	-69.283	 30.41148	 17.17315	 14.70399	 12.55961	 19.37817	  0.22029	 30.44881	707.05603	 23.40	
  3.400	-41.398	 30.43146	 18.44034	 13.43818	 13.44632	 18.48429	  0.25851	 30.45981	706.97998	 23.40	
  3.401	-14.021	 30.45142	 19.22652	 12.71998	 14.89006	 17.11872	  0.26717	 30.45876	706.94598	 23.40	
  3.401	 14.021	 30.47009	 19.26066	 12.73747	 16.46739	 15.58585	  0.28359	 30.47056	707.14398	 23.40	
  3.400	 41.398	 30.49502	 18.52132	 13.49811	 17.79153	 14.08515	  0.28574	 30.48022	707.04498	 23.40	
  3.394	 69.283	 30.49771	 17.30008	 14.77870	 18.72622	 13.25316	  0.28131	 30.48109	707.12598	 23.40	
  3.399	 96.763	 30.47586	 15.73284	 16.23957	 18.90106	 13.09028	  0.27577	 30.45155	707.21899	 23.40	
  3.397	124.529	 30.48155	 14.29631	 17.77259	 18.29011	 13.62043	  0.27054	 30.46401	707.15698	 23.40	
  3.388	152.325	 30.45437	 13.28744	 18.75108	 17.06195	 14.96701	  0.29732	 30.45117	707.20502	 23.40	
  5.099	161.165	 30.29359	 11.33098	 20.21642	 16.92323	 14.50194	  0.18627	 30.44520	707.19702	 23.40	
  5.109	142.013	 30.32593	 12.07410	 19.50881	 18.33078	 13.13148	  0.19217	 30.45216	707.19299	 23.40	
  5.095	123.033	 30.32383	 13.26215	 18.36579	 19.44680	 12.12118	  0.19119	 30.43362	707.17999	 23.40	
  5.105	104.191	 30.38652	 14.74106	 16.82761	 20.23891	 11.50837	  0.17286	 30.49438	707.24701	 23.40	
  5.093	 85.207	 30.34036	 16.30642	 15.24251	 20.33914	 11.36686	  0.18341	 30.43533	707.09802	 23.40	
  5.104	 66.290	 30.40680	 17.91402	 13.76153	 19.98962	 11.75887	  0.19178	 30.51540	707.09198	 23.40	
  5.094	 47.331	 30.29844	 19.16877	 12.31062	 18.98926	 12.53337	  0.19508	 30.41144	707.09497	 23.40	
  5.089	 28.397	 30.29967	 20.20311	 11.38307	 17.69174	 13.71918	  0.19550	 30.43171	707.11499	 23.40	
  5.096	  9.576	 30.29594	 20.72971	 10.90752	 16.26387	 15.26186	  0.18262	 30.45191	707.05603	 23.40	
  5.096	 -9.576	 30.28526	 20.68077	 10.90404	 14.56290	 16.88461	  0.11640	 30.44238	707.14899	 23.40	
  5.089	-28.397	 30.29431	 20.11034	 11.34086	 13.09574	 18.39877	  0.08173	 30.47119	707.10303	 23.40	
  5.094	-47.331	 30.26869	 19.07310	 12.24511	 11.82714	 19.74654	  0.10600	 30.45743	707.06403	 23.40	
  5.104	-66.290	 30.22301	 17.71246	 13.65217	 11.06695	 20.60061	  0.07713	 30.44203	707.09302	 23.40	
  5.093	-85.207	 30.23107	 16.21674	 15.17442	 10.73977	 20.97499	  0.11123	 30.46883	707.14899	 23.40	
  5.105	-104.191	 30.19571	 14.58755	 16.69786	 10.79417	 20.82706	  0.03084	 30.43161	707.09497	 23.40	
  5.095	-123.033	 30.20882	 13.13797	 18.29025	 11.33101	 20.21745	  0.15442	 30.43633	707.19397	 23.40	
  5.109	-142.013	 30.23841	 11.94356	 19.49224	 12.28269	 19.14575	  0.17590	 30.45509	707.04700	 23.30	
  5.099	-161.165	 30.24434	 11.27171	 20.23099	 13.68407	 17.72057	  0.19244	 30.44721	707.06799	 23.30	
  5.100	180.000	 30.31927	 11.10115	 20.50187	 15.25722	 16.20983	  0.19611	 30.48970	707.27502	 23.30	
  6.800	180.000	 29.97183	  9.44674	 21.74275	 14.91011	 15.86420	 -0.05462	 30.41772	707.11298	 23.30	
  6.796	-166.229	 29.96818	  9.56404	 21.55738	 13.39022	 17.35332	 -0.05992	 30.44115	707.06799	 23.30	
  6.808	-152.311	 29.99264	  9.99861	 21.00306	 11.92632	 18.87778	 -0.06460	 30.48940	707.07202	 23.30	
  6.795	-138.383	 29.91470	 10.72945	 20.10095	 10.83597	 20.12637	 -0.10294	 30.42772	707.07800	 23.30	
  6.792	-124.591	 29.90283	 11.73445	 18.99313	  9.76117	 21.12743	 -0.09185	 30.43180	707.00299	 23.30	
  6.787	-110.754	 29.88156	 13.08810	 17.58831	  9.16441	 21.81499	 -0.15548	 30.42544	707.03900	 23.30	
  6.800	-96.985	 29.87526	 14.57878	 16.04735	  8.86874	 22.15859	 -0.18490	 30.41789	707.07898	 23.30	
  6.800	-83.015	 29.92156	 16.16898	 14.47637	  8.90525	 22.20737	 -0.08051	 30.46119	707.07898	 23.30	
  6.787	-69.246	 29.91031	 17.71218	 12.92530	  9.23665	 21.85009	 -0.22138	 30.42686	707.01599	 23.30	
  6.792	-55.409	 29.95660	 19.08625	 11.57099	  9.88799	 21.15121	 -0.18283	 30.45288	706.99902	 23.30	
  6.795	-41.617	 29.95064	 20.31053	 10.53246	 10.90577	 20.11551	 -0.14870	 30.42190	707.05603	 23.30	
  6.808	-27.689	 29.96833	 21.28163	  9.74861	 12.04909	 18.78593	 -0.13516	 30.41356	706.92902	 23.30	
  6.796	-13.771	 30.02020	 21.88461	  9.29309	 13.49815	 17.31197	 -0.10029	 30.45074	706.92999	 23.30	
  6.800	  0.000	 30.00575	 22.07692	  9.14719	 15.05752	 15.80353	 -0.09604	 30.42028	707.10999	 23.30	
  6.796	 13.771	 30.00385	 21.89112	  9.33062	 16.63326	 14.16127	  0.03630	 30.40199	707.09900	 23.30	
  6.808	 27.689	 30.03210	 21.34531	  9.84743	 18.07528	 12.76396	 -0.06584	 30.42196	707.01398	 23.20	
  6.795	 41.617	 30.05647	 20.46686	 10.61155	 19.42154	 11.59082	 -0.06418	 30.41465	707.12299	 23.20	
  6.792	 55.409	 30.07174	 19.25444	 11.59451	 20.53173	 10.80109	 -0.05893	 30.41878	707.06799	 23.20	
  6.787	 69.246	 30.06019	 17.88865	 13.05970	 21.27966	 10.14974	 -0.06113	 30.40438	707.09003	 23.20	
  6.800	 83.015	 30.08162	 16.37362	 14.48239	 21.66496	  9.82966	 -0.07843	 30.41062	707.03699	 23.20	
  6.800	 96.985	 30.08457	 14.82565	 16.08483	 21.69151	  9.80681	  0.01704	 30.43248	707.03400	 23.20	
  6.787	110.754	 30.07946	 13.34369	 17.69131	 21.19552	 10.07801	 -0.09183	 30.40927	707.14398	 23.20	
  6.792	124.591	 30.12284	 11.97601	 19.08652	 20.48312	 10.71706	 -0.06871	 30.46617	707.19702	 23.20	
  6.795	138.383	 30.08523	 10.92691	 20.20320	 19.37733	 11.63389	 -0.05646	 30.45154	707.10901	 23.20	
  6.808	152.311	 30.02670	 10.13740	 20.97937	 17.99308	 12.81326	 -0.04746	 30.41175	707.14398	 23.20	
  6.796	166.229	 30.01705	  9.65486	 21.56242	 16.59654	 14.15964	 -0.06357	 30.42866	707.26398	 23.20	
  8.491	168.704	 29.61375	  7.84326	 22.84896	 16.12280	 13.73424	 -0.25271	 30.42486	707.39899	 23.20	
  8.502	157.493	 29.64518	  8.24561	 22.42327	 17.67766	 12.28921	 -0.26398	 30.43467	707.28101	 23.20	
  8.494	146.194	 29.68130	  8.91982	 21.66197	 19.15837	 11.04775	 -0.26525	 30.43161	707.25201	 23.20	
  8.495	135.039	 29.68826	  9.76760	 20.61186	 20.43938	  9.99646	 -0.28875	 30.41887	707.24799	 23.20	
  8.487	123.723	 29.72017	 10.84108	 19.47815	 21.47935	  9.08399	 -0.31068	 30.43516	707.18799	 23.20	
  8.492	112.575	 29.75238	 12.08248	 18.12172	 22.24170	  8.57772	 -0.34529	 30.44777	707.14801	 23.20	
  8.510	101.220	 29.74296	 13.65096	 16.53218	 22.67081	  8.09361	 -0.35564	 30.42836	707.20502	 23.20	
  8.500	 90.000	 29.78321	 15.26319	 14.98963	 22.85451	  7.98667	 -0.31744	 30.45971	707.21899	 23.20	
  8.510	 78.780	 29.78810	 16.83060	 13.36243	 22.70609	  8.09635	 -0.29518	 30.46915	707.17999	 23.20	
  8.492	 67.425	 29.73919	 18.34800	 11.75449	 22.28347	  8.51016	 -0.28418	 30.42116	707.23102	 23.20	
  8.487	 56.277	 29.71375	 19.71587	 10.52527	 21.54294	  9.07077	 -0.25568	 30.41859	707.21002	 23.20	
  8.495	 44.961	 29.70438	 21.00142	  9.40265	 20.51065	 10.07075	 -0.26803	 30.43606	707.18201	 23.20	
  8.494	 33.806	 29.69643	 21.99676	  8.53424	 19.23569	 11.02595	 -0.27637	 30.44975	707.16901	 23.20	
  8.502	 22.507	 29.68678	 22.73163	  7.92091	 17.76464	 12.29822	 -0.32706	 30.45473	707.25201	 23.20	
  8.491	 11.296	 29.61921	 23.14360	  7.50409	 16.27781	 13.71293	 -0.31701	 30.40556	707.13702	 23.20	
  8.500	  0.000	 29.66308	 23.28409	  7.37704	 14.62901	 15.28055	 -0.32775	 30.45606	707.04498	 23.20	
  8.491	-11.296	 29.61795	 23.10077	  7.47249	 12.99933	 16.93139	 -0.34054	 30.43819	707.09302	 23.10	
  8.502	-22.507	 29.60941	 22.67120	  7.86438	 11.49548	 18.48224	 -0.35048	 30.44141	707.14600	 23.10	
  8.494	-33.806	 29.57757	 21.84200	  8.47940	 10.19622	 19.94128	 -0.34692	 30.42298	707.17902	 23.10	
  8.495	-44.961	 29.55376	 20.82394	  9.30520	  9.12919	 21.16390	 -0.39943	 30.43336	707.13800	 23.10	
  8.487	-56.277	 29.54924	 19.49334	 10.44960	  8.32574	 22.10561	 -0.45185	 30.44420	707.22498	 23.10	
  8.492	-67.425	 29.49198	 18.07067	 11.68007	  7.69190	 22.78018	 -0.47687	 30.41705	707.28101	 23.10	
  8.510	-78.780	 29.50509	 16.51718	 13.21390	  7.25089	 23.30128	 -0.49676	 30.45675	706.98901	 23.10	
  8.500	-90.000	 29.46375	 14.93590	 14.83707	  7.07648	 23.43307	 -0.46909	 30.42564	707.06799	 23.10	
  8.510	-101.220	 29.47919	 13.32347	 16.44116	  7.14075	 23.30466	 -0.43787	 30.45208	707.22803	 23.10	
  8.492	-112.575	 29.48715	 11.81913	 17.89889	  7.60898	 22.83186	 -0.36832	 30.45183	707.05103	 23.10	
  8.487	-123.723	 29.48205	 10.58312	 19.31513	  8.18957	 22.12382	 -0.31641	 30.43580	707.16803	 23.10	
  8.495	-135.039	 29.45683	  9.55398	 20.52417	  8.99265	 21.15333	 -0.30691	 30.40594	707.20001	 23.10	
  8.494	-146.194	 29.47860	  8.72574	 21.57787	 10.08835	 19.92744	 -0.29274	 30.39908	707.07898	 23.10	
  8.502	-157.493	 29.53116	  8.14011	 22.37749	 11.38676	 18.49314	 -0.27962	 30.42473	707.11700	 23.10	
  8.491	-168.704	 29.53679	  7.76221	 22.82263	 12.92068	 16.92233	 -0.26118	 30.40726	707.11499	 23.10	
  8.500	180.000	 29.58728	  7.67805	 23.00078	 14.51935	 15.42079	 -0.26711	 30.42793	707.15503	 23.10	
 10.200	180.000	 29.05789	  5.76261	 24.21102	 14.03658	 14.79173	 -0.51186	 30.40775	707.15399	 23.10	
 10.191	-170.497	 29.06149	  5.90657	 24.07937	 12.38921	 16.46968	 -0.50633	 30.44119	707.10699	 23.10	
 10.210	-161.034	 28.99194	  6.15746	 23.65611	 10.90018	 18.03736	 -0.54303	 30.40291	707.19299	 23.10	
 10.194	-151.526	 28.98178	  6.65470	 22.97860	  9.56350	 19.57503	 -0.52450	 30.43128	707.24701	 23.10	
 10.190	-142.105	 28.92104	  7.38571	 22.06122	  8.35651	 20.90894	 -0.51003	 30.40374	707.05499	 23.10	
 10.215	-132.646	 28.92191	  8.32234	 20.93902	  7.31021	 22.04553	 -0.52545	 30.42250	707.11298	 23.10	
 10.203	-123.092	 28.92744	  9.43702	 19.63578	  6.43278	 23.03671	 -0.55581	 30.44771	707.13202	 23.10	
 10.192	-113.678	 28.88789	 10.60405	 18.17063	  5.81346	 23.78257	 -0.62280	 30.40757	707.09003	 23.10	
 10.208	-104.249	 28.90453	 11.97467	 16.73547	  5.38696	 24.35505	 -0.68535	 30.42770	707.19702	 23.10	
 10.210	-94.801	 28.92635	 13.56298	 15.16631	  5.12714	 24.65966	 -0.73211	 30.45320	707.18799	 23.10	
 10.210	-85.199	 28.92290	 15.22289	 13.45916	  5.14517	 24.65152	 -0.76286	 30.43842	707.16302	 23.10	
 10.208	-75.751	 28.91331	 16.78513	 11.85846	  5.45127	 24.34519	 -0.76256	 30.40966	707.12097	 23.10	
 10.192	-66.322	 28.98039	 18.36111	 10.50953	  5.94190	 23.81999	 -0.74152	 30.43854	707.27301	 23.10	
 10.203	-56.908	 29.00195	 19.81956	  9.23157	  6.59131	 23.05134	 -0.71205	 30.42568	707.26501	 23.10	
 10.215	-47.354	 29.00377	 21.16271	  8.08387	  7.42620	 22.05240	 -0.65175	 30.40207	707.23297	 23.10	
 10.190	-37.895	 29.03854	 22.28404	  7.16010	  8.47780	 20.92209	 -0.60857	 30.41716	707.16901	 23.10	
 10.194	-28.474	 29.08613	 23.19214	  6.45215	  9.61597	 19.57468	 -0.59019	 30.43127	707.27899	 23.00	
 10.210	-18.966	 29.08059	 23.81923	  5.91963	 10.94221	 18.02677	 -0.58141	 30.40907	707.12598	 23.00	
 10.191	 -9.503	 29.09077	 24.25902	  5.60700	 12.49503	 16.43351	 -0.60205	 30.41609	707.21301	 23.00	
 10.200	  0.000	 29.11533	 24.44827	  5.42394	 14.09851	 14.80635	 -0.58318	 30.42759	707.11298	 23.00	
 10.191	  9.503	 29.11867	 24.31434	  5.61282	 15.72547	 13.23308	 -0.56974	 30.40919	707.03400	 23.00	
 10.210	 18.966	 29.15558	 23.97871	  5.92206	 17.32498	 11.78835	 -0.53811	 30.43626	707.02698	 23.00	
 10.194	 28.474	 29.19939	 23.33626	  6.49027	 18.86321	 10.52876	 -0.52641	 30.45845	707.11700	 23.00	
 10.190	 37.895	 29.18642	 22.47750	  7.23130	 20.25156	  9.26011	 -0.49318	 30.41342	707.24799	 23.00	
 10.215	 47.354	 29.23865	 21.43609	  8.18001	 21.48417	  8.19449	 -0.48086	 30.45672	707.24103	 23.00	
 10.203	 56.908	 29.22937	 20.10869	  9.30432	 22.42878	  7.36406	 -0.47492	 30.41208	707.17902	 23.00	
 10.192	 66.322	 29.26879	 18.66910	 10.61903	 23.20807	  6.80665	 -0.50188	 30.44472	707.21698	 23.00	
 10.208	 75.751	 29.24444	 17.15994	 11.93063	 23.73850	  6.38379	 -0.52907	 30.40443	707.15399	 23.00	
 10.210	 85.199	 29.26367	 15.61160	 13.61017	 24.03775	  6.09626	 -0.58991	 30.42159	707.12598	 23.00	
 10.210	 94.801	 29.25637	 13.96307	 15.28696	 24.02414	  6.09606	 -0.61262	 30.40463	707.12598	 23.00	
 10.208	104.249	 29.31436	 12.36356	 16.90447	 23.78296	  6.41193	 -0.62837	 30.47512	707.20203	 23.00	
 10.192	113.678	 29.27299	 11.00509	 18.35772	 23.19217	  6.81789	 -0.61361	 30.43789	707.16199	 23.00	
 10.203	123.092	 29.24495	  9.75834	 19.75075	 22.42966	  7.39410	 -0.58741	 30.43763	707.14001	 23.00	
 10.215	132.646	 29.18519	  8.58842	 21.01970	 21.42851	  8.18610	 -0.53924	 30.40673	707.09900	 23.00	
 10.190	142.105	 29.19826	  7.64460	 22.16726	 20.22144	  9.24246	 -0.48861	 30.43442	707.97699	 23.00	
 10.194	151.526	 29.21016	  6.85552	 23.07209	 18.81603	 10.60031	 -0.47104	 30.47164	707.14398	 23.00	
 10.210	161.034	 29.14122	  6.28821	 23.71086	 17.25914	 11.76154	 -0.49161	 30.42598	706.97198	 23.00	
 10.191	170.497	 29.14942	  5.93825	 24.12215	 15.70490	 13.25811	 -0.50145	 30.46475	707.12097	 23.00	
 11.899	171.783	 28.48080	  3.95985	 25.24410	 15.15247	 12.66814	 -0.74672	 30.41587	707.18597	 23.00	
 11.890	163.610	 28.49055	  4.27966	 24.87953	 16.71409	 11.27499	 -0.73816	 30.39358	707.12402	 23.00	
 11.889	155.445	 28.54545	  4.76076	 24.31991	 18.24641	 10.03895	 -0.70119	 30.41930	707.17401	 23.00	
 11.909	147.299	 28.54172	  5.43372	 23.50675	 19.79937	  8.56672	 -0.70463	 30.40064	707.07501	 23.00	
 11.902	139.148	 28.59514	  6.29869	 22.54058	 21.16788	  7.45347	 -0.74336	 30.43213	707.09802	 23.00	
 11.894	130.867	 28.61161	  7.33966	 21.34514	 22.29738	  6.48789	 -0.80277	 30.41380	706.92603	 23.00	
 11.897	122.732	 28.67138	  8.54353	 20.06050	 23.32434	  5.68753	 -0.82863	 30.44886	707.13702	 23.00	
 11.903	114.597	 28.66450	  9.80919	 18.61358	 24.14059	  5.04383	 -0.87621	 30.43132	707.03101	 23.00	
 11.893	106.346	 28.65826	 11.16395	 17.09877	 24.70474	  4.63332	 -0.91444	 30.39302	707.00299	 23.00	
 11.892	 98.155	 28.68497	 12.60724	 15.56119	 25.09350	  4.35317	 -0.91155	 30.41777	706.99701	 23.00	
 11.900	 90.000	 28.66727	 14.23160	 13.87537	 25.20792	  4.20056	 -0.99457	 30.41666	707.15503	 23.00	
 11.892	 81.845	 28.69795	 15.86744	 12.21659	 25.09624	  4.36271	 -0.98294	 30.43352	707.09802	 23.00	
 11.893	 73.654	 28.71509	 17.47369	 10.79315	 24.74386	  4.69014	 -0.92709	 30.45906	707.01599	 23.00	
 11.903	 65.403	 28.66966	 18.93591	  9.38498	 24.12630	  5.05772	 -0.86769	 30.42418	707.11700	 23.00	
 11.897	 57.268	 28.61259	 20.38999	  8.08614	 23.27271	  5.66959	 -0.84483	 30.39042	706.97400	 23.00	
 11.894	 49.133	 28.63230	 21.72930	  6.94327	 22.30368	  6.52297	 -0.85500	 30.43396	707.00598	 23.00	
 11.902	 40.852	 28.60321	 22.86769	  5.93013	 21.16860	  7.47764	 -0.87172	 30.42974	706.97198	 23.00	
 11.909	 32.701	 28.56144	 23.81187	  5.08409	 19.84382	  8.60794	 -0.90284	 30.42665	706.97400	 23.00	
 11.889	 24.555	 28.54772	 24.57197	  4.45975	 18.33490	  9.87863	 -0.85873	 30.41413	707.01398	 23.00	
 11.890	 16.390	 28.52816	 25.12383	  4.03112	 16.75592	 11.23371	 -0.80722	 30.41833	706.95203	 23.00	
 11.899	  8.217	 28.51598	 25.46500	  3.75166	 15.19334	 12.68468	 -0.77126	 30.42966	707.08197	 23.00	
 11.900	  0.000	 28.52432	 25.56903	  3.63158	 13.57239	 14.29983	 -0.80093	 30.44132	706.97498	 23.00	
 11.899	 -8.217	 28.50484	 25.40545	  3.71858	 11.89618	 15.85814	 -0.82257	 30.43074	707.10303	 23.00	
 11.890	-16.390	 28.46551	 24.99653	  3.98041	 10.44697	 17.44508	 -0.81970	 30.40693	707.09198	 23.00	
 11.889	-24.555	 28.46423	 24.40856	  4.39188	  9.09173	 19.06752	 -0.82159	 30.42933	707.06799	 23.00	
 11.909	-32.701	 28.38401	 23.53731	  5.00576	  7.81831	 20.46424	 -0.81550	 30.37688	706.88702	 23.00	
 11.902	-40.852	 28.38487	 22.57449	  5.84139	  6.69127	 21.75307	 -0.83462	 30.39200	707.10101	 23.00	
 11.894	-49.133	 28.35958	 21.39794	  6.86290	  5.63318	 22.88430	 -0.88619	 30.39357	707.13397	 23.00	
 11.897	-57.268	 28.35150	 20.05718	  7.99223	  4.79091	 23.89660	 -0.94777	 30.41415	706.95801	 23.00	
 11.903	-65.403	 28.32121	 18.54757	  9.23733	  4.13805	 24.69637	 -0.95284	 30.41405	707.08197	 23.00	
 11.893	-73.654	 28.30317	 17.01927	 10.63517	  3.67345	 25.24759	 -0.98914	 30.41359	707.11798	 23.00	
 11.892	-81.845	 28.30759	 15.43075	 12.09917	  3.37825	 25.60782	 -0.99514	 30.42973	707.13397	 23.00	
 11.900	-90.000	 28.25841	 13.78878	 13.67893	  3.18341	 25.72737	 -0.92161	 30.41428	707.11798	 23.00	
 11.892	-98.155	 28.26838	 12.19611	 15.36160	  3.31665	 25.60812	 -0.92265	 30.42623	707.09198	 23.00	
 11.893	-106.346	 28.23947	 10.73004	 16.94778	  3.55944	 25.25177	 -0.90273	 30.41436	707.04999	 23.00	
 11.903	-114.597	 28.26871	  9.42451	 18.44858	  3.97205	 24.70636	 -0.83727	 30.44724	707.13098	 23.00	
 11.897	-122.732	 28.26019	  8.16581	 19.88068	  4.63167	 23.86256	 -0.75402	 30.41255	707.03003	 23.00	
 11.894	-130.867	 28.28375	  7.03466	 21.20980	  5.50703	 22.86624	 -0.73087	 30.42907	707.10101	 23.00	
 11.902	-139.148	 28.29560	  6.01885	 22.42149	  6.57505	 21.71586	 -0.74722	 30.42309	707.07898	 23.00	
 11.909	-147.299	 28.34306	  5.17833	 23.45998	  7.74476	 20.50904	 -0.76201	 30.44565	707.14398	 23.00	
 11.889	-155.445	 28.36507	  4.61051	 24.25656	  9.03037	 19.08389	 -0.75745	 30.42373	707.23901	 23.00	
 11.890	-163.610	 28.38265	  4.16183	 24.84237	 10.39123	 17.48668	 -0.76570	 30.40990	707.15997	 23.00	
 11.899	-171.783	 28.42216	  3.97280	 25.22364	 11.84143	 15.81345	 -0.76950	 30.42856	707.10699	 23.00	
 11.900	180.000	 28.48327	  3.84598	 25.39363	 13.48747	 14.26674	 -0.77362	 30.45797	707.05902	 23.00	
 13.600	180.000	 27.71852	  1.89605	 26.38342	 12.81997	 13.62697	 -1.01817	 30.43483	707.02301	 23.00	
 13.608	-172.853	 27.71064	  1.94658	 26.30067	 11.29277	 15.20660	 -1.02320	 30.46577	707.17200	 23.00	
 13.611	-165.583	 27.63253	  2.10546	 25.94843	  9.81461	 16.79459	 -1.01191	 30.42122	706.93701	 23.00	
 13.601	-158.353	 27.60205	  2.47183	 25.40101	  8.39411	 18.41010	 -1.01189	 30.41714	707.05603	 23.00	
 13.609	-151.210	 27.56337	  3.05141	 24.66923	  7.05919	 19.87526	 -1.00731	 30.40553	707.06097	 23.00	
 13.611	-143.999	 27.55410	  3.77775	 23.75843	  5.81600	 21.27172	 -0.96504	 30.42466	707.00800	 23.00	
 13.601	-136.825	 27.54145	  4.62381	 22.67118	  4.66062	 22.48174	 -0.93334	 30.43145	706.94598	 23.00	
 13.596	-129.640	 27.50946	  5.65905	 21.40998	  3.66867	 23.61932	 -0.92821	 30.41865	706.93701	 23.00	
 13.611	-122.431	 27.45044	  6.79858	 20.04194	  2.84006	 24.57164	 -0.94568	 30.36277	706.97400	 23.00	
 13.604	-115.211	 27.50170	  8.06968	 18.63369	  2.40311	 25.45387	 -1.01377	 30.44858	706.93701	 23.00	
 13.595	-108.042	 27.49603	  9.41082	 17.12967	  1.98837	 26.04578	 -1.09127	 30.42033	707.02802	 23.00	
 13.607	-100.793	 27.49626	 10.80797	 15.53557	  1.65299	 26.48719	 -1.12741	 30.42892	708.06897	 23.00	
 13.601	-93.617	 27.48120	 12.29063	 13.83420	  1.53443	 26.66314	 -1.13198	 30.38534	707.05298	 23.00	
 13.601	-86.383	 27.52213	 13.90953	 12.24607	  1.51400	 26.71173	 -1.13458	 30.42938	707.03699	 23.00	
 13.607	-79.207	 27.52792	 15.55066	 10.76421	  1.65868	 26.52102	 -1.11367	 30.43342	706.91602	 23.00	
 13.595	-71.958	 27.53217	 17.14798	  9.29076	  2.04193	 26.06098	 -1.11348	 30.40060	707.00299	 23.00	
 13.604	-64.789	 27.56890	 18.64626	  7.95610	  2.44292	 25.47148	 -1.09907	 30.40694	706.97998	 23.00	
 13.611	-57.569	 27.59869	 20.19473	  6.69249	  3.00811	 24.65772	 -1.09368	 30.40092	707.07898	 23.00	
 13.596	-50.360	 27.63548	 21.57133	  5.52100	  3.82034	 23.67838	 -1.05242	 30.40287	707.07800	 23.00	
 13.601	-43.175	 27.65943	 22.75534	  4.50751	  4.80652	 22.52255	 -1.01840	 30.41075	707.10303	 23.00	
 13.611	-36.001	 27.66516	 23.84326	  3.61011	  5.90522	 21.28530	 -0.99627	 30.39904	707.08600	 23.00	
 13.609	-28.790	 27.66500	 24.75583	  3.07143	  7.10420	 19.89904	 -0.96957	 30.37626	707.04401	 23.00	
 13.601	-21.647	 27.67814	 25.49698	  2.68012	  8.39540	 18.38990	 -0.99789	 30.37437	707.04199	 23.00	
 13.611	-14.417	 27.72850	 26.07051	  2.33619	  9.80912	 16.76229	 -1.00297	 30.39927	707.01898	 23.00	
 13.608	 -7.147	 27.73074	 26.42805	  2.07507	 11.26911	 15.18845	 -0.98873	 30.40915	706.99701	 23.00	
 13.600	  0.000	 27.72521	 26.55291	  1.99395	 12.81772	 13.62676	 -0.97844	 30.39108	706.95801	 23.00	
 13.608	  7.147	 27.71806	 26.46840	  2.03055	 14.51129	 12.06373	 -0.96498	 30.38503	706.99701	 23.00	
 13.611	 14.417	 27.80187	 26.23480	  2.27344	 16.15092	 10.61369	 -0.99065	 30.45040	706.90997	 23.00	
 13.601	 21.647	 27.82470	 25.73204	  2.59624	 17.69091	  9.24984	 -0.98694	 30.44017	706.89502	 23.00	
 13.609	 28.790	 27.84232	 25.04643	  3.09490	 19.26462	  7.97411	 -0.97419	 30.43316	706.92902	 23.00	
 13.611	 36.001	 27.82958	 24.13850	  3.75161	 20.67224	  6.78884	 -0.93964	 30.38936	706.87299	 23.00	
 13.601	 43.175	 27.89931	 23.10025	  4.63129	 21.95142	  5.72643	 -0.89359	 30.41516	706.93402	 23.00	
 13.596	 50.360	 27.90549	 21.94431	  5.64037	 23.07499	  4.76127	 -0.83016	 30.40798	706.86401	 23.00	
 13.611	 57.569	 27.90308	 20.59909	  6.79969	 24.10019	  3.93012	 -0.94034	 30.38659	707.00299	 23.00	
 13.604	 64.789	 27.93141	 19.11948	  8.07673	 24.95347	  3.30424	 -0.88216	 30.40810	707.03003	 23.00	
 13.595	 71.958	 27.92483	 17.61554	  9.37595	 25.58518	  2.98339	 -0.95198	 30.39684	706.87903	 23.00	
 13.607	 79.207	 27.95815	 16.06447	 10.86633	 26.03633	  2.68842	 -1.03355	 30.42614	706.91302	 23.00	
 13.601	 86.383	 27.95221	 14.44596	 12.33868	 26.21350	  2.53148	 -1.09477	 30.40530	707.00000	 23.00	
 13.601	 93.617	 27.97682	 12.80473	 14.03973	 26.23400	  2.54285	 -1.12847	 30.42500	707.01398	 22.90	
 13.607	100.793	 27.95740	 11.30061	 15.71593	 26.02407	  2.63998	 -1.13914	 30.40793	706.94598	 23.00	
 13.595	108.042	 27.92790	  9.88808	 17.22103	 25.57105	  2.93611	 -1.12674	 30.38072	707.04401	 23.00	
 13.604	115.211	 27.92288	  8.53746	 18.76123	 24.93941	  3.31616	 -1.11165	 30.38057	707.00500	 23.00	
 13.611	122.431	 27.90422	  7.22897	 20.22071	 24.11645	  3.92725	 -1.05844	 30.39551	707.01599	 23.00	
 13.596	129.640	 27.86898	  6.03046	 21.52349	 23.06644	  4.74269	 -1.02089	 30.35348	706.95801	 22.90	
 13.601	136.825	 27.90689	  4.99489	 22.78301	 21.98593	  5.70286	 -0.96155	 30.42230	706.99902	 22.90	
 13.611	143.999	 27.86124	  4.02814	 23.85991	 20.71669	  6.73903	 -0.93646	 30.41559	706.84003	 22.90	
 13.609	151.210	 27.83189	  3.22044	 24.75152	 19.25380	  7.90788	 -0.91664	 30.41127	706.90601	 22.90	
 13.601	158.353	 27.76927	  2.63585	 25.43314	 17.67498	  9.18718	 -0.94087	 30.37018	706.97400	 22.90	
 13.611	165.583	 27.74018	  2.20020	 25.96330	 16.11045	 10.59752	 -0.95859	 30.38522	706.84802	 22.90	
 13.608	172.853	 27.69752	  1.97376	 26.23955	 14.47950	 12.06311	 -0.99295	 30.37160	706.88098	 22.90	
 15.298	173.587	 26.89149	  0.23023	 27.16275	 13.75694	 11.40312	 -1.19314	 30.37489	706.88702	 22.90	
 15.291	167.167	 26.94361	  0.46146	 26.92906	 15.45143	  9.95663	 -1.17523	 30.41100	706.94397	 22.90	
 15.307	160.676	 26.95841	  0.82374	 26.48124	 17.02547	  8.53711	 -1.14787	 30.41123	706.83899	 22.90	
 15.300	154.261	 26.98311	  1.33299	 25.84228	 18.57419	  7.18943	 -1.12611	 30.40192	706.86499	 22.90	
 15.288	147.854	 27.02222	  1.95924	 25.03724	 20.08531	  5.98902	 -1.11860	 30.40134	706.89502	 22.90	
 15.293	141.428	 27.07990	  2.72800	 24.08226	 21.48020	  4.86685	 -1.14480	 30.42542	706.76398	 22.90	
 15.299	134.985	 27.08297	  3.60205	 22.93235	 22.71146	  3.84334	 -1.20451	 30.40999	706.82800	 22.90	
 15.305	128.583	 27.09780	  4.67688	 21.66551	 23.87462	  3.11171	 -1.22949	 30.42167	706.89502	 22.90	
 15.309	122.142	 27.09164	  5.87394	 20.31398	 24.85534	  2.39066	 -1.25350	 30.38345	706.94299	 22.90	
 15.304	115.711	 27.11643	  7.18044	 18.87468	 25.66771	  1.80044	 -1.25952	 30.38005	706.79999	 22.90	
 15.297	109.291	 27.14375	  8.56334	 17.32233	 26.33424	  1.29752	 -1.26421	 30.39191	706.79999	 22.90	
 15.293	102.897	 27.17823	  9.98418	 15.80044	 26.83594	  0.95875	 -1.26711	 30.43605	706.97198	 22.90	
 15.293	 96.458	 27.14917	 11.42408	 14.12778	 27.10769	  0.75172	 -1.25360	 30.39531	706.92401	 22.90	
 15.300	 90.000	 27.18614	 12.95972	 12.51476	 27.21727	  0.82792	 -1.24986	 30.42266	706.79901	 22.90	
 15.293	 83.542	 27.14880	 14.58386	 10.97885	 27.10489	  0.84200	 -1.22935	 30.38086	706.91602	 22.90	
 15.293	 77.103	 27.16051	 16.21473	  9.49085	 26.77957	  1.07075	 -1.15745	 30.40181	706.84698	 22.90	
 15.297	 70.709	 27.16563	 17.76061	  8.08950	 26.30896	  1.42654	 -1.11860	 30.40990	706.90100	 22.90	
 15.304	 64.289	 27.14516	 19.24027	  6.72958	 25.65541	  1.83212	 -1.02143	 30.41864	706.82800	 22.90	
 15.309	 57.858	 27.10462	 20.68506	  5.46404	 24.83345	  2.34752	 -1.00776	 30.40736	706.87903	 22.90	
 15.305	 51.417	 27.07978	 22.04038	  4.29908	 23.82151	  3.05712	 -0.99039	 30.40100	706.95398	 22.90	
 15.299	 45.015	 27.08027	 23.23738	  3.31888	 22.67461	  3.90899	 -1.03715	 30.41647	706.93500	 22.90	
 15.293	 38.572	 27.02132	 24.34193	  2.62384	 21.41092	  4.88263	 -1.08247	 30.40000	706.90900	 22.90	
 15.288	 32.146	 26.97587	 25.28477	  1.83060	 20.01422	  6.00758	 -1.08845	 30.37855	706.85101	 22.90	
 15.300	 25.739	 26.95091	 26.06663	  1.22746	 18.52820	  7.23024	 -1.07381	 30.38455	706.99701	 22.90	
 15.307	 19.324	 26.94477	 26.69509	  0.79606	 16.99216	  8.57287	 -1.06781	 30.39468	707.01599	 22.90	
 15.291	 12.833	 26.92286	 27.13469	  0.45695	 15.44776	  9.95321	 -1.04587	 30.38879	706.91998	 22.90	
 15.298	  6.413	 26.91409	 27.42203	  0.25631	 13.78191	 11.38900	 -1.05270	 30.39500	707.00000	 22.90	
 15.300	  0.000	 26.88058	 27.44624	  0.22186	 12.14330	 12.90749	 -1.06803	 30.35780	706.96600	 22.90	
 15.298	 -6.413	 26.91948	 27.39934	  0.24056	 10.66773	 14.52561	 -1.09224	 30.43022	706.94397	 22.90	
 15.291	-12.833	 26.89819	 27.04387	  0.46935	  9.18905	 16.06449	 -1.08582	 30.40596	706.90997	 22.90	
 15.307	-19.324	 26.89837	 26.52763	  0.79145	  7.76854	 17.67849	 -1.10895	 30.41180	707.04498	 22.90	
 15.300	-25.739	 26.86538	 25.83784	  1.20589	  6.40950	 19.20583	 -1.08239	 30.38018	706.93500	 22.90	
 15.288	-32.146	 26.87869	 25.02547	  1.78476	  5.13018	 20.66974	 -1.07285	 30.42035	707.01599	 22.90	
 15.293	-38.572	 26.80122	 23.97440	  2.57935	  3.89297	 21.97577	 -1.07268	 30.38207	706.85797	 22.90	
 15.299	-45.015	 26.77963	 22.81715	  3.14193	  2.90676	 23.22470	 -1.09746	 30.37985	706.77698	 22.90	
 15.305	-51.417	 26.80113	 21.63755	  4.16112	  2.11586	 24.35684	 -1.12983	 30.41857	706.76801	 22.90	
 15.309	-57.858	 26.77139	 20.24355	  5.33296	  1.34355	 25.32756	 -1.12462	 30.41494	706.94897	 22.90	
 15.304	-64.289	 26.71263	 18.69812	  6.58293	  0.74793	 26.11648	 -1.10898	 30.39440	706.88098	 22.90	
 15.297	-70.709	 26.68971	 17.18435	  7.91877	  0.26831	 26.75566	 -1.08739	 30.40184	706.97699	 22.90	
 15.293	-77.103	 26.66519	 15.64062	  9.30733	 -0.11877	 27.20655	 -1.04667	 30.40236	707.11298	 22.90	
 15.293	-83.542	 26.64430	 13.97715	 10.82970	 -0.35828	 27.49617	 -1.06684	 30.41387	706.84698	 22.90	
 15.300	-90.000	 26.64768	 12.39644	 12.34387	 -0.35644	 27.58058	 -1.04497	 30.41558	706.81097	 23.00	
 15.293	-96.458	 26.61926	 10.83816	 13.93904	 -0.39994	 27.48899	 -1.00564	 30.40355	708.49902	 23.00	
 15.293	-102.897	 26.59262	  9.39451	 15.61179	 -0.21184	 27.19516	 -0.97567	 30.38888	708.49902	 23.00	
 15.297	-109.291	 26.57936	  8.00681	 17.17301	  0.17588	 26.69762	 -1.06431	 30.37329	707.43103	 23.00	
 15.304	-115.711	 26.58716	  6.67467	 18.63965	  0.64507	 26.05449	 -1.04477	 30.37980	706.83099	 23.00	
 15.309	-122.142	 26.62822	  5.40111	 20.13950	  1.24734	 25.26218	 -1.03480	 30.40495	708.51099	 23.00	
 15.305	-128.583	 26.66121	  4.22152	 21.49859	  2.02121	 24.31109	 -1.04627	 30.42418	706.75403	 22.90	
 15.299	-134.985	 26.67627	  3.20146	 22.76567	  2.87390	 23.21320	 -1.05836	 30.42933	706.84802	 23.00	
 15.293	-141.428	 26.69963	  2.38839	 23.92424	  3.88313	 22.00129	 -1.11360	 30.42857	706.80902	 22.90	
 15.288	-147.854	 26.69682	  1.64570	 24.90950	  5.10099	 20.63062	 -1.14427	 30.39521	706.87299	 23.00	
 15.300	-154.261	 26.73293	  1.08818	 25.75177	  6.38367	 19.20658	 -1.13532	 30.41840	706.87299	 22.90	
 15.307	-160.676	 26.73652	  0.65551	 26.38629	  7.72302	 17.67924	 -1.10138	 30.38963	706.90997	 22.90	
 15.291	-167.167	 26.79646	  0.39616	 26.87012	  9.18903	 16.07786	 -1.08581	 30.40695	706.87299	 23.00	
 15.298	-173.587	 26.85391	  0.24813	 27.18153	 10.63953	 14.53864	 -1.07316	 30.43322	706.89801	 22.90	
 15.300	180.000	 26.83853	  0.21073	 27.22614	 12.12799	 12.94849	 -1.08932	 30.35664	706.96899	 22.90	
 17.000	180.000	 25.92292	 -1.49817	 28.05369	 11.43119	 12.22229	 -1.21628	 30.38152	706.90399	 22.90	
 16.990	-174.179	 25.89076	 -1.46468	 27.97184	  9.92119	 13.76256	 -1.19501	 30.39469	706.96899	 22.90	
 17.009	-168.383	 25.79910	 -1.40222	 27.67527	  8.44823	 15.29007	 -1.18227	 30.34619	706.91602	 22.90	
 17.000	-162.596	 25.81733	 -1.09443	 27.28696	  7.02956	 16.86076	 -1.21118	 30.39422	706.92902	 22.90	
 16.990	-156.759	 25.79670	 -0.71645	 26.70276	  5.65996	 18.42339	 -1.24446	 30.40765	706.76801	 22.90	
 16.995	-150.919	 25.77277	 -0.20078	 25.94060	  4.36075	 19.87956	 -1.28250	 30.40417	706.95398	 22.90	
 16.988	-145.161	 25.73835	  0.40664	 25.02198	  3.19346	 21.29775	 -1.29282	 30.39908	706.88501	 23.00	
 17.014	-139.343	 25.66420	  1.09706	 23.94562	  2.12034	 22.53943	 -1.26626	 30.36987	706.91199	 22.90	
 17.007	-133.546	 25.69180	  1.94878	 22.79886	  1.21548	 23.75674	 -1.20657	 30.39478	706.90399	 22.90	
 17.001	-127.699	 25.69204	  2.92410	 21.49035	  0.38142	 24.87254	 -1.19468	 30.39903	707.52100	 22.90	
 17.006	-121.937	 25.68339	  4.01651	 20.12749	 -0.34762	 25.83450	 -1.17386	 30.41795	707.03003	 22.90	
 17.002	-116.134	 25.64335	  5.24344	 18.64721	 -0.93663	 26.62984	 -1.21328	 30.39247	706.96002	 22.90	
 17.001	-110.310	 25.59921	  6.54444	 17.15396	 -1.43420	 27.26224	 -1.20041	 30.35486	706.99701	 22.90	
 16.988	-104.517	 25.64433	  7.93822	 15.61057	 -1.83846	 27.79696	 -1.16799	 30.40689	706.85101	 22.90	
 17.008	-98.662	 25.66860	  9.36752	 13.96852	 -2.03436	 28.15381	 -1.13169	 30.41908	706.82800	 22.90	
 16.996	-92.909	 25.66232	 10.82157	 12.42027	 -2.20746	 28.29632	 -1.07651	 30.39887	706.81097	 22.90	
 16.996	-87.091	 25.65493	 12.36882	 10.85648	 -2.14686	 28.27993	 -1.03237	 30.36876	708.28497	 22.90	
 17.012	-81.253	 25.67888	 13.92358	  9.33608	 -2.06376	 28.16973	 -0.98206	 30.40887	707.81500	 22.90	
 16.988	-75.483	 25.71668	 15.58866	  7.90394	 -1.78932	 27.85643	 -0.95502	 30.41471	707.56500	 22.90	
 17.001	-69.690	 25.74004	 17.14698	  6.50454	 -1.42259	 27.39162	 -0.93148	 30.42078	706.82800	 22.90	
 17.002	-63.866	 25.75151	 18.64625	  5.21005	 -0.90987	 26.69160	 -0.97794	 30.37966	707.03699	 22.90	
 17.006	-58.063	 25.82480	 20.16015	  4.11845	 -0.35784	 25.92035	 -0.98885	 30.41752	706.82800	 22.90	
 17.001	-52.301	 25.84543	 21.56880	  3.14990	  0.34579	 24.94696	 -0.97460	 30.39574	706.96503	 22.90	
 17.007	-46.454	 25.86572	 22.86349	  2.04083	  1.19454	 23.85464	 -0.97394	 30.40226	707.01300	 22.90	
 17.014	-40.657	 25.84682	 24.02574	  1.22033	  2.08800	 22.62456	 -0.99290	 30.36123	706.99103	 22.90	
 16.988	-34.839	 25.93254	 25.12093	  0.54163	  3.19043	 21.36007	 -1.01765	 30.41692	707.00800	 22.90	
 16.995	-29.081	 25.93515	 25.99713	 -0.06622	  4.39753	 19.92555	 -1.05596	 30.39019	707.02301	 22.90	
 16.990	-23.241	 25.95038	 26.77852	 -0.58877	  5.69178	 18.43050	 -1.07889	 30.39047	706.98798	 22.90	
 17.000	-17.404	 25.93746	 27.38437	 -0.99660	  7.02371	 16.87509	 -1.07491	 30.38266	707.00000	 22.90	
 17.009	-11.617	 25.94832	 27.83951	 -1.30916	  8.42869	 15.31677	 -1.05435	 30.39040	707.00299	 22.90	
 16.990	 -5.821	 26.00324	 28.12751	 -1.46252	  9.92373	 13.77312	 -1.05041	 30.43605	706.91199	 22.90	
 17.000	  0.000	 25.95931	 28.20339	 -1.54516	 11.42367	 12.20823	 -0.97443	 30.38363	707.07001	 22.90	
 16.990	  5.821	 25.97965	 28.16541	 -1.47691	 12.99778	 10.68349	 -0.90193	 30.39745	707.11499	 22.90	
 17.009	 11.617	 25.96938	 27.94298	 -1.33684	 14.61758	  9.27003	 -0.89728	 30.38469	706.84998	 22.90	
 17.000	 17.404	 26.00026	 27.56010	 -1.03235	 16.19801	  7.90320	 -0.87795	 30.38287	706.89801	 22.90	
 16.990	 23.241	 26.02935	 27.02894	 -0.59134	 17.69839	  6.57162	 -0.87445	 30.40278	706.75500	 22.90	
 16.995	 29.081	 26.06858	 26.33467	 -0.07489	 19.26704	  5.32474	 -0.94428	 30.41211	706.85400	 22.90	
 16.988	 34.839	 26.08642	 25.44274	  0.55324	 20.70687	  4.16711	 -1.01512	 30.38330	706.87903	 23.00	
 17.014	 40.657	 26.07368	 24.44629	  1.21467	 22.04958	  3.17843	 -1.13855	 30.37055	706.72101	 22.90	
 17.007	 46.454	 26.14759	 23.35113	  2.12887	 23.32012	  2.17978	 -1.06405	 30.43461	707.59601	 23.00	
 17.001	 52.301	 26.16468	 22.07659	  3.12838	 24.42541	  1.41063	 -1.11247	 30.40178	706.87903	 22.90	
 17.006	 58.063	 26.19482	 20.71585	  4.11139	 25.42090	  0.66938	 -1.18292	 30.40458	707.21600	 22.90	
 17.002	 63.866	 26.20297	 19.24170	  5.33683	 26.26220	  0.04685	 -1.26151	 30.39680	708.01898	 22.90	
 17.001	 69.690	 26.22168	 17.77192	  6.64444	 26.96380	 -0.47216	 -1.35466	 30.40816	706.88202	 22.90	
 16.988	 75.483	 26.21019	 16.24508	  8.03125	 27.45898	 -0.87636	 -1.42902	 30.38235	706.92603	 23.00	
 17.012	 81.253	 26.19783	 14.59400	  9.43481	 27.79598	 -1.09511	 -1.46173	 30.37485	706.94897	 22.90	
 16.996	 87.091	 26.23289	 13.02764	 10.97848	 27.97110	 -1.08755	 -1.49735	 30.39632	706.77698	 22.90	
 16.996	 92.909	 26.22703	 11.47830	 12.55376	 27.96763	 -1.08743	 -1.46168	 30.38422	706.73199	 22.90	
 17.008	 98.662	 26.25266	 10.03439	 14.11069	 27.86387	 -1.05189	 -1.42966	 30.43263	706.78003	 23.00	
 16.988	104.517	 26.25395	  8.58869	 15.76744	 27.50940	 -0.80046	 -1.20597	 30.41813	706.79199	 23.00	
 17.001	110.310	 26.20959	  7.13949	 17.29300	 26.96683	 -0.38839	 -1.25607	 30.37635	707.01599	 23.00	
 17.002	116.134	 26.18636	  5.78435	 18.81646	 26.27566	  0.13190	 -1.31155	 30.35475	706.81897	 23.00	
 17.006	121.937	 26.20260	  4.47355	 20.26977	 25.46635	  0.74762	 -1.33600	 30.38893	706.87500	 23.00	
 17.001	127.699	 26.14398	  3.34277	 21.62913	 24.46662	  1.42542	 -1.34753	 30.36151	706.84998	 23.00	
 17.007	133.546	 26.13437	  2.31964	 22.93526	 23.35671	  2.22283	 -1.32197	 30.37885	706.91199	 23.00	
 17.014	139.343	 26.11548	  1.44078	 24.11201	 22.13128	  3.08564	 -1.29300	 30.37063	706.97699	 23.00	
 16.988	145.161	 26.15366	  0.71606	 25.17999	 20.80735	  4.08970	 -1.28306	 30.40972	706.99701	 23.00	
 16.995	150.919	 26.08509	  0.06869	 26.01932	 19.33539	  5.23134	 -1.29997	 30.36417	706.86401	 23.00	
 16.990	156.759	 26.05979	 -0.47031	 26.77068	 17.78653	  6.48651	 -1.30276	 30.38204	706.79199	 23.00	
 17.000	162.596	 26.02392	 -0.97694	 27.36084	 16.26997	  7.82199	 -1.27846	 30.39586	706.84698	 23.00	
 17.009	168.383	 25.94750	 -1.31839	 27.73208	 14.62928	  9.20217	 -1.28145	 30.34390	706.87299	 23.00	
 16.990	174.179	 25.97977	 -1.42031	 27.99044	 13.00805	 10.65754	 -1.23172	 30.39102	706.78302	 23.00	
 18.709	174.675	 24.97509	 -3.17548	 28.73693	 12.23628	  9.89982	 -1.30712	 30.44028	707.07202	 23.00	
 18.703	169.441	 24.97613	 -2.98818	 28.49130	 13.78101	  8.47359	 -1.40351	 30.41611	706.92603	 23.00	
 18.691	164.085	 25.01158	 -2.68062	 28.10986	 15.45902	  7.05174	 -1.41685	 30.39658	706.78003	 23.00	
 18.706	158.818	 25.02727	 -2.26090	 27.58526	 17.01923	  5.71583	 -1.43071	 30.37958	706.80798	 23.00	
 18.695	153.537	 25.06635	 -1.74029	 26.92345	 18.46938	  4.49244	 -1.44921	 30.37473	708.44598	 23.00	
 18.704	148.255	 25.10535	 -1.21373	 26.14193	 20.00672	  3.40187	 -1.43023	 30.40471	708.01300	 23.00	
 18.698	142.952	 25.10519	 -0.52614	 25.15814	 21.41878	  2.39096	 -1.41384	 30.38072	708.51099	 23.00	
 18.699	137.625	 25.12000	  0.24869	 24.05680	 22.68027	  1.42450	 -1.40490	 30.36979	706.98199	 23.00	
 18.705	132.343	 25.16388	  1.13195	 22.88876	 23.90467	  0.55574	 -1.40274	 30.40493	706.90399	 23.00	
 18.713	127.067	 25.18784	  2.11287	 21.58895	 25.01362	 -0.30186	 -1.39732	 30.40194	706.97699	 23.00	
 18.700	121.794	 25.18761	  3.25835	 20.16123	 25.96477	 -0.96761	 -1.37532	 30.37819	708.52197	 23.00	
 18.698	116.504	 25.24968	  4.39086	 18.73487	 26.85329	 -1.52417	 -1.29837	 30.44058	706.94598	 23.00	
 18.707	111.165	 25.22498	  5.70415	 17.21717	 27.51963	 -2.08692	 -1.22435	 30.40458	708.46899	 23.00	
 18.690	105.863	 25.23251	  7.08407	 15.68737	 28.02781	 -2.43159	 -1.17750	 30.39672	708.54401	 23.00	
 18.696	100.583	 25.26225	  8.51841	 14.12799	 28.41857	 -2.60632	 -1.10114	 30.42254	708.47998	 23.00	
 18.700	 95.309	 25.26717	  9.98705	 12.57952	 28.62810	 -2.75428	 -1.13114	 30.41026	708.30499	 23.00	
 18.700	 90.000	 25.24751	 11.52086	 10.98672	 28.68623	 -2.91647	 -1.15834	 30.39817	706.84399	 23.00	
 18.700	 84.691	 25.27416	 13.01220	  9.47020	 28.62073	 -2.76673	 -1.24732	 30.42146	706.82800	 23.00	
 18.696	 79.417	 25.22249	 14.58747	  8.00556	 28.34112	 -2.60007	 -1.28811	 30.36214	706.87097	 23.00	
 18.690	 74.137	 25.26965	 16.21843	  6.62960	 28.02731	 -2.37976	 -1.29295	 30.43068	706.83398	 23.00	
 18.707	 68.835	 25.25110	 17.73112	  5.26447	 27.48973	 -2.00137	 -1.29679	 30.43494	708.03302	 23.00	
 18.698	 63.496	 25.21749	 19.16217	  3.99529	 26.78102	 -1.52038	 -1.26951	 30.41630	706.88202	 23.00	
 18.700	 58.206	 25.20359	 20.64022	  2.97736	 25.92915	 -0.93296	 -1.27290	 30.41538	706.78003	 23.00	
 18.713	 52.933	 25.17593	 22.01637	  1.85022	 24.94343	 -0.27598	 -1.19088	 30.41158	706.82599	 23.00	
 18.705	 47.657	 25.13638	 23.22695	  0.94039	 23.80406	  0.47736	 -1.17354	 30.38072	707.01398	 23.00	
 18.699	 42.375	 25.11242	 24.39927	  0.08508	 22.61327	  1.40856	 -1.15708	 30.39535	708.28601	 23.00	
 18.698	 37.048	 25.09743	 25.48360	 -0.70253	 21.33335	  2.43469	 -1.11964	 30.41868	706.87299	 23.00	
 18.704	 31.745	 25.04707	 26.40103	 -1.36165	 19.87765	  3.48574	 -1.09538	 30.39231	706.90198	 23.00	
 18.695	 26.463	 25.04779	 27.20122	 -1.91438	 18.34383	  4.62839	 -1.03056	 30.41186	706.83099	 23.00	
 18.706	 21.182	 24.98737	 27.81326	 -2.40070	 16.82132	  5.86469	 -0.95893	 30.38804	706.84399	 23.00	
 18.691	 15.915	 24.99457	 28.30911	 -2.77590	 15.33331	  7.19992	 -0.94538	 30.40388	706.76801	 23.00	
 18.703	 10.559	 24.96452	 28.66980	 -3.03931	 13.70873	  8.54123	 -0.89225	 30.41766	706.85101	 23.00	
 18.709	  5.325	 24.91479	 28.82970	 -3.20022	 12.17271	  9.89408	 -0.89953	 30.38732	706.88898	 23.00	
 18.700	  0.000	 24.92986	 28.90486	 -3.33231	 10.64177	 11.43384	 -0.93830	 30.42068	708.55902	 23.00	
 18.709	 -5.325	 24.95990	 28.83024	 -3.19905	  9.11945	 12.97122	 -0.96801	 30.45291	708.57800	 23.00	
 18.703	-10.559	 24.90040	 28.51908	 -3.05277	  7.66251	 14.46592	 -0.99366	 30.37418	706.80200	 23.00	
 18.691	-15.915	 24.94637	 28.14981	 -2.77817	  6.25143	 16.06471	 -1.01138	 30.41476	706.88702	 23.00	
 18.706	-21.182	 24.92286	 27.57456	 -2.41757	  4.93464	 17.55852	 -1.05999	 30.38710	708.09802	 23.00	
 18.695	-26.463	 24.94711	 26.91410	 -1.94298	  3.64725	 19.09407	 -1.03915	 30.42547	708.26300	 23.00	
 18.704	-31.745	 24.88135	 26.04712	 -1.40324	  2.46461	 20.52978	 -0.98299	 30.37984	706.79401	 23.00	
 18.698	-37.048	 24.90144	 25.09268	 -0.73975	  1.41812	 21.93400	 -1.01951	 30.41448	707.43298	 23.00	
 18.699	-42.375	 24.88263	 23.99866	 -0.02469	  0.40238	 23.19714	 -0.94844	 30.43453	706.90100	 23.00	
 18.705	-47.657	 24.83975	 22.75047	  0.82293	 -0.48232	 24.36995	 -0.91938	 30.40745	706.75500	 23.00	
 18.713	-52.933	 24.78109	 21.42971	  1.73538	 -1.24356	 25.40919	 -0.94114	 30.38042	706.83099	 23.00	
 18.700	-58.206	 24.76552	 20.00678	  2.76264	 -1.86475	 26.35561	 -0.92487	 30.38643	706.78601	 23.00	
 18.698	-63.496	 24.76735	 18.57382	  4.06189	 -2.49732	 27.19371	 -0.87494	 30.43058	708.31598	 23.00	
 18.707	-68.835	 24.69874	 17.04026	  5.08413	 -2.99864	 27.83012	 -0.87066	 30.40428	708.07397	 23.00	
 18.690	-74.137	 24.68269	 15.47526	  6.45542	 -3.38143	 28.33688	 -0.89758	 30.39766	706.76099	 23.00	
 18.696	-79.417	 24.67337	 13.94180	  7.84586	 -3.57394	 28.68951	 -0.92161	 30.40422	706.74902	 23.00	
 18.700	-84.691	 24.63494	 12.30463	  9.30176	 -3.84090	 28.92717	 -0.89395	 30.41681	706.78302	 23.00	
 18.700	-90.000	 24.59209	 10.77564	 10.83399	 -3.96328	 28.97730	 -0.86428	 30.40469	708.48297	 23.00	
 18.700	-95.309	 24.61324	  9.28430	 12.39023	 -3.86130	 28.92325	 -0.87126	 30.42093	707.88300	 23.00	
 18.696	-100.583	 24.59790	  7.82231	 13.93477	 -3.58356	 28.66246	 -1.00074	 30.39776	706.86499	 23.00	
 18.690	-105.863	 24.56612	  6.44522	 15.49048	 -3.41933	 28.26987	 -1.06900	 30.37514	707.64099	 23.00	
 18.707	-111.165	 24.58905	  5.06515	 17.08036	 -2.99733	 27.75868	 -1.16180	 30.38069	706.83301	 23.00	
 18.698	-116.504	 24.63608	  3.88433	 18.55307	 -2.49209	 27.12889	 -1.24961	 30.43358	706.69299	 23.00	
 18.700	-121.794	 24.65234	  2.76927	 20.01221	 -1.89298	 26.33570	 -1.29740	 30.43369	706.77502	 23.00	
 18.713	-127.067	 24.62477	  1.71061	 21.36035	 -1.18999	 25.35888	 -1.31729	 30.38329	706.80200	 23.00	
 18.705	-132.343	 24.66183	  0.74571	 22.70477	 -0.39874	 24.29802	 -1.34419	 30.40993	708.34399	 23.00	
 18.699	-137.625	 24.67400	 -0.11575	 23.91175	  0.46397	 23.10997	 -1.35531	 30.41353	706.87799	 23.00	
 18.698	-142.952	 24.70114	 -0.83442	 24.99862	  1.43525	 21.83057	 -1.36783	 30.40966	706.97699	 23.00	
 18.704	-148.255	 24.71833	 -1.47595	 25.97441	  2.48447	 20.55634	 -1.37543	 30.41120	708.40601	 23.00	
 18.695	-153.537	 24.75827	 -1.98778	 26.81500	  3.64094	 19.11164	 -1.32330	 30.41535	706.67798	 23.00	
 18.706	-158.818	 24.80562	 -2.35503	 27.50748	  4.89931	 17.59713	 -1.29557	 30.41638	706.79901	 23.00	
 18.691	-164.085	 24.84184	 -2.74060	 28.06500	  6.26306	 16.09084	 -1.24987	 30.44400	706.79102	 23.00	
 18.703	-169.441	 24.83791	 -2.98994	 28.42763	  7.73254	 14.50067	 -1.25062	 30.40512	707.85999	 22.90	
 18.709	-174.675	 24.84734	 -3.07735	 28.63508	  9.16146	 12.98935	 -1.25361	 30.38144	708.49902	 23.00	
 18.700	180.000	 24.90587	 -3.12335	 28.73119	 10.65803	 11.47733	 -1.25472	 30.39277	706.74701	 23.00	
 20.400	180.000	 23.83815	 -4.77363	 29.31870	  9.88080	 10.59590	 -1.18983	 30.41127	706.88202	 23.00	
 20.401	-175.153	 23.79723	 -4.63014	 29.20946	  8.39000	 12.10756	 -1.22554	 30.37894	706.73297	 23.00	
 20.407	-170.264	 23.77889	 -4.61012	 29.05536	  6.91569	 13.60796	 -1.18539	 30.42825	706.82800	 22.90	
 20.410	-165.423	 23.72651	 -4.37455	 28.66063	  5.46644	 15.14068	 -1.19693	 30.38735	706.78802	 22.90	
 20.392	-160.496	 23.73017	 -4.09958	 28.18692	  4.12516	 16.67845	 -1.21633	 30.42207	706.72601	 22.90	
 20.401	-155.705	 23.67755	 -3.67011	 27.54935	  2.88562	 18.12878	 -1.21810	 30.39638	706.82599	 22.90	
 20.405	-150.835	 23.59632	 -3.22899	 26.76582	  1.70976	 19.60153	 -1.24364	 30.37798	706.84198	 22.90	
 20.397	-145.903	 23.58175	 -2.63783	 25.86532	  0.63401	 21.03404	 -1.32397	 30.38220	706.81598	 22.90	
 20.392	-141.062	 23.59592	 -1.94644	 24.86453	 -0.35031	 22.30352	 -1.34986	 30.40783	706.83899	 22.90	
 20.396	-136.227	 23.54181	 -1.21876	 23.71822	 -1.22031	 23.50597	 -1.38513	 30.38012	708.40399	 22.90	
 20.408	-131.372	 23.54722	 -0.45605	 22.52272	 -2.00451	 24.67851	 -1.40056	 30.41144	708.34698	 22.90	
 20.410	-126.511	 23.56001	  0.45318	 21.20908	 -2.76324	 25.72287	 -1.38951	 30.41546	708.41302	 22.90	
 20.400	-121.604	 23.55390	  1.49512	 19.83770	 -3.41549	 26.66387	 -1.37701	 30.42711	708.41498	 22.90	
 20.403	-116.741	 23.52285	  2.56972	 18.35955	 -4.03616	 27.46957	 -1.29637	 30.41987	708.52002	 22.90	
 20.413	-111.900	 23.52167	  3.72129	 16.87271	 -4.59533	 28.17285	 -1.21980	 30.43732	708.57001	 22.90	
 20.398	-107.004	 23.49416	  4.93709	 15.31740	 -4.92980	 28.66674	 -1.12706	 30.39612	708.21002	 22.90	
 20.394	-102.132	 23.45625	  6.29882	 13.80371	 -5.16192	 29.05923	 -0.97545	 30.38682	706.81598	 22.90	
 20.403	-97.332	 23.47487	  7.73187	 12.26674	 -5.50055	 29.36524	 -0.87967	 30.42173	708.60699	 22.90	
 20.392	-92.440	 23.48252	  9.18878	 10.74737	 -5.58178	 29.49268	 -0.85730	 30.40870	707.79303	 22.90	
 20.392	-87.560	 23.45948	 10.65988	  9.23573	 -5.56187	 29.46079	 -0.83107	 30.36851	708.40698	 22.90	
 20.403	-82.668	 23.49738	 12.17016	  7.77896	 -5.49552	 29.38859	 -0.81773	 30.41294	706.72900	 22.90	
 20.394	-77.868	 23.54821	 13.73780	  6.33124	 -5.18614	 29.12485	 -0.84440	 30.39865	707.15503	 22.90	
 20.398	-72.996	 23.59159	 15.26610	  5.11715	 -4.95639	 28.72425	 -0.85481	 30.39027	708.48499	 22.90	
 20.413	-68.100	 23.60680	 16.79811	  3.77979	 -4.65176	 28.20261	 -0.82272	 30.39353	708.48199	 22.90	
 20.403	-63.259	 23.65725	 18.30868	  2.62422	 -4.15569	 27.53083	 -0.81468	 30.38765	707.34900	 22.90	
 20.400	-58.396	 23.65466	 19.78686	  1.49259	 -3.48008	 26.69892	 -0.84056	 30.35276	708.51300	 22.90	
 20.410	-53.489	 23.70471	 21.24158	  0.45961	 -2.83974	 25.82752	 -0.85803	 30.40969	708.50800	 22.90	
 20.408	-48.628	 23.68290	 22.51435	 -0.46241	 -2.13944	 24.76310	 -0.87861	 30.36792	708.12000	 22.90	
 20.396	-43.773	 23.75875	 23.75447	 -1.24068	 -1.26718	 23.63574	 -0.85304	 30.38556	708.44897	 22.90	
 20.392	-38.938	 23.82277	 24.91208	 -1.96260	 -0.30447	 22.42227	 -0.88071	 30.40935	708.46899	 22.90	
 20.397	-34.097	 23.84332	 25.93351	 -2.59730	  0.68546	 21.14305	 -0.88441	 30.41485	707.20001	 22.90	
 20.405	-29.165	 23.84370	 26.83557	 -3.18776	  1.73594	 19.70772	 -0.90015	 30.40040	706.71002	 22.90	
 20.401	-24.295	 23.87458	 27.61948	 -3.70281	  2.93696	 18.19909	 -0.91448	 30.39746	706.73999	 22.90	
 20.392	-19.504	 23.89407	 28.24213	 -4.10461	  4.13580	 16.72216	 -0.90614	 30.40614	708.44897	 22.90	
 20.410	-14.577	 23.87033	 28.74475	 -4.43472	  5.50537	 15.18164	 -0.85010	 30.40138	708.61798	 22.90	
 20.407	 -9.736	 23.91074	 29.14842	 -4.61818	  6.91117	 13.66658	 -0.81573	 30.44849	706.81897	 22.90	
 20.401	 -4.847	 23.88572	 29.34671	 -4.77079	  8.38035	 12.11465	 -0.79176	 30.42037	708.57898	 22.90	
 20.400	  0.000	 23.84300	 29.38701	 -4.85337	  9.81550	 10.64797	 -0.72410	 30.36959	708.49200	 22.90	
 20.401	  4.847	 23.90873	 29.43415	 -4.86890	 11.34392	  9.22602	 -0.69897	 30.44469	708.45398	 22.90	
 20.407	  9.736	 23.89332	 29.21654	 -4.62512	 12.80452	  7.78326	 -0.72162	 30.39629	708.33301	 22.90	
 20.410	 14.577	 23.93544	 28.93532	 -4.44298	 14.32837	  6.44970	 -0.70055	 30.40520	707.35101	 22.90	
 20.392	 19.504	 23.97106	 28.49196	 -4.11286	 15.90759	  5.06767	 -0.71791	 30.40418	708.36499	 22.90	
 20.401	 24.295	 23.99855	 27.93425	 -3.71038	 17.42287	  3.87421	 -0.76936	 30.41986	708.23297	 22.90	
 20.405	 29.165	 24.01082	 27.22552	 -3.18594	 18.91873	  2.74167	 -0.83058	 30.42371	706.92700	 22.90	
 20.397	 34.097	 24.04492	 26.34335	 -2.54738	 20.46277	  1.62804	 -1.03303	 30.41272	707.82397	 22.90	
 20.392	 38.938	 24.08798	 25.38364	 -1.83374	 21.83328	  0.66672	 -1.17826	 30.42554	706.98499	 22.90	
 20.396	 43.773	 24.09526	 24.28091	 -1.04655	 23.05829	 -0.19992	 -1.27539	 30.40087	708.44598	 22.90	
 20.408	 48.628	 24.10691	 23.09612	 -0.22102	 24.28553	 -1.08040	 -1.39750	 30.41654	708.47400	 22.90	
 20.410	 53.489	 24.10502	 21.82778	  0.66218	 25.36839	 -1.84023	 -1.51231	 30.40989	707.53699	 22.90	
 20.400	 58.396	 24.11037	 20.40842	  1.65532	 26.34055	 -2.50338	 -1.64153	 30.39593	707.35199	 22.90	
 20.403	 63.259	 24.14764	 18.95245	  2.73877	 27.20523	 -3.14210	 -1.72255	 30.42288	707.03003	 22.90	
 20.413	 68.100	 24.14475	 17.54294	  4.02115	 27.89391	 -3.65420	 -1.70862	 30.41518	708.40302	 22.90	
 20.398	 72.996	 24.15329	 16.00349	  5.18215	 28.42236	 -3.93228	 -1.34265	 30.37826	706.83600	 22.90	
 20.394	 77.868	 24.19672	 14.48848	  6.54701	 28.88696	 -4.14168	 -1.16884	 30.43913	708.46100	 22.90	
 20.403	 82.668	 24.12556	 12.92903	  7.93495	 29.12429	 -4.43781	 -1.08773	 30.38921	708.49701	 22.90	
 20.392	 87.560	 24.14444	 11.42644	  9.41165	 29.28398	 -4.55973	 -1.02226	 30.40659	708.44397	 22.90	
 20.392	 92.440	 24.14230	  9.90662	 10.91122	 29.27848	 -4.54381	 -0.97053	 30.39921	708.55298	 22.90	
 20.403	 97.332	 24.15235	  8.38409	 12.45555	 29.16990	 -4.38160	 -1.00783	 30.43078	708.40302	 22.90	
 20.394	102.132	 24.14592	  6.95605	 14.01017	 28.87193	 -4.14692	 -1.00677	 30.39757	708.44598	 22.90	
 20.398	107.004	 24.13345	  5.55239	 15.50239	 28.48033	 -4.03146	 -1.04971	 30.40843	707.16803	 22.90	
 20.413	111.900	 24.12449	  4.33678	 17.07979	 27.92380	 -3.57952	 -1.14119	 30.40236	708.05200	 22.90	
 20.403	116.741	 24.15530	  3.12266	 18.56923	 27.28320	 -3.09690	 -1.22645	 30.45117	708.54401	 22.90	
 20.400	121.604	 24.09134	  1.94602	 19.98413	 26.39981	 -2.55872	 -1.30463	 30.39369	708.39001	 22.90	
 20.410	126.511	 24.09739	  0.87950	 21.40921	 25.46210	 -1.95437	 -1.33566	 30.42278	706.91602	 22.90	
 20.408	131.372	 24.11725	 -0.07576	 22.75557	 24.41086	 -1.25909	 -1.41905	 30.45410	708.41199	 22.90	
 20.396	136.227	 24.10741	 -0.92280	 23.96456	 23.22925	 -0.44239	 -1.46290	 30.42794	707.94202	 22.90	
 20.392	141.062	 24.08829	 -1.71518	 25.07721	 22.00086	  0.42425	 -1.49949	 30.43457	708.57202	 22.90	
 20.397	145.903	 24.03896	 -2.49877	 26.08612	 20.63048	  1.46499	 -1.51892	 30.42067	708.60699	 22.90	
 20.405	150.835	 24.01973	 -3.12568	 26.99289	 19.12895	  2.58492	 -1.51936	 30.43131	708.53699	 22.90	
 20.401	155.705	 24.01145	 -3.61190	 27.75534	 17.60170	  3.67909	 -1.52859	 30.44337	708.49701	 22.90	
 20.392	160.496	 23.95288	 -4.02565	 28.30433	 16.14021	  4.89206	 -1.47755	 30.40628	708.61798	 22.90	
 20.410	165.423	 23.93576	 -4.35253	 28.81276	 14.51733	  6.22248	 -1.44935	 30.44179	708.50598	 22.90	
 20.407	170.264	 23.88777	 -4.57036	 29.11010	 12.96056	  7.58023	 -1.41449	 30.41525	708.65399	 22.90	
 20.401	175.153	 23.84308	 -4.78527	 29.28762	 11.42484	  9.03794	 -1.34647	 30.40672	708.60901	 22.90	
  0.141	 45.000	 30.46431	 16.33185	 15.97583	 15.91341	 16.46663	  0.36229	 30.41413	708.42603	 22.90	
  4.001	128.691	 30.41023	 13.60242	 18.29009	 18.45343	 13.25800	  0.25288	 30.43176	708.44397	 22.90	
  4.002	 76.995	 30.41114	 16.85948	 15.03119	 19.32521	 12.53618	  0.26075	 30.42224	708.43500	 22.90	
  4.002	 25.892	 30.41643	 19.43430	 12.43061	 17.24909	 14.65213	  0.26204	 30.43910	708.39600	 22.90	
  4.002	-25.892	 30.34074	 19.30482	 12.36847	 13.83607	 17.90021	  0.23381	 30.39460	708.39801	 22.90	
  4.002	-76.995	 30.29952	 16.73567	 14.93391	 11.79568	 19.96567	  0.20689	 30.39218	708.40601	 22.90	
  4.001	-128.691	 30.32367	 13.49536	 18.23477	 12.45258	 19.25545	  0.24046	 30.42271	708.42902	 22.90	
  4.000	180.000	 30.36036	 12.18765	 19.63238	 15.47931	 16.29334	  0.26139	 30.42499	708.36700	 22.90	
  8.000	180.000	 29.67909	  8.11594	 22.68574	 14.62872	 15.52215	 -0.21877	 30.41063	708.39301	 22.90	
  7.991	-152.370	 29.62448	  8.79689	 21.78787	 11.09920	 19.04776	 -0.21940	 30.41228	708.18701	 22.90	
  7.997	-124.550	 29.59662	 10.77316	 19.31968	  8.69318	 21.77804	 -0.28510	 30.41984	708.38501	 22.90	
  8.006	-96.837	 29.65080	 14.10382	 15.99095	  7.60239	 23.07877	 -0.36509	 30.48947	706.63702	 22.90	
  7.988	-69.228	 29.64297	 17.75956	 12.23929	  8.08482	 22.59303	 -0.41483	 30.43464	707.00299	 22.90	
  7.997	-41.563	 29.69317	 20.86908	  9.54398	  9.82935	 20.64418	 -0.32486	 30.42485	708.15601	 22.90	
  8.008	-13.821	 29.74463	 22.65824	  8.10885	 12.91779	 17.30886	 -0.27827	 30.42696	706.78601	 22.90	
  8.008	 13.821	 29.77192	 22.72062	  8.15526	 16.63587	 13.63699	 -0.22269	 30.41596	708.27502	 22.90	
  7.997	 41.563	 29.78588	 21.00864	  9.62637	 19.91562	 10.77409	 -0.18702	 30.39696	708.34399	 22.90	
  7.988	 69.228	 29.81628	 18.00308	 12.29338	 22.05899	  9.04005	 -0.20219	 30.39758	708.47699	 22.90	
  8.006	 96.837	 29.83090	 14.39016	 15.99845	 22.50342	  8.50610	 -0.26335	 30.41484	708.41998	 22.90	
  7.997	124.550	 29.80321	 11.02192	 19.46394	 21.14650	  9.59453	 -0.26033	 30.40970	708.06000	 22.90	
  7.991	152.370	 29.77626	  8.95658	 21.83880	 18.25389	 12.00980	 -0.22144	 30.43022	708.44397	 22.90	
 12.009	161.059	 28.44539	  4.23243	 24.83327	 17.17249	 10.81824	 -0.75596	 30.40376	707.57703	 22.90	
 12.013	142.081	 28.48187	  5.78366	 22.95846	 20.69019	  7.72181	 -0.77387	 30.38787	706.69897	 22.90	
 12.006	123.113	 28.56149	  8.32690	 20.15178	 23.29762	  5.59756	 -0.86720	 30.41387	706.77698	 22.90	
 12.007	104.200	 28.63308	 11.42648	 16.75828	 24.92126	  4.40151	 -0.96653	 30.43074	707.79401	 22.90	
 11.989	 85.301	 28.62255	 15.09862	 12.87453	 25.21497	  4.15030	 -0.88729	 30.40785	706.87903	 22.90	
 12.013	 66.294	 28.64199	 18.73651	  9.51198	 24.26814	  4.95155	 -0.72776	 30.43770	707.54303	 22.90	
 12.012	 47.388	 28.61829	 21.98658	  6.69717	 22.12751	  6.63909	 -0.70684	 30.44854	708.48901	 22.90	
 11.990	 28.440	 28.49531	 24.20925	  4.70147	 19.06984	  9.21754	 -0.79211	 30.37921	706.84802	 22.90	
 11.991	  9.464	 28.49219	 25.42929	  3.76410	 15.42192	 12.44477	 -0.80485	 30.41586	707.56500	 22.90	
 11.991	 -9.464	 28.45765	 25.35215	  3.72286	 11.61979	 16.12495	 -0.81252	 30.40734	706.82501	 22.90	
 11.990	-28.440	 28.41510	 24.02605	  4.63846	  8.39372	 19.82008	 -0.82935	 30.41453	708.47498	 22.90	
 12.012	-47.388	 28.37132	 21.68835	  6.60509	  5.75374	 22.75829	 -0.89329	 30.43700	708.33398	 22.90	
 12.013	-66.294	 28.28556	 18.34921	  9.38059	  3.99669	 24.85514	 -0.98852	 30.42410	708.31702	 22.90	
 11.989	-85.301	 28.23446	 14.64534	 12.75305	  3.21147	 25.72095	 -1.03267	 30.40069	708.48798	 22.90	
 12.007	-104.200	 28.20657	 10.97796	 16.61591	  3.39047	 25.42079	 -0.95638	 30.42501	708.36200	 22.90	
 12.006	-123.113	 28.21585	  7.96346	 20.02750	  4.56804	 23.87219	 -0.80433	 30.43228	707.59399	 22.90	
 12.013	-142.081	 28.23445	  5.53398	 22.89735	  6.90735	 21.28025	 -0.77571	 30.41895	708.46600	 22.90	
 12.009	-161.059	 28.30714	  4.10055	 24.79010	  9.87582	 17.96088	 -0.79024	 30.42299	708.47498	 22.90	
 16.000	180.000	 26.46380	 -0.59452	 27.64175	 11.85665	 12.64201	 -1.30525	 30.40857	708.43500	 22.90	
 15.990	-165.604	 26.40573	 -0.31236	 27.16201	  8.41136	 16.28511	 -1.27791	 30.43773	708.40601	 22.90	
 16.002	-151.165	 26.31140	  0.61929	 25.68876	  5.19269	 19.85595	 -1.29803	 30.42235	708.40997	 22.90	
 16.002	-136.836	 26.31231	  2.26129	 23.38301	  2.53672	 22.99289	 -1.23493	 30.49194	708.47699	 22.90	
 15.995	-122.439	 26.26763	  4.70924	 20.30614	  0.62202	 25.45903	 -1.18681	 30.44912	708.55603	 22.90	
 15.993	-107.966	 26.22788	  7.74431	 16.83143	 -0.61229	 27.14315	 -1.24364	 30.42696	708.38702	 22.90	
 16.005	-93.629	 26.24441	 11.06940	 13.06062	 -1.14258	 27.89130	 -1.19941	 30.41719	708.38898	 22.90	
 15.992	-79.234	 26.26303	 14.79113	  9.47872	 -0.98802	 27.68509	 -1.08004	 30.41697	708.38702	 22.90	
 16.009	-64.774	 26.32137	 18.44790	  6.22232	 -0.03875	 26.50023	 -1.09305	 30.38449	708.43500	 22.90	
 15.997	-50.364	 26.43420	 21.86590	  3.46547	  1.63874	 24.40753	 -1.03154	 30.41221	708.43799	 22.90	
 15.997	-36.045	 26.53226	 24.60524	  1.60331	  3.79891	 21.64186	 -1.04112	 30.45052	708.27802	 22.90	
 16.000	-21.597	 26.55370	 26.56380	  0.32318	  6.78906	 18.22141	 -1.10507	 30.41801	708.34802	 22.90	
 16.003	 -7.169	 26.59649	 27.66885	 -0.37791	 10.12439	 14.53534	 -1.07038	 30.44869	708.44098	 22.90	
 16.003	  7.169	 26.57396	 27.70768	 -0.40946	 13.75534	 10.90396	 -0.95555	 30.42165	708.23999	 22.90	
 16.000	 21.597	 26.65872	 26.82178	  0.30109	 17.47297	  7.66871	 -0.91856	 30.45604	708.50500	 22.90	
 15.997	 36.045	 26.71264	 24.96906	  1.65855	 20.99761	  4.76436	 -1.03280	 30.45160	708.36499	 22.90	
 15.997	 50.364	 26.74812	 22.31916	  3.56222	 23.87424	  2.61319	 -1.08093	 30.42233	708.48199	 22.90	
 16.009	 64.774	 26.77013	 19.02874	  6.33850	 26.01394	  1.09637	 -1.23238	 30.41604	708.49200	 22.90	
 15.992	 79.234	 26.79216	 15.47458	  9.58849	 27.29065	  0.20321	 -1.25832	 30.42395	708.32703	 22.90	
 16.005	 93.629	 26.78081	 11.72356	 13.17316	 27.54197	 -0.01007	 -1.27976	 30.41747	708.42999	 22.90	
 15.993	107.966	 26.79376	  8.32953	 16.94580	 26.81165	  0.47021	 -1.29201	 30.44812	708.30499	 22.90	
 15.995	122.439	 26.74495	  5.18139	 20.43883	 25.07709	  1.72922	 -1.32919	 30.43104	708.48297	 22.90	
 16.002	136.836	 26.67917	  2.66262	 23.45413	 22.50309	  3.43726	 -1.27017	 30.40319	708.50299	 22.90	
 16.002	151.165	 26.63864	  0.91618	 25.78720	 19.32412	  6.03034	 -1.23328	 30.44208	708.33301	 22.90	
 15.990	165.604	 26.58440	 -0.21782	 27.22352	 15.68950	  9.17955	 -1.26413	 30.45271	708.33099	 22.90	
 20.003	168.362	 24.14123	 -4.13955	 28.86312	 13.67130	  7.30677	 -1.43031	 30.39744	708.34698	 22.90	
 20.008	156.764	 24.26117	 -3.33732	 27.79907	 17.40312	  4.21017	 -1.50150	 30.44247	708.39502	 22.90	
 20.000	145.147	 24.30892	 -2.04523	 25.89851	 20.86510	  1.61091	 -1.49588	 30.44538	708.52002	 22.90	
 19.995	133.545	 24.35765	 -0.13173	 23.29534	 23.81889	 -0.51729	 -1.44179	 30.42572	708.38202	 22.90	
 20.009	121.926	 24.37136	  2.14471	 20.16283	 26.29479	 -2.17463	 -1.32360	 30.43526	708.53003	 22.90	
 20.005	110.327	 24.41714	  4.95332	 16.69655	 28.01539	 -3.35729	 -1.11875	 30.41706	708.49103	 22.90	
 19.989	 98.733	 24.45558	  8.22890	 13.13120	 28.95622	 -3.87512	 -1.02388	 30.42310	708.42902	 22.90	
 19.999	 87.075	 24.47181	 11.81347	  9.53529	 29.18392	 -4.13441	 -1.08067	 30.46217	708.34998	 22.90	
 19.992	 75.457	 24.46423	 15.36044	  6.18762	 28.54696	 -3.62837	 -1.23819	 30.42038	708.30298	 22.90	
 20.009	 63.844	 24.42587	 18.86032	  3.29236	 27.20142	 -2.80743	 -1.29687	 30.42912	708.38202	 22.90	
 19.989	 52.269	 24.40489	 22.16811	  0.81024	 25.05144	 -1.26205	 -1.18036	 30.41632	708.41199	 22.90	
 19.999	 40.602	 24.36858	 24.98210	 -1.20670	 22.26178	  0.65576	 -1.06704	 30.42558	708.34698	 22.90	
 20.004	 29.051	 24.27311	 27.13822	 -2.81558	 18.94638	  3.04335	 -0.95042	 30.40571	708.40601	 22.90	
 20.005	 17.433	 24.24207	 28.59723	 -3.88593	 15.43374	  5.95704	 -0.83206	 30.42813	708.43799	 22.90	
 20.006	  5.780	 24.18101	 29.30590	 -4.47975	 11.80625	  9.15278	 -0.79418	 30.45717	708.35400	 22.90	
 20.006	 -5.780	 24.14075	 29.19383	 -4.35943	  8.29400	 12.57575	 -0.86484	 30.41581	708.39801	 22.90	
 20.005	-17.433	 24.16133	 28.38989	 -3.88480	  4.98383	 16.20665	 -0.90787	 30.42696	708.34198	 22.90	
 20.004	-29.051	 24.10119	 26.76563	 -2.82813	  2.09211	 19.70625	 -0.92186	 30.38633	708.34399	 22.90	
 19.999	-40.602	 24.09564	 24.51591	 -1.36342	 -0.30899	 22.85716	 -0.90413	 30.43332	708.34003	 22.90	
 19.989	-52.269	 24.03004	 21.57320	  0.64063	 -2.29332	 25.55931	 -0.89652	 30.42973	708.31897	 22.90	
 20.009	-63.844	 23.96009	 18.19482	  3.08622	 -3.80760	 27.55291	 -0.86075	 30.40194	708.37299	 22.90	
 19.992	-75.457	 23.92278	 14.65738	  6.00342	 -4.64769	 28.87329	 -0.81977	 30.44804	708.40601	 22.90	
 19.999	-87.075	 23.78019	 11.00027	  9.38015	 -5.16071	 29.36645	 -0.79432	 30.40954	708.48798	 22.90	
 19.989	-98.733	 23.74690	  7.49952	 12.94495	 -5.00620	 29.17952	 -0.80606	 30.43034	708.41302	 22.90	
 20.005	-110.327	 23.79802	  4.37086	 16.55839	 -4.36123	 28.26219	 -1.17719	 30.45144	708.38098	 22.90	
 20.009	-121.926	 23.80851	  1.69948	 19.99943	 -3.04044	 26.54527	 -1.32727	 30.45005	708.38202	 22.90	
 19.995	-133.545	 23.80120	 -0.53865	 23.10531	 -1.30893	 24.11477	 -1.37712	 30.40728	708.47198	 22.90	
 20.000	-145.147	 23.84831	 -2.23645	 25.71782	  0.77634	 21.28331	 -1.31430	 30.43429	708.43799	 22.90	
 20.008	-156.764	 23.93631	 -3.48983	 27.65117	  3.42435	 17.86661	 -1.19628	 30.41855	708.42999	 22.90	
 20.003	-168.362	 24.00999	 -4.19171	 28.82162	  6.57914	 14.34529	 -1.19532	 30.41571	708.32300	 22.90	
 20.000	180.000	 24.09058	 -4.38492	 29.22330	 10.06578	 10.78835	 -1.19854	 30.41876	708.41302	 22.90	
