FileType=PCF
NHL=14
Date=08/30/17	13:32:38
Facility=APL
Serial=16328-19
Customer=NASA
NP=6
Mach=0.250000
Calibration=1:1
CalPts=490
TstPts=95
PortNumbering=AP Standard
Units=Torr C m/s kg/m^3 deg mm 
Theta[deg]	Phi[deg]	P1[Torr]	P2[Torr]	P3[Torr]	P4[Torr]	P5[Torr]	P6[Torr]	Pt[Torr]	Ps[Abs,Torr]	Ts[C]	
  0.000	  0.000	 30.33425	 15.79087	 16.06150	 15.79634	 16.55832	  0.34433	 30.28457	704.83197	 23.40	
  1.691	128.401	 30.30387	 14.79798	 16.95862	 16.87872	 15.19755	  0.32172	 30.25900	704.88397	 23.40	
  1.692	 77.194	 30.34942	 16.11924	 15.69913	 17.18748	 14.92969	  0.33811	 30.30319	704.89398	 23.40	
  1.699	 26.182	 30.27378	 17.20317	 14.64443	 16.35692	 15.70388	  0.34207	 30.23018	704.72101	 23.40	
  1.699	-26.182	 30.33307	 17.20341	 14.67903	 15.07568	 17.20421	  0.31992	 30.28885	704.77002	 23.40	
  1.692	-77.194	 30.29653	 16.05834	 15.66357	 14.27075	 18.00249	  0.31444	 30.25865	704.69501	 23.40	
  1.691	-128.401	 30.31431	 14.77108	 16.94239	 14.55922	 17.69974	  0.31395	 30.27472	704.80798	 23.40	
  1.700	180.000	 30.31970	 14.18334	 17.56488	 15.73899	 16.47024	  0.32528	 30.27644	704.76202	 23.40	
  3.400	180.000	 30.24509	 12.50828	 18.90346	 15.57887	 16.25659	  0.27113	 30.26930	704.77399	 23.40	
  3.388	-152.325	 30.24035	 12.83635	 18.59107	 14.18420	 17.77275	  0.26848	 30.28689	704.77399	 23.40	
  3.397	-124.529	 30.25490	 13.81728	 17.64821	 13.09757	 18.88540	  0.25513	 30.31570	704.65900	 23.40	
  3.399	-96.763	 30.26676	 15.22429	 16.21972	 12.59173	 19.42398	  0.23209	 30.31179	704.83502	 23.40	
  3.394	-69.283	 30.22421	 16.69100	 14.81286	 12.74308	 19.22652	  0.23405	 30.26012	704.76599	 23.40	
  3.400	-41.398	 30.24350	 17.98135	 13.60522	 13.58079	 18.40937	  0.24713	 30.26421	704.72101	 23.40	
  3.401	-14.021	 30.26149	 18.68543	 12.93169	 14.85285	 17.11604	  0.26274	 30.26114	704.79901	 23.40	
  3.401	 14.021	 30.26938	 18.72388	 12.92796	 16.30242	 15.50572	  0.27592	 30.25578	704.79700	 23.40	
  3.400	 41.398	 30.26777	 18.05809	 13.60018	 17.62789	 14.21873	  0.28544	 30.24298	704.81500	 23.40	
  3.394	 69.283	 30.26026	 16.81816	 14.79548	 18.50921	 13.39917	  0.29006	 30.23143	704.83197	 23.40	
  3.399	 96.763	 30.29304	 15.31875	 16.18314	 18.69615	 13.25306	  0.28769	 30.27870	704.80499	 23.30	
  3.397	124.529	 30.24907	 13.89050	 17.61678	 18.13698	 13.72995	  0.28416	 30.22951	704.73901	 23.40	
  3.388	152.325	 30.23254	 12.89892	 18.58748	 16.94440	 14.80175	  0.28945	 30.23407	704.78802	 23.40	
  5.099	161.165	 30.09458	 10.84739	 20.07743	 16.76591	 14.51464	  0.11198	 30.26501	704.79102	 23.30	
  5.109	142.013	 30.09023	 11.74399	 19.28006	 18.14220	 13.16397	  0.16517	 30.23559	704.80798	 23.30	
  5.095	123.033	 30.14645	 12.94737	 18.21877	 19.28696	 12.26189	  0.13959	 30.26372	704.75098	 23.30	
  5.105	104.191	 30.12244	 14.33438	 16.80932	 19.99434	 11.64621	  0.13317	 30.22029	704.83899	 23.30	
  5.093	 85.207	 30.15349	 15.84046	 15.28158	 20.12027	 11.51724	  0.10387	 30.24150	704.82898	 23.30	
  5.104	 66.290	 30.17619	 17.44004	 13.85061	 19.73487	 11.89399	  0.20219	 30.25841	704.81299	 23.30	
  5.094	 47.331	 30.17305	 18.69856	 12.59052	 18.83223	 12.72599	  0.19389	 30.26621	704.87201	 23.30	
  5.089	 28.397	 30.14723	 19.56764	 11.66445	 17.54109	 13.86642	  0.10741	 30.25294	704.86102	 23.30	
  5.096	  9.576	 30.13379	 20.07259	 11.11673	 16.09863	 15.24913	  0.17266	 30.25035	704.87000	 23.30	
  5.096	 -9.576	 30.09704	 20.04334	 11.09233	 14.59921	 16.86965	  0.16075	 30.23489	704.89099	 23.30	
  5.089	-28.397	 30.05302	 19.46333	 11.58892	 13.17911	 18.29303	  0.05861	 30.21000	704.84998	 23.30	
  5.094	-47.331	 30.06187	 18.56990	 12.52726	 11.97130	 19.49679	  0.07227	 30.24374	704.89099	 23.30	
  5.104	-66.290	 30.01778	 17.24052	 13.80399	 11.07295	 20.24476	  0.02639	 30.23233	704.71100	 23.30	
  5.093	-85.207	 30.00841	 15.72092	 15.23222	 10.71699	 20.65817	  0.08933	 30.24510	704.82098	 23.30	
  5.105	-104.191	 30.01494	 14.18619	 16.65300	 10.90380	 20.52416	  0.04379	 30.25837	704.77600	 23.30	
  5.095	-123.033	 29.97995	 12.79370	 18.10389	 11.50210	 19.90391	  0.07546	 30.22707	704.89398	 23.30	
  5.109	-142.013	 30.01360	 11.65005	 19.27524	 12.53306	 18.91237	  0.10495	 30.25738	704.83801	 23.30	
  5.099	-161.165	 30.04262	 10.78959	 20.09181	 13.88860	 17.56147	  0.09177	 30.26051	704.76202	 23.30	
  5.100	180.000	 30.08819	 10.58976	 20.36682	 15.32200	 16.01837	  0.13074	 30.27828	704.90002	 23.30	
  6.800	180.000	 29.77861	  8.94186	 21.69047	 14.98230	 15.65559	 -0.06247	 30.25434	704.86700	 23.30	
  6.796	-166.229	 29.69068	  9.05110	 21.46712	 13.50666	 17.17603	 -0.08562	 30.19984	704.88397	 23.30	
  6.808	-152.311	 29.69462	  9.50806	 20.93900	 12.11968	 18.62504	 -0.08006	 30.22962	704.85999	 23.30	
  6.795	-138.383	 29.65427	 10.20274	 19.99831	 10.80274	 19.83936	 -0.09647	 30.20422	704.95001	 23.30	
  6.792	-124.591	 29.68292	 11.29602	 18.77545	  9.81609	 20.82996	 -0.12114	 30.25069	704.83899	 23.30	
  6.787	-110.754	 29.66994	 12.74091	 17.46395	  9.24914	 21.55950	 -0.15148	 30.24143	704.88599	 23.30	
  6.800	-96.985	 29.64660	 14.17850	 15.98275	  8.96505	 21.92966	 -0.19702	 30.20889	704.89502	 23.30	
  6.800	-83.015	 29.71133	 15.72028	 14.58315	  8.96706	 21.96797	 -0.20565	 30.24480	704.90601	 23.30	
  6.787	-69.246	 29.71824	 17.23771	 13.14035	  9.23370	 21.60468	 -0.20098	 30.23615	704.83502	 23.30	
  6.792	-55.409	 29.73011	 18.59564	 11.80341	  9.83114	 20.88968	 -0.17581	 30.22236	704.94501	 23.30	
  6.795	-41.617	 29.79727	 19.75164	 10.69129	 10.84170	 19.93215	 -0.15197	 30.25453	704.90002	 23.30	
  6.808	-27.689	 29.79716	 20.66810	  9.80366	 12.14867	 18.69203	 -0.12078	 30.22426	705.01001	 23.30	
  6.796	-13.771	 29.84403	 21.27517	  9.39705	 13.59307	 17.29067	 -0.09891	 30.24249	704.93103	 23.30	
  6.800	  0.000	 29.85172	 21.48246	  9.23036	 15.04720	 15.68737	 -0.07655	 30.23241	704.90802	 23.30	
  6.796	 13.771	 29.89942	 21.32947	  9.38002	 16.48542	 14.23681	 -0.06811	 30.25192	704.92902	 23.30	
  6.808	 27.689	 29.87433	 20.76454	  9.78646	 17.91351	 12.84485	 -0.05533	 30.21168	704.76202	 23.20	
  6.795	 41.617	 29.91083	 19.88946	 10.63450	 19.20894	 11.44154	 -0.03933	 30.23420	704.79102	 23.20	
  6.792	 55.409	 29.88368	 18.79122	 11.79760	 20.28629	 10.57423	 -0.02935	 30.19001	704.82202	 23.20	
  6.787	 69.246	 29.93533	 17.48854	 13.17224	 21.08547	  9.98061	 -0.04795	 30.23769	704.89502	 23.20	
  6.800	 83.015	 29.90449	 15.94455	 14.56856	 21.45827	  9.69556	 -0.05714	 30.21944	704.86401	 23.20	
  6.800	 96.985	 29.87103	 14.43192	 15.96721	 21.45235	  9.67774	 -0.06305	 30.19628	704.78400	 23.20	
  6.787	110.754	 29.84465	 12.96823	 17.54496	 21.05403	  9.98970	 -0.06319	 30.18570	704.92603	 23.20	
  6.792	124.591	 29.85973	 11.52324	 18.85428	 20.30482	 10.59390	 -0.05144	 30.22274	704.89398	 23.20	
  6.795	138.383	 29.86499	 10.37496	 20.01524	 19.18925	 11.40491	 -0.03362	 30.25557	704.77698	 23.20	
  6.808	152.311	 29.80896	  9.61749	 20.93289	 17.84082	 12.80314	 -0.03719	 30.22386	704.86902	 23.20	
  6.796	166.229	 29.77500	  9.11385	 21.48754	 16.39963	 14.17252	 -0.04067	 30.21868	704.93701	 23.20	
  8.491	168.704	 29.40079	  7.34259	 22.77944	 16.07991	 13.75398	 -0.24470	 30.23895	704.84698	 23.20	
  8.502	157.493	 29.42593	  7.74381	 22.31843	 17.53060	 12.08380	 -0.25287	 30.23450	704.87201	 23.20	
  8.494	146.194	 29.40449	  8.38667	 21.52383	 18.93232	 10.85546	 -0.24357	 30.17806	704.78802	 23.20	
  8.495	135.039	 29.47596	  9.27157	 20.55234	 20.26073	  9.83880	 -0.28219	 30.21630	704.75702	 23.20	
  8.487	123.723	 29.50829	 10.32514	 19.26132	 21.33567	  9.01376	 -0.28891	 30.22855	704.94598	 23.20	
  8.492	112.575	 29.54284	 11.66884	 17.96740	 22.09894	  8.44569	 -0.29952	 30.23835	704.87799	 23.20	
  8.510	101.220	 29.58205	 13.31091	 16.50601	 22.60548	  8.09409	 -0.31295	 30.24969	704.93103	 23.20	
  8.500	 90.000	 29.57313	 14.84476	 14.96422	 22.73012	  7.97937	 -0.29965	 30.23276	704.82397	 23.20	
  8.510	 78.780	 29.60044	 16.35389	 13.46446	 22.59235	  8.08877	 -0.27942	 30.24477	704.87701	 23.20	
  8.492	 67.425	 29.57143	 17.91244	 11.97480	 22.08233	  8.45219	 -0.24033	 30.21003	704.96503	 23.20	
  8.487	 56.277	 29.58647	 19.25716	 10.59548	 21.34533	  9.05501	 -0.22710	 30.23093	704.79700	 23.20	
  8.495	 44.961	 29.55456	 20.39654	  9.44767	 20.28249	  9.90018	 -0.23428	 30.21591	704.96002	 23.20	
  8.494	 33.806	 29.53337	 21.39697	  8.63395	 19.00638	 10.89230	 -0.26914	 30.20052	704.93402	 23.20	
  8.502	 22.507	 29.51134	 22.13436	  8.02258	 17.60669	 12.24228	 -0.29987	 30.19579	704.98199	 23.20	
  8.491	 11.296	 29.49428	 22.55491	  7.68937	 16.13980	 13.76056	 -0.31904	 30.20404	704.85303	 23.20	
  8.500	  0.000	 29.46338	 22.69441	  7.56368	 14.66019	 15.27553	 -0.32389	 30.19510	704.88000	 23.20	
  8.491	-11.296	 29.45719	 22.53934	  7.69422	 13.13958	 16.92468	 -0.31699	 30.22630	704.76599	 23.20	
  8.502	-22.507	 29.42760	 22.06251	  8.04644	 11.62425	 18.38872	 -0.33936	 30.22345	704.74902	 23.10	
  8.494	-33.806	 29.39609	 21.25569	  8.66241	 10.23760	 19.73757	 -0.36734	 30.21349	704.83502	 23.20	
  8.495	-44.961	 29.38844	 20.21213	  9.44897	  9.14304	 20.90723	 -0.39549	 30.24755	704.83899	 23.10	
  8.487	-56.277	 29.34230	 19.02329	 10.48932	  8.30761	 21.88350	 -0.42535	 30.22018	704.78198	 23.10	
  8.492	-67.425	 29.30508	 17.64896	 11.89495	  7.71024	 22.58245	 -0.44402	 30.20574	704.88702	 23.10	
  8.510	-78.780	 29.28573	 16.07701	 13.38906	  7.35677	 23.04016	 -0.45696	 30.21863	704.94000	 23.10	
  8.500	-90.000	 29.27203	 14.56963	 14.89101	  7.28328	 23.17484	 -0.46628	 30.23364	704.84399	 23.10	
  8.510	-101.220	 29.22908	 12.99373	 16.30700	  7.37629	 22.99292	 -0.42113	 30.20109	704.88000	 23.10	
  8.492	-112.575	 29.22790	 11.31113	 17.76280	  7.73142	 22.51310	 -0.37012	 30.20468	704.75098	 23.10	
  8.487	-123.723	 29.24417	 10.10948	 19.17801	  8.31423	 21.79172	 -0.32224	 30.23135	704.75098	 23.10	
  8.495	-135.039	 29.26290	  9.09736	 20.51924	  9.10822	 20.77353	 -0.29646	 30.23670	704.81097	 23.10	
  8.494	-146.194	 29.24619	  8.25177	 21.52716	 10.16818	 19.63483	 -0.28014	 30.20812	704.97699	 23.10	
  8.502	-157.493	 29.28419	  7.62465	 22.29757	 11.56077	 18.29423	 -0.27131	 30.22596	704.82397	 23.10	
  8.491	-168.704	 29.36088	  7.30508	 22.79347	 13.05749	 16.85587	 -0.27089	 30.25992	704.84399	 23.10	
  8.500	180.000	 29.34064	  7.16089	 22.92575	 14.56408	 15.24083	 -0.27680	 30.22061	704.94800	 23.10	
 10.200	180.000	 28.83654	  5.33811	 24.12528	 14.08705	 14.73926	 -0.51740	 30.22607	704.83502	 23.10	
 10.191	-170.497	 28.79827	  5.43790	 23.97701	 12.52899	 16.26684	 -0.53131	 30.22373	704.83197	 23.10	
 10.210	-161.034	 28.71486	  5.70842	 23.55072	 10.96344	 17.82818	 -0.51932	 30.17178	704.89203	 23.10	
 10.194	-151.526	 28.76363	  6.23944	 22.92950	  9.60028	 19.31589	 -0.51440	 30.25344	704.84198	 23.10	
 10.190	-142.105	 28.68562	  6.92969	 21.96960	  8.44065	 20.55709	 -0.50413	 30.19708	704.87500	 23.10	
 10.215	-132.646	 28.67414	  7.81774	 20.88264	  7.48842	 21.69605	 -0.53563	 30.21475	704.93103	 23.10	
 10.203	-123.092	 28.64492	  8.90435	 19.51713	  6.64638	 22.68012	 -0.56605	 30.18277	704.93103	 23.10	
 10.192	-113.678	 28.66272	 10.10979	 18.08536	  6.05362	 23.46488	 -0.61594	 30.20903	704.86102	 23.10	
 10.208	-104.249	 28.67397	 11.44358	 16.61575	  5.63841	 24.04874	 -0.68013	 30.20763	704.93103	 23.10	
 10.210	-94.801	 28.68082	 13.16728	 15.17771	  5.42735	 24.34456	 -0.72783	 30.21455	704.97400	 23.10	
 10.210	-85.199	 28.71731	 14.82784	 13.62028	  5.41498	 24.38133	 -0.74233	 30.23269	704.86700	 23.10	
 10.208	-75.751	 28.73144	 16.34333	 12.04001	  5.60030	 24.11557	 -0.75179	 30.21272	704.84998	 23.10	
 10.192	-66.322	 28.78235	 17.92680	 10.57285	  6.04084	 23.58704	 -0.73619	 30.21386	704.83197	 23.10	
 10.203	-56.908	 28.76960	 19.29092	  9.33841	  6.62325	 22.79815	 -0.69738	 30.18192	704.78198	 23.10	
 10.215	-47.354	 28.83624	 20.56848	  8.26331	  7.43908	 21.87160	 -0.65848	 30.21521	704.88300	 23.10	
 10.190	-37.895	 28.88045	 21.71968	  7.37383	  8.46285	 20.65092	 -0.61940	 30.21860	704.75403	 23.10	
 10.194	-28.474	 28.88875	 22.61789	  6.68215	  9.62748	 19.41892	 -0.57321	 30.20107	704.73700	 23.10	
 10.210	-18.966	 28.95313	 23.34020	  6.16727	 11.06432	 18.00521	 -0.56422	 30.23429	704.77301	 23.10	
 10.191	 -9.503	 28.95605	 23.75020	  5.87642	 12.58736	 16.40473	 -0.54270	 30.20149	704.94000	 23.10	
 10.200	  0.000	 29.00101	 23.93555	  5.77767	 14.15845	 14.84158	 -0.55841	 30.20901	704.82397	 23.10	
 10.191	  9.503	 29.05817	 23.83798	  5.88534	 15.71870	 13.21534	 -0.56424	 30.25270	704.78198	 23.10	
 10.210	 18.966	 29.02021	 23.42015	  6.16815	 17.17120	 11.62530	 -0.55706	 30.19604	704.83002	 23.10	
 10.194	 28.474	 29.05951	 22.77274	  6.67775	 18.66328	 10.35965	 -0.52249	 30.20661	704.79602	 23.10	
 10.190	 37.895	 29.08610	 21.94040	  7.38812	 20.05141	  9.20485	 -0.48267	 30.21622	704.73401	 23.10	
 10.215	 47.354	 29.08054	 20.84223	  8.26891	 21.28605	  8.16610	 -0.45628	 30.21427	704.82202	 23.10	
 10.203	 56.908	 29.12827	 19.63724	  9.33451	 22.31522	  7.37382	 -0.43865	 30.23612	704.67297	 23.10	
 10.192	 66.322	 29.12701	 18.27826	 10.63904	 23.10121	  6.74904	 -0.46648	 30.23070	704.65503	 23.10	
 10.208	 75.751	 29.11173	 16.70086	 12.12424	 23.66509	  6.29134	 -0.50694	 30.21600	704.67200	 23.10	
 10.210	 85.199	 29.12712	 15.21687	 13.68984	 23.95598	  6.12199	 -0.55595	 30.22738	704.67499	 23.10	
 10.210	 94.801	 29.12097	 13.62061	 15.23321	 23.95875	  6.12380	 -0.58541	 30.24280	704.76599	 23.10	
 10.208	104.249	 29.09379	 11.90603	 16.73851	 23.67668	  6.30913	 -0.58797	 30.23348	704.64398	 23.10	
 10.192	113.678	 29.06713	 10.47820	 18.22766	 23.10037	  6.73523	 -0.56341	 30.22659	704.78497	 23.10	
 10.203	123.092	 29.04653	  9.25905	 19.58005	 22.31849	  7.33234	 -0.53769	 30.23243	704.71100	 23.00	
 10.215	132.646	 28.99534	  8.10581	 20.92106	 21.27560	  8.16676	 -0.50030	 30.21632	704.76599	 23.10	
 10.190	142.105	 28.92694	  7.14089	 21.97603	 19.99155	  9.15233	 -0.47530	 30.16826	704.82703	 23.10	
 10.194	151.526	 28.93684	  6.39190	 22.91007	 18.62230	 10.28736	 -0.46476	 30.21632	704.69800	 23.00	
 10.210	161.034	 28.91686	  5.84633	 23.60331	 17.12864	 11.54316	 -0.46344	 30.22586	704.67499	 23.00	
 10.191	170.497	 28.88386	  5.50852	 23.98901	 15.64490	 13.18057	 -0.48419	 30.22478	704.86902	 23.00	
 11.899	171.783	 28.24361	  3.64792	 25.10515	 15.11893	 12.39216	 -0.72157	 30.21754	704.82202	 23.00	
 11.890	163.610	 28.28952	  3.95928	 24.75730	 16.62618	 11.01153	 -0.70044	 30.21585	704.72900	 23.00	
 11.889	155.445	 28.31757	  4.42809	 24.17256	 18.15910	  9.71254	 -0.69302	 30.21689	704.87701	 23.00	
 11.909	147.299	 28.32802	  5.05499	 23.37644	 19.62554	  8.47658	 -0.68914	 30.19773	704.82898	 23.00	
 11.902	139.148	 28.38820	  5.88759	 22.40097	 20.99154	  7.39927	 -0.70082	 30.23204	704.76001	 23.00	
 11.894	130.867	 28.41689	  6.90187	 21.19765	 22.17255	  6.42271	 -0.72609	 30.21498	706.41498	 23.00	
 11.897	122.732	 28.43713	  8.03851	 19.86353	 23.16898	  5.60724	 -0.77032	 30.20351	706.24500	 23.00	
 11.903	114.597	 28.47977	  9.30838	 18.48050	 23.99752	  4.97692	 -0.82954	 30.21983	704.72601	 23.00	
 11.893	106.346	 28.50068	 10.62978	 16.97169	 24.58894	  4.54877	 -0.85777	 30.20718	704.65802	 23.00	
 11.892	 98.155	 28.51284	 12.12673	 15.43189	 24.94577	  4.30874	 -0.86386	 30.19863	704.80701	 23.00	
 11.900	 90.000	 28.53773	 13.84416	 13.92826	 25.06498	  4.19285	 -0.83956	 30.21165	704.77399	 23.00	
 11.892	 81.845	 28.57264	 15.46437	 12.37699	 24.95691	  4.28986	 -0.77398	 30.22810	704.88000	 23.00	
 11.893	 73.654	 28.56140	 16.96700	 10.76819	 24.57681	  4.57993	 -0.69432	 30.21132	704.84399	 23.00	
 11.903	 65.403	 28.54766	 18.54962	  9.36470	 23.96667	  5.05311	 -0.65745	 30.20033	704.86902	 23.00	
 11.897	 57.268	 28.56347	 19.86365	  8.21546	 23.16659	  5.69340	 -0.64928	 30.22566	704.73499	 23.00	
 11.894	 49.133	 28.53168	 21.16288	  7.13262	 22.13830	  6.50846	 -0.66047	 30.20654	704.78497	 23.00	
 11.902	 40.852	 28.52363	 22.32553	  6.15996	 20.95556	  7.47538	 -0.70557	 30.20942	704.88702	 23.00	
 11.909	 32.701	 28.47803	 23.27075	  5.34167	 19.62864	  8.55226	 -0.75499	 30.20160	704.90900	 23.00	
 11.889	 24.555	 28.46606	 24.05191	  4.75489	 18.17456	  9.80727	 -0.78640	 30.20603	704.78400	 23.00	
 11.890	 16.390	 28.45374	 24.60736	  4.33533	 16.65763	 11.11354	 -0.80740	 30.21116	704.73700	 23.00	
 11.899	  8.217	 28.43578	 24.95716	  4.08916	 15.18434	 12.55578	 -0.79155	 30.21860	704.82202	 23.00	
 11.900	  0.000	 28.38333	 25.03187	  3.98471	 13.62453	 14.23259	 -0.77781	 30.18439	704.79303	 23.00	
 11.899	 -8.217	 28.40309	 24.93187	  4.06948	 12.03533	 15.86269	 -0.77621	 30.24416	704.84698	 23.00	
 11.890	-16.390	 28.34285	 24.50869	  4.32256	 10.48459	 17.46209	 -0.80060	 30.20643	705.24103	 23.00	
 11.889	-24.555	 28.30910	 23.90144	  4.74470	  9.08691	 18.94232	 -0.82085	 30.20563	704.87000	 23.00	
 11.909	-32.701	 28.27836	 23.09211	  5.29490	  7.85909	 20.28627	 -0.82498	 30.22128	704.79303	 23.00	
 11.902	-40.852	 28.27464	 22.08962	  6.07752	  6.77721	 21.55053	 -0.82713	 30.23715	704.80103	 23.00	
 11.894	-49.133	 28.19739	 20.82626	  7.04420	  5.77496	 22.66376	 -0.87348	 30.19377	704.85199	 23.00	
 11.897	-57.268	 28.17654	 19.55751	  8.14840	  4.99198	 23.65991	 -0.91439	 30.20176	704.95398	 23.00	
 11.903	-65.403	 28.14569	 18.18507	  9.33555	  4.37334	 24.44645	 -0.96341	 30.20708	704.95398	 23.00	
 11.893	-73.654	 28.11203	 16.57113	 10.67781	  3.96938	 24.99149	 -0.97825	 30.19858	704.93103	 23.00	
 11.892	-81.845	 28.07590	 15.01958	 12.23268	  3.71553	 25.30978	 -1.00553	 30.19295	705.03198	 23.00	
 11.900	-90.000	 28.09379	 13.42376	 13.86947	  3.64037	 25.44919	 -0.99163	 30.23752	704.90601	 23.00	
 11.892	-98.155	 28.06036	 11.68812	 15.41090	  3.76219	 25.29848	 -0.94432	 30.21646	704.99799	 23.00	
 11.893	-106.346	 28.07728	 10.26474	 16.86269	  3.99455	 24.95653	 -0.88663	 30.26275	704.96002	 23.00	
 11.903	-114.597	 28.03995	  8.93173	 18.34759	  4.38939	 24.35368	 -0.82920	 30.24466	704.84601	 23.00	
 11.897	-122.732	 27.99936	  7.69254	 19.77255	  4.99704	 23.50140	 -0.75851	 30.20185	704.96002	 23.00	
 11.894	-130.867	 28.03438	  6.61046	 21.12312	  5.80669	 22.53678	 -0.73089	 30.21462	704.95599	 23.00	
 11.902	-139.148	 28.01482	  5.62948	 22.31173	  6.73445	 21.33428	 -0.73696	 30.18346	704.91498	 23.00	
 11.909	-147.299	 28.06969	  4.86213	 23.33862	  7.82413	 20.18557	 -0.73418	 30.21746	704.81097	 23.00	
 11.889	-155.445	 28.11700	  4.27947	 24.15231	  9.04316	 18.81725	 -0.75225	 30.23626	704.87000	 23.00	
 11.890	-163.610	 28.11915	  3.85474	 24.71797	 10.41253	 17.28969	 -0.78278	 30.19533	704.82898	 23.00	
 11.899	-171.783	 28.16196	  3.56080	 25.09657	 11.94188	 15.68785	 -0.78816	 30.21396	704.85999	 23.00	
 11.900	180.000	 28.18833	  3.49628	 25.21324	 13.56244	 14.10340	 -0.74972	 30.19765	704.92902	 23.00	
 13.600	180.000	 27.46620	  1.65464	 26.23009	 12.83695	 13.28923	 -0.99231	 30.22138	704.96002	 23.00	
 13.608	-172.853	 27.39540	  1.70630	 26.12023	 11.26821	 14.95420	 -1.00707	 30.20351	704.94000	 23.00	
 13.611	-165.583	 27.36360	  1.90449	 25.79298	  9.80118	 16.57397	 -1.02370	 30.18657	704.84601	 23.00	
 13.601	-158.353	 27.36270	  2.25424	 25.27262	  8.43438	 18.19142	 -1.00433	 30.21551	704.73499	 23.00	
 13.609	-151.210	 27.31697	  2.74237	 24.54336	  7.17555	 19.62387	 -0.97750	 30.20249	704.86700	 23.00	
 13.611	-143.999	 27.26263	  3.41178	 23.61699	  6.00056	 20.83898	 -0.95549	 30.17308	704.81897	 23.00	
 13.601	-136.825	 27.26740	  4.28354	 22.54400	  4.94920	 22.12968	 -0.93401	 30.20211	704.82703	 23.00	
 13.596	-129.640	 27.27339	  5.28924	 21.32817	  4.06107	 23.29855	 -0.91955	 30.23641	704.72601	 23.00	
 13.611	-122.431	 27.23319	  6.38609	 19.95217	  3.29908	 24.27750	 -0.96014	 30.20234	704.88702	 23.00	
 13.604	-115.211	 27.24500	  7.61876	 18.50617	  2.72241	 25.07500	 -1.02115	 30.20894	704.85199	 23.00	
 13.595	-108.042	 27.27678	  8.93446	 17.03336	  2.29614	 25.71532	 -1.07704	 30.22800	704.76001	 23.00	
 13.607	-100.793	 27.31034	 10.31691	 15.60139	  1.98766	 26.19956	 -1.13058	 30.24876	704.81097	 23.00	
 13.601	-93.617	 27.30613	 11.77295	 14.02748	  1.85489	 26.44213	 -1.15390	 30.22837	704.86401	 23.00	
 13.601	-86.383	 27.31892	 13.48556	 12.39120	  1.80212	 26.44724	 -1.13181	 30.22340	704.81897	 23.00	
 13.607	-79.207	 27.35645	 15.15006	 10.79841	  1.96820	 26.27127	 -1.13150	 30.22931	704.80798	 23.00	
 13.595	-71.958	 27.37217	 16.67954	  9.41440	  2.24137	 25.82631	 -1.12167	 30.20788	704.84198	 23.00	
 13.604	-64.789	 27.38432	 18.25034	  8.09585	  2.67131	 25.23352	 -1.12018	 30.19616	704.83899	 23.00	
 13.611	-57.569	 27.43834	 19.64990	  6.89249	  3.25856	 24.46607	 -1.09187	 30.22713	704.92603	 23.00	
 13.596	-50.360	 27.46212	 20.98156	  5.77328	  4.03098	 23.48819	 -1.05008	 30.20261	704.93103	 23.00	
 13.601	-43.175	 27.51129	 22.25191	  4.79349	  4.96475	 22.37136	 -1.03333	 30.22338	704.79901	 23.00	
 13.611	-36.001	 27.54836	 23.36679	  3.95517	  6.04507	 21.08890	 -1.00095	 30.22245	705.49200	 22.90	
 13.609	-28.790	 27.55922	 24.29935	  3.29090	  7.21275	 19.80345	 -1.00550	 30.19867	704.77301	 23.00	
 13.601	-21.647	 27.61093	 25.05279	  2.84117	  8.47606	 18.40120	 -1.00000	 30.20763	704.78198	 22.90	
 13.611	-14.417	 27.64537	 25.59273	  2.49779	  9.87396	 16.80592	 -0.99509	 30.19985	704.88000	 22.90	
 13.608	 -7.147	 27.67247	 25.92706	  2.30052	 11.39324	 15.18306	 -0.96707	 30.19862	704.90802	 22.90	
 13.600	  0.000	 27.71287	 26.06738	  2.23471	 12.97879	 13.51214	 -0.98178	 30.20755	704.81598	 22.90	
 13.608	  7.147	 27.71777	 25.98496	  2.29995	 14.55673	 11.96927	 -0.98784	 30.20293	704.81598	 22.90	
 13.611	 14.417	 27.74520	 25.70996	  2.49103	 16.05412	 10.54472	 -0.99583	 30.20932	704.79602	 22.90	
 13.601	 21.647	 27.76780	 25.20625	  2.84835	 17.59535	  9.18192	 -1.00389	 30.20514	704.93201	 22.90	
 13.609	 28.790	 27.79834	 24.52585	  3.34782	 19.09897	  7.88908	 -0.99362	 30.21577	704.90302	 22.90	
 13.611	 36.001	 27.81103	 23.64008	  4.02987	 20.49868	  6.70817	 -0.92970	 30.20959	706.19000	 22.90	
 13.601	 43.175	 27.85233	 22.62008	  4.86666	 21.80484	  5.64792	 -0.87439	 30.22795	704.82703	 22.90	
 13.596	 50.360	 27.84256	 21.40573	  5.83728	 22.95455	  4.68463	 -0.85292	 30.20876	704.94501	 22.90	
 13.611	 57.569	 27.81032	 20.04263	  6.92614	 23.93851	  3.87387	 -0.83559	 30.17121	704.87500	 22.90	
 13.604	 64.789	 27.86188	 18.66717	  8.14007	 24.80392	  3.28042	 -0.85099	 30.21469	704.79602	 22.90	
 13.595	 71.958	 27.86508	 17.15897	  9.39483	 25.41369	  2.86803	 -0.91211	 30.19181	704.83801	 22.90	
 13.607	 79.207	 27.85618	 15.65051	 10.82556	 25.84382	  2.56836	 -0.95902	 30.19637	704.90100	 22.90	
 13.601	 86.383	 27.85042	 14.04505	 12.45280	 26.06388	  2.37426	 -1.02222	 30.20856	704.79602	 22.90	
 13.601	 93.617	 27.84741	 12.29806	 14.06341	 26.06957	  2.42106	 -1.08363	 30.20819	704.76599	 22.90	
 13.607	100.793	 27.80465	 10.79781	 15.54503	 25.84511	  2.55994	 -1.07712	 30.18023	704.73401	 22.90	
 13.595	108.042	 27.79763	  9.42673	 17.09049	 25.42636	  2.84357	 -1.06400	 30.19093	704.75403	 22.90	
 13.604	115.211	 27.80953	  8.08589	 18.58641	 24.84397	  3.26001	 -1.05109	 30.24027	704.76202	 22.90	
 13.611	122.431	 27.75864	  6.80594	 20.04404	 23.99999	  3.85490	 -1.00673	 30.22225	704.69397	 22.90	
 13.596	129.640	 27.71154	  5.67736	 21.37601	 22.95667	  4.62800	 -0.95193	 30.18675	705.06598	 22.90	
 13.601	136.825	 27.74834	  4.66883	 22.65028	 21.83818	  5.57019	 -0.90992	 30.26078	704.90002	 22.90	
 13.611	143.999	 27.67632	  3.76946	 23.70498	 20.53605	  6.59146	 -0.90403	 30.22512	704.78802	 22.90	
 13.609	151.210	 27.64646	  3.03611	 24.61629	 19.11950	  7.79521	 -0.90688	 30.23740	704.69800	 22.90	
 13.601	158.353	 27.58994	  2.46894	 25.29198	 17.59030	  9.05311	 -0.91120	 30.21141	704.72900	 22.90	
 13.611	165.583	 27.54834	  2.00673	 25.82049	 16.02191	 10.37850	 -0.92836	 30.21238	704.76202	 22.90	
 13.608	172.853	 27.53011	  1.76318	 26.16416	 14.42324	 11.76422	 -0.94504	 30.25512	704.59399	 22.90	
 15.298	173.587	 26.66828	 -0.09379	 27.05241	 13.69780	 11.10350	 -1.14200	 30.23061	704.91101	 22.90	
 15.291	167.167	 26.70353	  0.14181	 26.76081	 15.26558	  9.72736	 -1.12214	 30.21394	704.78497	 22.90	
 15.307	160.676	 26.72102	  0.47702	 26.30373	 16.85162	  8.31143	 -1.12485	 30.20349	705.81702	 22.90	
 15.300	154.261	 26.77350	  1.01487	 25.68111	 18.41521	  6.96055	 -1.10002	 30.21813	704.79700	 22.90	
 15.288	147.854	 26.80458	  1.69326	 24.85033	 19.87432	  5.75097	 -1.09887	 30.19428	705.64899	 22.90	
 15.293	141.428	 26.84293	  2.42962	 23.87449	 21.26311	  4.67259	 -1.08961	 30.18639	706.29602	 22.90	
 15.299	134.985	 26.89269	  3.29122	 22.74902	 22.56593	  3.73078	 -1.11474	 30.20062	704.76001	 22.90	
 15.305	128.583	 26.92437	  4.38009	 21.48792	 23.72223	  2.88166	 -1.12835	 30.20715	704.72101	 22.90	
 15.309	122.142	 26.95236	  5.50662	 20.12125	 24.70948	  2.16985	 -1.21162	 30.20336	704.81097	 22.90	
 15.304	115.711	 27.00411	  6.75033	 18.66239	 25.54043	  1.69716	 -1.19608	 30.24068	704.73499	 22.90	
 15.297	109.291	 27.00655	  8.06754	 17.11181	 26.16821	  1.21829	 -1.18903	 30.20470	704.80701	 22.90	
 15.293	102.897	 27.03326	  9.48253	 15.64069	 26.64166	  0.91434	 -1.17170	 30.20681	704.76202	 22.90	
 15.293	 96.458	 27.03972	 10.90407	 14.09743	 26.90370	  0.75756	 -1.17815	 30.19369	704.71100	 22.90	
 15.300	 90.000	 27.06136	 12.37270	 12.53417	 26.99433	  0.72849	 -1.18289	 30.19704	704.79102	 22.90	
 15.293	 83.542	 27.04672	 14.08701	 10.86165	 26.87516	  0.80369	 -1.15030	 30.17110	704.68298	 22.90	
 15.293	 77.103	 27.06933	 15.72536	  9.40683	 26.59933	  0.94568	 -1.09852	 30.19428	704.67200	 22.90	
 15.297	 70.709	 27.05530	 17.22014	  8.11432	 26.10773	  1.27681	 -1.03699	 30.17268	704.54797	 22.90	
 15.304	 64.289	 27.05897	 18.73071	  6.85582	 25.45607	  1.77408	 -0.99021	 30.17745	704.63300	 22.90	
 15.309	 57.858	 27.04027	 20.15050	  5.62965	 24.62904	  2.40369	 -0.96455	 30.17154	704.58801	 23.00	
 15.305	 51.417	 27.04141	 21.50039	  4.51627	 23.64917	  3.17242	 -0.99777	 30.19558	704.56299	 23.00	
 15.299	 45.015	 27.04461	 22.75335	  3.53890	 22.50549	  4.08820	 -1.01090	 30.20863	704.66400	 23.00	
 15.293	 38.572	 27.00923	 23.83296	  2.72004	 21.19669	  5.10057	 -1.03570	 30.16934	706.16602	 23.00	
 15.288	 32.146	 27.00335	 24.79440	  2.00896	 19.82903	  6.00041	 -1.08414	 30.18199	704.72803	 23.00	
 15.300	 25.739	 26.96770	 25.58472	  1.39893	 18.39251	  7.20499	 -1.10688	 30.16929	706.29102	 23.00	
 15.307	 19.324	 26.99037	 26.25120	  0.94172	 16.92193	  8.53780	 -1.10033	 30.23643	704.67999	 22.90	
 15.291	 12.833	 26.93722	 26.65160	  0.64356	 15.38585	  9.91445	 -1.06029	 30.19359	704.56799	 23.00	
 15.298	  6.413	 26.88967	 26.88193	  0.48733	 13.86611	 11.29610	 -1.06097	 30.17313	704.53802	 22.90	
 15.300	  0.000	 26.89325	 26.96591	  0.49097	 12.27467	 12.82447	 -1.06295	 30.19233	704.52899	 22.90	
 15.298	 -6.413	 26.89767	 26.87968	  0.52136	 10.69508	 14.48517	 -1.05865	 30.22604	704.55402	 22.90	
 15.291	-12.833	 26.84266	 26.55498	  0.69402	  9.22652	 16.07228	 -1.07375	 30.18953	704.68103	 22.90	
 15.307	-19.324	 26.80922	 26.09377	  0.95735	  7.82313	 17.73030	 -1.08597	 30.22720	704.65802	 22.90	
 15.300	-25.739	 26.77636	 25.39807	  1.37410	  6.55217	 19.21757	 -1.09512	 30.21160	704.49200	 22.90	
 15.288	-32.146	 26.73352	 24.53184	  1.93225	  5.35954	 20.52589	 -1.09177	 30.19458	704.51501	 22.90	
 15.293	-38.572	 26.70553	 23.52310	  2.63383	  4.22033	 21.80909	 -1.10408	 30.20780	704.50299	 22.90	
 15.299	-45.015	 26.66434	 22.35177	  3.47729	  3.19708	 23.07091	 -1.10347	 30.20873	704.60400	 22.90	
 15.305	-51.417	 26.65658	 21.07463	  4.49182	  2.34954	 24.15520	 -1.13133	 30.22910	706.18298	 22.90	
 15.309	-57.858	 26.58537	 19.72213	  5.58366	  1.59526	 25.07580	 -1.13486	 30.17892	704.61798	 22.90	
 15.304	-64.289	 26.54372	 18.22826	  6.79592	  1.00876	 25.84706	 -1.16745	 30.16702	704.69501	 22.90	
 15.297	-70.709	 26.56770	 16.74952	  8.09965	  0.54932	 26.51815	 -1.13664	 30.22731	704.65198	 22.90	
 15.293	-77.103	 26.53045	 15.22507	  9.48681	  0.21840	 26.96036	 -1.12096	 30.22519	705.24701	 22.90	
 15.293	-83.542	 26.47945	 13.52646	 10.86927	  0.05905	 27.19320	 -1.14547	 30.20074	704.99298	 22.90	
 15.300	-90.000	 26.43205	 11.88418	 12.37144	  0.09587	 27.22895	 -1.17881	 30.16827	704.60999	 22.90	
 15.293	-96.458	 26.41854	 10.36875	 14.03557	  0.08577	 27.14770	 -1.18499	 30.18918	704.46698	 22.90	
 15.293	-102.897	 26.43735	  8.96290	 15.65508	  0.23988	 26.86909	 -1.21525	 30.22287	704.51801	 22.90	
 15.297	-109.291	 26.41581	  7.59466	 17.09946	  0.57221	 26.38949	 -1.19690	 30.22146	704.55701	 22.90	
 15.304	-115.711	 26.39239	  6.31193	 18.57842	  1.03898	 25.74538	 -1.15942	 30.21328	704.64203	 22.90	
 15.309	-122.142	 26.38040	  5.08942	 20.04163	  1.62187	 24.91328	 -1.11007	 30.20251	704.60999	 22.90	
 15.305	-128.583	 26.38972	  3.93567	 21.40435	  2.30126	 23.94270	 -1.08513	 30.20814	704.61603	 22.90	
 15.299	-134.985	 26.39455	  2.91468	 22.64421	  3.12634	 22.82699	 -1.08411	 30.19143	704.57098	 22.90	
 15.293	-141.428	 26.42386	  2.14047	 23.80033	  4.11056	 21.56706	 -1.10825	 30.22085	705.14203	 22.90	
 15.288	-147.854	 26.44951	  1.40813	 24.80324	  5.24344	 20.33148	 -1.14814	 30.21933	704.52399	 22.90	
 15.300	-154.261	 26.44268	  0.78306	 25.60311	  6.44392	 18.87484	 -1.17044	 30.19309	704.62500	 22.90	
 15.307	-160.676	 26.47566	  0.29326	 26.26904	  7.77210	 17.36396	 -1.19524	 30.19882	704.59900	 22.90	
 15.291	-167.167	 26.52315	  0.00945	 26.72908	  9.11667	 15.75984	 -1.20074	 30.19175	704.58002	 22.90	
 15.298	-173.587	 26.57416	 -0.16375	 27.03127	 10.60384	 14.11503	 -1.17587	 30.22004	704.52399	 22.90	
 15.300	180.000	 26.61636	 -0.18413	 27.12383	 12.11763	 12.55548	 -1.15812	 30.22194	704.62097	 22.90	
 17.000	180.000	 25.67943	 -1.84956	 27.89636	 11.38511	 11.79696	 -1.27710	 30.20697	704.68701	 22.90	
 16.990	-174.179	 25.63508	 -1.80825	 27.79483	  9.87256	 13.30711	 -1.27338	 30.19814	704.72900	 22.90	
 17.009	-168.383	 25.56763	 -1.72786	 27.55218	  8.43046	 14.89841	 -1.30554	 30.18502	704.63300	 22.90	
 17.000	-162.596	 25.56525	 -1.48697	 27.15413	  7.12443	 16.53830	 -1.30198	 30.21044	704.62097	 22.90	
 16.990	-156.759	 25.51449	 -1.15896	 26.54113	  5.78843	 18.05018	 -1.28896	 30.18902	705.00201	 22.90	
 16.995	-150.919	 25.49308	 -0.72280	 25.81960	  4.49024	 19.57647	 -1.27286	 30.21662	704.59601	 22.90	
 16.988	-145.161	 25.42669	 -0.07701	 24.90477	  3.31294	 20.83467	 -1.25022	 30.17698	704.62701	 22.90	
 17.014	-139.343	 25.41307	  0.70046	 23.88764	  2.22217	 22.15565	 -1.22712	 30.20192	704.66400	 22.90	
 17.007	-133.546	 25.42553	  1.65679	 22.72662	  1.31301	 23.38560	 -1.20748	 30.21546	704.64899	 22.90	
 17.001	-127.699	 25.41476	  2.67773	 21.42477	  0.47953	 24.49517	 -1.20792	 30.21210	704.59900	 22.90	
 17.006	-121.937	 25.40557	  3.69471	 20.03033	 -0.17999	 25.44955	 -1.24292	 30.18723	704.59100	 22.90	
 17.002	-116.134	 25.42171	  4.89026	 18.59575	 -0.77731	 26.30669	 -1.24936	 30.21680	704.40503	 22.90	
 17.001	-110.310	 25.41553	  6.14540	 17.09963	 -1.20817	 26.95796	 -1.24161	 30.20507	704.63202	 22.90	
 16.988	-104.517	 25.47265	  7.50566	 15.63367	 -1.46957	 27.49261	 -1.19787	 30.24458	704.67999	 22.90	
 17.008	-98.662	 25.45447	  8.93060	 14.03196	 -1.64302	 27.84010	 -1.12256	 30.21249	704.42700	 22.90	
 16.996	-92.909	 25.45660	 10.35158	 12.43191	 -1.70032	 27.96947	 -1.10124	 30.17393	704.50000	 22.90	
 16.996	-87.091	 25.50876	 11.88728	 10.89996	 -1.69986	 28.01288	 -1.06752	 30.19820	704.53198	 22.90	
 17.012	-81.253	 25.50021	 13.47173	  9.46008	 -1.66223	 27.86808	 -1.05590	 30.18557	705.80902	 22.90	
 16.988	-75.483	 25.59602	 15.15024	  8.13313	 -1.49609	 27.62291	 -1.03505	 30.24701	705.34698	 22.90	
 17.001	-69.690	 25.58265	 16.68643	  6.77478	 -1.22694	 27.12698	 -1.03966	 30.20181	706.10999	 22.90	
 17.002	-63.866	 25.65448	 18.22627	  5.52638	 -0.75183	 26.51693	 -1.05890	 30.23660	705.82397	 22.90	
 17.006	-58.063	 25.67476	 19.69256	  4.34023	 -0.14956	 25.71482	 -1.09421	 30.22292	706.34601	 22.90	
 17.001	-52.301	 25.70706	 21.04118	  3.28572	  0.58249	 24.78005	 -1.10081	 30.21172	706.20001	 22.90	
 17.007	-46.454	 25.74008	 22.37471	  2.18036	  1.42212	 23.70160	 -1.06416	 30.21169	704.50098	 22.90	
 17.014	-40.657	 25.74982	 23.57418	  1.29754	  2.33757	 22.48904	 -1.08492	 30.20114	704.53400	 22.90	
 16.988	-34.839	 25.81096	 24.62548	  0.59062	  3.44177	 21.17174	 -1.12835	 30.20581	704.48401	 22.80	
 16.995	-29.081	 25.83941	 25.55713	 -0.02362	  4.59587	 19.86233	 -1.10420	 30.19526	705.90802	 22.90	
 16.990	-23.241	 25.85180	 26.31937	 -0.51613	  5.82969	 18.39666	 -1.09933	 30.17118	705.34998	 22.80	
 17.000	-17.404	 25.88574	 26.94991	 -0.91952	  7.13372	 16.88615	 -1.06732	 30.18363	704.81097	 22.80	
 17.009	-11.617	 25.95407	 27.42962	 -1.16740	  8.50983	 15.29866	 -1.05008	 30.22101	706.11298	 22.80	
 16.990	 -5.821	 25.96818	 27.64144	 -1.25661	  9.94963	 13.64109	 -1.05035	 30.17295	706.20801	 22.80	
 17.000	  0.000	 25.99467	 27.76893	 -1.35642	 11.46479	 12.11115	 -1.03829	 30.19364	706.09003	 22.80	
 16.990	  5.821	 26.03289	 27.73210	 -1.33406	 13.09702	 10.61451	 -1.01563	 30.21931	704.58698	 22.80	
 17.009	 11.617	 25.99878	 27.47639	 -1.21046	 14.61664	  9.19101	 -1.02689	 30.16623	704.48102	 22.80	
 17.000	 17.404	 26.05779	 27.11826	 -0.95975	 16.12631	  7.81583	 -1.05219	 30.20129	704.57300	 22.80	
 16.990	 23.241	 26.07748	 26.54102	 -0.54985	 17.67031	  6.47046	 -1.07988	 30.18322	706.21802	 22.80	
 16.995	 29.081	 26.11039	 25.84147	 -0.05046	 19.16158	  5.44244	 -1.10627	 30.19549	706.17200	 22.80	
 16.988	 34.839	 26.14905	 24.98928	  0.59241	 20.58391	  4.32644	 -1.10034	 30.21603	706.13501	 22.80	
 17.014	 40.657	 26.12098	 23.97907	  1.29118	 21.93125	  3.18810	 -1.08896	 30.20500	704.47601	 22.80	
 17.007	 46.454	 26.14042	 22.82969	  2.17560	 23.18021	  2.18978	 -1.08309	 30.21231	704.49500	 22.80	
 17.001	 52.301	 26.15332	 21.54372	  3.17856	 24.29750	  1.32424	 -1.07792	 30.20477	704.41400	 22.80	
 17.006	 58.063	 26.16693	 20.18572	  4.28167	 25.27872	  0.56207	 -1.12398	 30.20035	705.94202	 22.80	
 17.002	 63.866	 26.14680	 18.74040	  5.48058	 26.06186	 -0.05921	 -1.11484	 30.17128	706.23700	 22.80	
 17.001	 69.690	 26.14101	 17.23369	  6.74451	 26.75248	 -0.58531	 -1.14315	 30.17562	706.27600	 22.80	
 16.988	 75.483	 26.13124	 15.70846	  8.07099	 27.25259	 -0.94911	 -1.17705	 30.16031	705.07800	 22.80	
 17.012	 81.253	 26.12875	 14.08667	  9.35963	 27.61815	 -1.17516	 -1.17821	 30.18121	706.23901	 22.80	
 16.996	 87.091	 26.18391	 12.44936	 10.87274	 27.82254	 -1.17762	 -1.16889	 30.22986	706.19702	 22.80	
 16.996	 92.909	 26.16903	 10.98869	 12.44664	 27.83790	 -1.24515	 -1.14054	 30.22717	706.15198	 22.80	
 17.008	 98.662	 26.13526	  9.52318	 14.04626	 27.67073	 -1.19827	 -1.12103	 30.21350	706.10498	 22.80	
 16.988	104.517	 26.09925	  8.09539	 15.58632	 27.29281	 -0.91635	 -1.13604	 30.18127	706.08197	 22.80	
 17.001	110.310	 26.11505	  6.72463	 17.09409	 26.84153	 -0.60466	 -1.16997	 30.22826	706.29901	 22.80	
 17.002	116.134	 26.10029	  5.40272	 18.62436	 26.16490	 -0.11648	 -1.23882	 30.25514	706.21100	 22.80	
 17.006	121.937	 26.05313	  4.13911	 20.06816	 25.31649	  0.49305	 -1.26812	 30.22696	706.20801	 22.80	
 17.001	127.699	 25.98877	  3.11892	 21.42378	 24.33816	  1.22861	 -1.25876	 30.19275	706.16302	 22.80	
 17.007	133.546	 26.74372	  2.15100	 23.35997	 23.88431	  2.15950	 -1.28929	 31.09775	705.10303	 22.80	
 17.014	139.343	 26.78885	  1.11929	 24.64822	 22.65369	  3.17934	 -1.30955	 31.18043	706.12097	 22.80	
 16.988	145.161	 26.80559	  0.30693	 25.76270	 21.27343	  4.28243	 -1.33748	 31.22181	706.20001	 22.80	
 16.995	150.919	 26.76011	 -0.35620	 26.68579	 19.78428	  5.47087	 -1.36919	 31.21364	706.12799	 22.80	
 16.990	156.759	 26.70004	 -0.88748	 27.44195	 18.21118	  6.72365	 -1.35575	 31.20068	706.21100	 22.80	
 17.000	162.596	 26.69119	 -1.26778	 28.08584	 16.57096	  7.89086	 -1.35412	 31.23247	706.09003	 22.80	
 17.009	168.383	 26.60535	 -1.57291	 28.48182	 14.93865	  9.29214	 -1.35827	 31.20143	706.12500	 22.80	
 16.990	174.179	 26.57856	 -1.75622	 28.73049	 13.33891	 10.78455	 -1.36410	 31.21770	706.01398	 22.80	
 18.709	174.675	 25.50743	 -3.57732	 29.45828	 12.45240	  9.92385	 -1.38914	 31.22852	704.50098	 22.80	
 18.703	169.441	 25.54908	 -3.45423	 29.23738	 14.04625	  8.70031	 -1.38619	 31.22754	706.11798	 22.80	
 18.691	164.085	 25.60445	 -3.16715	 28.84409	 15.67804	  7.28197	 -1.40565	 31.21878	706.02600	 22.80	
 18.706	158.818	 25.61812	 -2.82612	 28.30373	 17.29401	  5.89059	 -1.41898	 31.20211	704.41602	 22.80	
 18.695	153.537	 25.72160	 -2.33345	 27.63621	 18.89609	  4.62000	 -1.42935	 31.24820	705.39001	 22.80	
 18.704	148.255	 25.77865	 -1.76508	 26.83061	 20.43097	  3.41061	 -1.41730	 31.28781	706.08002	 22.80	
 18.698	142.952	 25.83767	 -1.06309	 25.86725	 21.92903	  2.25175	 -1.39419	 31.30748	706.16602	 22.80	
 18.699	137.625	 25.84166	 -0.24755	 24.69174	 23.28570	  1.16903	 -1.34231	 31.25901	706.18298	 22.80	
 18.705	132.343	 25.90908	  0.69780	 23.48166	 24.56755	  0.29231	 -1.31524	 31.29266	705.32202	 22.80	
 18.713	127.067	 25.93360	  1.78588	 22.13560	 25.71037	 -0.40280	 -1.27483	 31.29392	706.13898	 22.80	
 18.700	121.794	 25.98050	  3.04196	 20.68904	 26.73656	 -1.01133	 -1.23857	 31.31557	706.10498	 22.90	
 18.698	116.504	 26.00476	  4.32402	 19.15863	 27.59464	 -1.58960	 -1.20766	 31.30241	706.13300	 22.90	
 18.707	111.165	 26.06255	  5.58236	 17.65451	 28.32325	 -2.04221	 -1.17038	 31.34814	706.14697	 22.90	
 18.690	105.863	 26.09509	  6.95080	 16.05813	 28.87497	 -2.36822	 -1.06999	 31.34446	706.03802	 22.90	
 18.696	100.583	 26.27272	  8.52488	 14.42116	 29.43715	 -2.53937	 -1.05730	 31.54616	706.01099	 22.90	
 18.700	 95.309	 26.35947	 10.03940	 12.86404	 29.71735	 -2.60906	 -1.07716	 31.60807	706.09399	 22.90	
 18.700	 90.000	 26.33619	 11.62846	 11.24214	 29.76795	 -2.73837	 -1.09720	 31.58316	706.13300	 22.90	
 18.700	 84.691	 26.37181	 13.21568	  9.76356	 29.67695	 -2.55644	 -1.17777	 31.59534	706.15601	 22.90	
 18.696	 79.417	 26.35799	 14.76173	  8.32549	 29.42642	 -2.44223	 -1.26382	 31.58794	705.79797	 22.90	
 18.690	 74.137	 26.34005	 16.45198	  6.89835	 29.02831	 -2.31610	 -1.29581	 31.58078	706.20300	 22.90	
 18.707	 68.835	 26.33429	 18.10989	  5.50076	 28.47760	 -2.05703	 -1.31822	 31.59323	706.13202	 22.90	
 18.698	 63.496	 26.32024	 19.62996	  4.18814	 27.75745	 -1.54533	 -1.31817	 31.59402	706.20599	 22.80	
 18.700	 58.206	 26.34578	 21.14760	  3.00445	 26.88213	 -0.91742	 -1.29593	 31.60329	704.93402	 22.90	
 18.713	 52.933	 26.33099	 22.56651	  1.73514	 25.86173	 -0.22693	 -1.26505	 31.60868	704.47803	 22.90	
 18.705	 47.657	 26.28602	 23.90671	  0.77716	 24.68899	  0.47780	 -1.18818	 31.59313	705.71698	 22.90	
 18.699	 42.375	 26.29385	 25.14118	 -0.06523	 23.45100	  1.42150	 -1.16701	 31.62237	706.07898	 22.80	
 18.698	 37.048	 26.25408	 26.25179	 -0.76831	 22.06944	  2.50625	 -1.12720	 31.61538	705.89600	 22.90	
 18.704	 31.745	 26.21687	 27.23040	 -1.41996	 20.57950	  3.64459	 -1.09921	 31.60667	706.01501	 22.90	
 18.695	 26.463	 26.20510	 28.03334	 -1.93394	 19.05610	  4.92778	 -1.05974	 31.60656	706.03699	 22.90	
 18.706	 21.182	 26.15037	 28.68501	 -2.36487	 17.50703	  6.23111	 -1.04554	 31.59985	705.18201	 22.90	
 18.691	 15.915	 26.15760	 29.22622	 -2.64879	 15.95986	  7.61846	 -1.03072	 31.62216	705.92700	 22.90	
 18.703	 10.559	 26.16623	 29.64957	 -2.91291	 14.40396	  8.99919	 -1.01298	 31.68780	705.03497	 22.90	
 18.709	  5.325	 26.14165	 29.87364	 -3.08068	 12.82273	 10.38407	 -0.98603	 31.70367	705.96198	 22.90	
 18.700	  0.000	 26.10839	 29.87878	 -3.14104	 11.20992	 11.97731	 -1.01974	 31.67741	705.97998	 22.90	
 18.709	 -5.325	 26.08740	 29.80325	 -3.09671	  9.69468	 13.52417	 -1.03295	 31.70238	706.12402	 22.90	
 18.703	-10.559	 26.08357	 29.55475	 -2.93519	  8.23949	 15.11814	 -1.04628	 31.71851	705.96899	 22.90	
 18.691	-15.915	 26.01503	 29.10108	 -2.70926	  6.77834	 16.76176	 -1.05726	 31.68638	706.18597	 22.90	
 18.706	-21.182	 25.98101	 28.54653	 -2.42636	  5.36937	 18.40189	 -1.07109	 31.70493	706.00598	 22.90	
 18.695	-26.463	 25.92172	 27.77278	 -2.01509	  3.90630	 19.95812	 -1.06915	 31.67582	706.06299	 22.90	
 18.704	-31.745	 25.89318	 26.93032	 -1.51650	  2.60686	 21.46035	 -1.06967	 31.69657	706.09399	 22.90	
 18.698	-37.048	 25.85233	 25.85044	 -0.85199	  1.41507	 22.80050	 -1.03624	 31.66663	706.05603	 22.90	
 18.699	-42.375	 25.87177	 24.72625	 -0.07049	  0.43746	 24.15494	 -1.04151	 31.71871	705.98401	 22.90	
 18.705	-47.657	 25.80574	 23.39438	  0.81281	 -0.37060	 25.37019	 -1.03056	 31.68091	704.42401	 22.90	
 18.713	-52.933	 25.77408	 21.98019	  1.75261	 -1.06080	 26.48984	 -1.04456	 31.68122	706.10199	 22.90	
 18.700	-58.206	 25.74873	 20.51977	  2.85111	 -1.62447	 27.44409	 -1.02776	 31.67181	706.03400	 22.90	
 18.698	-63.496	 25.73750	 19.04051	  4.12969	 -2.16909	 28.26469	 -0.95122	 31.67433	706.01099	 22.90	
 18.707	-68.835	 25.70379	 17.44340	  5.45570	 -2.66969	 28.96318	 -0.94498	 31.68335	705.99200	 22.90	
 18.690	-74.137	 25.66553	 15.72766	  6.89449	 -2.94117	 29.45374	 -0.93968	 31.66225	705.93799	 22.90	
 18.696	-79.417	 25.65621	 14.12030	  8.30823	 -3.17827	 29.85171	 -0.98128	 31.69849	706.10199	 22.90	
 18.700	-84.691	 25.62328	 12.57213	  9.78262	 -3.38458	 30.05876	 -1.00996	 31.69072	705.95001	 22.90	
 18.700	-90.000	 25.58978	 10.97131	 11.27959	 -3.45844	 30.10513	 -1.01607	 31.68513	705.94501	 22.90	
 18.700	-95.309	 25.58455	  9.38154	 12.82838	 -3.38671	 30.03444	 -1.09715	 31.70774	705.89697	 22.90	
 18.696	-100.583	 25.59721	  7.88089	 14.45456	 -3.24071	 29.81522	 -1.17921	 31.72882	706.06201	 22.90	
 18.690	-105.863	 25.57362	  6.44364	 16.09698	 -3.07390	 29.40920	 -1.26323	 31.70160	705.93500	 22.90	
 18.707	-111.165	 25.52780	  5.10023	 17.72627	 -2.81651	 28.89552	 -1.35072	 31.72317	705.98401	 22.90	
 18.698	-116.504	 25.51839	  3.75143	 19.27885	 -2.31813	 28.16308	 -1.40685	 31.70246	706.00299	 22.90	
 18.700	-121.794	 25.51483	  2.54157	 20.76775	 -1.76870	 27.32917	 -1.38692	 31.69445	706.10999	 22.90	
 18.713	-127.067	 25.55932	  1.37534	 22.24437	 -1.14244	 26.37324	 -1.37037	 31.73035	705.97998	 22.90	
 18.705	-132.343	 25.56742	  0.37360	 23.60021	 -0.38588	 25.21224	 -1.38067	 31.69646	706.00897	 22.80	
 18.699	-137.625	 25.66102	 -0.42812	 24.89720	  0.53812	 23.99086	 -1.41354	 31.72643	706.01703	 22.80	
 18.698	-142.952	 25.69994	 -1.03263	 26.04179	  1.45941	 22.66501	 -1.43981	 31.73093	706.02100	 22.90	
 18.704	-148.255	 25.74748	 -1.71765	 27.06891	  2.59948	 21.33632	 -1.41468	 31.75339	705.93597	 22.80	
 18.695	-153.537	 25.71890	 -2.62825	 27.92297	  3.88541	 19.73933	 -1.37339	 31.72399	706.02399	 22.80	
 18.706	-158.818	 25.75769	 -3.09155	 28.64898	  5.25437	 18.15848	 -1.34044	 31.72498	705.96899	 22.80	
 18.691	-164.085	 25.77924	 -3.26102	 29.18670	  6.64645	 16.59204	 -1.33287	 31.71749	704.75098	 22.80	
 18.703	-169.441	 25.82402	 -3.45825	 29.59857	  8.13864	 14.97850	 -1.32526	 31.70992	705.97803	 22.80	
 18.709	-174.675	 25.91250	 -3.59788	 29.86328	  9.62619	 13.43911	 -1.35095	 31.74781	706.05402	 22.80	
 18.700	180.000	 25.92735	 -3.66911	 29.91413	 11.12111	 11.82093	 -1.36314	 31.70359	706.03198	 22.80	
 20.400	180.000	 24.73479	 -5.58983	 30.51049	 10.20724	 10.88627	 -1.26665	 31.70524	705.95502	 22.80	
 20.401	-175.153	 24.69947	 -5.51160	 30.43658	  8.77947	 12.40621	 -1.22354	 31.70037	705.97198	 22.80	
 20.407	-170.264	 24.67325	 -5.28093	 30.23011	  7.26676	 14.04935	 -1.22175	 31.71690	706.00000	 22.80	
 20.410	-165.423	 24.62277	 -5.20275	 29.88498	  5.77448	 15.57913	 -1.20690	 31.72900	705.95898	 22.80	
 20.392	-160.496	 24.59261	 -4.99688	 29.37196	  4.31293	 17.13494	 -1.23757	 31.72787	706.07300	 22.80	
 20.401	-155.705	 24.51670	 -4.57823	 28.69158	  3.02933	 18.63948	 -1.28790	 31.68409	705.97998	 22.80	
 20.405	-150.835	 24.44955	 -4.14160	 27.89802	  1.75331	 20.18339	 -1.31491	 31.66691	706.11603	 22.80	
 20.397	-145.903	 24.53823	 -3.03512	 26.98255	  0.67401	 21.81657	 -1.35149	 31.74329	706.06799	 22.80	
 20.392	-141.062	 24.47772	 -2.61416	 25.91482	 -0.26118	 23.08424	 -1.37334	 31.71725	706.03400	 22.80	
 20.396	-136.227	 24.43087	 -1.91418	 24.73668	 -1.18435	 24.40843	 -1.36853	 31.73346	706.01398	 22.80	
 20.408	-131.372	 24.36478	 -1.12550	 23.46370	 -2.02180	 25.60408	 -1.36392	 31.72789	706.06799	 22.80	
 20.410	-126.511	 24.33089	 -0.01679	 22.06222	 -2.69946	 26.69029	 -1.36904	 31.69799	706.09302	 22.80	
 20.400	-121.604	 24.36118	  1.14891	 20.59663	 -3.31205	 27.69850	 -1.37232	 31.71860	706.00098	 22.80	
 20.403	-116.741	 24.37181	  2.42838	 19.06305	 -3.87550	 28.56132	 -1.36394	 31.71642	705.85400	 22.80	
 20.413	-111.900	 24.31692	  3.42931	 17.57314	 -4.46516	 29.27342	 -1.25793	 31.73122	705.94397	 22.80	
 20.398	-107.004	 24.31638	  4.79795	 15.94255	 -4.76435	 29.80257	 -1.18890	 31.69629	705.84601	 22.80	
 20.394	-102.132	 24.38348	  6.32245	 14.31014	 -4.92309	 30.26625	 -1.09332	 31.74072	706.17297	 22.80	
 20.403	-97.332	 24.36697	  7.73579	 12.73088	 -5.14227	 30.54519	 -1.00822	 31.73799	705.84302	 22.80	
 20.392	-92.440	 24.38411	  9.25093	 11.19995	 -5.24206	 30.68971	 -0.96360	 31.73721	706.02399	 22.80	
 20.392	-87.560	 24.41560	 10.86791	  9.66703	 -5.18820	 30.71842	 -0.91900	 31.74289	706.09302	 22.80	
 20.403	-82.668	 24.41223	 12.41891	  8.18849	 -5.11172	 30.58984	 -0.89401	 31.72319	705.88202	 22.80	
 20.394	-77.868	 24.45336	 14.01061	  6.72523	 -4.90040	 30.32039	 -0.87178	 31.70340	706.07703	 22.80	
 20.398	-72.996	 24.46565	 15.59930	  5.27956	 -4.66037	 29.91515	 -0.85928	 31.69007	705.97498	 22.80	
 20.413	-68.100	 24.51717	 17.24294	  3.89323	 -4.31304	 29.39890	 -0.87138	 31.71469	705.91400	 22.80	
 20.403	-63.259	 24.55658	 18.81005	  2.60904	 -3.85429	 28.70132	 -0.88277	 31.71208	705.84302	 22.80	
 20.400	-58.396	 24.59684	 20.38403	  1.49782	 -3.33427	 27.90001	 -0.89724	 31.73965	705.91101	 22.80	
 20.410	-53.489	 24.58611	 21.85686	  0.40883	 -2.74150	 26.90973	 -0.91619	 31.71884	706.03400	 22.80	
 20.408	-48.628	 24.64360	 23.26091	 -0.54120	 -2.02349	 25.86421	 -0.95769	 31.75068	706.02600	 22.80	
 20.396	-43.773	 24.69440	 24.57189	 -1.39445	 -1.17901	 24.62273	 -0.93239	 31.73401	705.90802	 22.80	
 20.392	-38.938	 24.73996	 25.74722	 -2.16074	 -0.30596	 23.31802	 -0.98336	 31.73951	706.05200	 22.80	
 20.397	-34.097	 24.74535	 26.82954	 -2.84584	  0.61874	 21.99968	 -0.97322	 31.72255	706.00299	 22.80	
 20.405	-29.165	 24.76755	 27.83219	 -3.42661	  1.69269	 20.53486	 -0.97425	 31.73241	705.94397	 22.80	
 20.401	-24.295	 24.83864	 28.67196	 -3.87148	  3.07234	 19.01789	 -0.96764	 31.76516	705.97803	 22.80	
 20.392	-19.504	 24.84488	 29.28301	 -4.21864	  4.38864	 17.37543	 -0.96925	 31.71951	706.02899	 22.80	
 20.410	-14.577	 24.91936	 29.86608	 -4.52009	  5.77151	 15.80899	 -0.95907	 31.77559	705.85400	 22.80	
 20.407	 -9.736	 24.96969	 30.26949	 -4.74515	  7.28542	 14.18058	 -0.95966	 31.78243	705.87598	 22.80	
 20.401	 -4.847	 24.95297	 30.46082	 -4.93693	  8.79944	 12.60061	 -0.92876	 31.74469	706.06897	 22.80	
 20.400	  0.000	 24.99244	 30.57178	 -4.96683	 10.26692	 11.08286	 -0.89587	 31.76827	706.06799	 22.80	
 20.401	  4.847	 25.02269	 30.55898	 -4.90887	 11.79657	  9.56520	 -0.89226	 31.78326	706.05402	 22.80	
 20.407	  9.736	 25.08568	 30.41398	 -4.73518	 13.38241	  8.19410	 -0.89747	 31.81176	705.96399	 22.80	
 20.410	 14.577	 25.07733	 30.06714	 -4.51702	 14.94790	  6.78456	 -0.88160	 31.76089	706.05402	 22.80	
 20.392	 19.504	 25.11817	 29.56736	 -4.17094	 16.61564	  5.37234	 -0.89816	 31.75584	706.05603	 22.80	
 20.401	 24.295	 25.16881	 29.01559	 -3.79496	 18.16163	  4.18212	 -0.90427	 31.79407	705.92102	 22.80	
 20.405	 29.165	 25.18318	 28.24471	 -3.29074	 19.73674	  2.87930	 -0.92915	 31.77604	705.91101	 22.80	
 20.397	 34.097	 25.21813	 27.33811	 -2.68428	 21.28098	  1.64667	 -0.99463	 31.77802	705.97998	 22.80	
 20.392	 38.938	 25.26214	 26.30906	 -2.02766	 22.70655	  0.56662	 -1.06036	 31.78561	706.12097	 22.80	
 20.396	 43.773	 25.25914	 25.17031	 -1.35452	 24.01403	 -0.34280	 -1.11232	 31.76906	706.08502	 22.80	
 20.408	 48.628	 25.26277	 23.90201	 -0.55298	 25.27921	 -1.22116	 -1.15655	 31.78454	706.08801	 22.80	
 20.410	 53.489	 25.28578	 22.53221	  0.35416	 26.41220	 -1.98735	 -1.22258	 31.77701	706.04901	 22.80	
 20.400	 58.396	 25.32571	 21.13908	  1.36563	 27.45280	 -2.58602	 -1.28398	 31.80177	706.01099	 22.80	
 20.403	 63.259	 25.37115	 19.59836	  2.63765	 28.34700	 -3.16790	 -1.32694	 31.80712	706.06201	 22.80	
 20.413	 68.100	 25.37339	 18.08268	  3.92954	 29.07265	 -3.73298	 -1.31794	 31.79852	706.01703	 22.80	
 20.398	 72.996	 25.38690	 16.41195	  5.31498	 29.66167	 -4.03902	 -1.28246	 31.79612	705.93799	 22.80	
 20.394	 77.868	 25.40541	 14.75704	  6.78819	 30.08101	 -4.05918	 -1.23966	 31.78629	705.95898	 22.80	
 20.403	 82.668	 25.39603	 13.23405	  8.20087	 30.38649	 -4.39226	 -1.11991	 31.79638	706.13202	 22.80	
 20.392	 87.560	 25.34803	 11.64114	  9.71085	 30.48756	 -4.44781	 -1.00267	 31.73833	706.06897	 22.80	
 20.392	 92.440	 25.40531	 10.11966	 11.25734	 30.58066	 -4.40247	 -0.91614	 31.81668	706.03400	 22.80	
 20.403	 97.332	 25.36724	  8.55055	 12.76655	 30.41539	 -4.28501	 -0.90853	 31.77514	705.97498	 22.80	
 20.394	102.132	 25.40491	  7.05525	 14.38020	 30.15468	 -4.07547	 -0.90231	 31.80208	706.01398	 22.80	
 20.398	107.004	 25.36196	  5.78393	 16.02568	 29.76534	 -3.88832	 -0.93717	 31.81638	706.11298	 22.80	
 20.413	111.900	 25.31296	  4.34497	 17.64851	 29.19956	 -3.53823	 -0.97830	 31.81161	706.07098	 22.80	
 20.403	116.741	 25.25928	  2.99779	 19.10934	 28.47475	 -3.09403	 -1.03128	 31.77996	706.12097	 22.80	
 20.400	121.604	 25.25843	  1.72930	 20.65594	 27.63714	 -2.51837	 -1.10827	 31.80497	705.96399	 22.80	
 20.410	126.511	 25.21692	  0.55547	 22.18109	 26.60318	 -1.87205	 -1.17142	 31.80647	705.89600	 22.80	
 20.408	131.372	 25.18184	 -0.49563	 23.57073	 25.47926	 -1.16726	 -1.23236	 31.79789	705.89697	 22.80	
 20.396	136.227	 25.16070	 -1.41264	 24.86177	 24.20071	 -0.32485	 -1.29228	 31.78131	705.95203	 22.80	
 20.392	141.062	 25.14410	 -2.25402	 26.05298	 22.86353	  0.53805	 -1.34081	 31.78288	705.83698	 22.80	
 20.397	145.903	 25.11572	 -3.01741	 27.14388	 21.44366	  1.36801	 -1.37345	 31.83891	705.95001	 22.80	
 20.405	150.835	 25.03707	 -3.72887	 28.07446	 19.85928	  2.51604	 -1.39030	 31.79860	705.84601	 22.80	
 20.401	155.705	 25.01550	 -4.26489	 28.84039	 18.25994	  3.83488	 -1.37673	 31.79161	705.82098	 22.80	
 20.392	160.496	 24.97041	 -4.71166	 29.47783	 16.68175	  5.18411	 -1.38901	 31.79248	706.03101	 22.80	
 20.410	165.423	 24.94588	 -5.04569	 30.01578	 15.00986	  6.61279	 -1.39315	 31.81853	705.88501	 22.80	
 20.407	170.264	 24.89634	 -5.24990	 30.35450	 13.40713	  8.02469	 -1.33167	 31.81087	705.84900	 22.80	
 20.401	175.153	 24.81786	 -5.50663	 30.52694	 11.82794	  9.28259	 -1.26887	 31.78611	706.04498	 22.80	
  0.141	 45.000	 31.87950	 16.82829	 16.71482	 16.65751	 17.32915	  0.36257	 31.84810	705.93597	 22.80	
  4.001	128.691	 31.77992	 14.12226	 18.93462	 19.21043	 14.17931	  0.24990	 31.81864	705.89099	 22.80	
  4.002	 76.995	 31.81106	 17.45193	 15.67614	 20.04680	 13.35692	  0.27629	 31.83074	705.88202	 22.80	
  4.002	 25.892	 31.75580	 20.07981	 13.02241	 17.92087	 15.37955	  0.25920	 31.79949	705.91400	 22.80	
  4.002	-25.892	 31.71879	 19.99815	 12.99825	 14.58881	 18.81590	  0.21195	 31.80621	705.89899	 22.80	
  4.002	-76.995	 31.69301	 17.26081	 15.64670	 12.41320	 20.90501	  0.18956	 31.82149	705.82703	 22.80	
  4.001	-128.691	 31.68432	 13.97779	 18.90556	 13.27090	 20.15359	  0.23844	 31.81387	705.89301	 22.80	
  4.000	180.000	 31.74684	 12.43159	 20.34864	 16.29446	 17.16815	  0.26591	 31.83120	705.89099	 22.80	
  8.000	180.000	 31.04448	  8.24334	 23.66295	 15.45470	 16.33484	 -0.22358	 31.83334	705.89600	 22.80	
  7.991	-152.370	 30.96852	  8.96469	 22.71829	 11.73395	 19.91889	 -0.24059	 31.83293	705.88000	 22.80	
  7.997	-124.550	 30.89740	 11.10764	 20.00179	  9.26348	 22.76723	 -0.28472	 31.82141	705.85699	 22.80	
  8.006	-96.837	 30.92393	 14.57624	 16.63184	  8.16647	 24.15641	 -0.41801	 31.85811	706.00098	 22.80	
  7.988	-69.228	 30.92566	 18.34341	 12.84154	  8.48051	 23.67882	 -0.44369	 31.81400	705.95203	 22.80	
  7.997	-41.563	 30.98895	 21.51501	 10.01493	 10.29125	 21.52663	 -0.37076	 31.82142	705.89001	 22.80	
  8.008	-13.821	 31.09898	 23.39782	  8.57370	 13.56337	 18.21766	 -0.30191	 31.84411	705.99500	 22.80	
  8.008	 13.821	 31.15326	 23.46973	  8.57432	 17.32272	 14.39597	 -0.27975	 31.83400	705.76398	 22.80	
  7.997	 41.563	 31.20902	 21.70179	 10.00575	 20.71039	 11.27609	 -0.22134	 31.84509	705.82397	 22.80	
  7.988	 69.228	 31.23425	 18.73030	 12.87930	 22.98499	  9.47754	 -0.20801	 31.82075	705.78998	 22.80	
  8.006	 96.837	 31.20527	 14.93328	 16.63480	 23.47469	  9.10617	 -0.27346	 31.80443	705.86798	 22.80	
  7.997	124.550	 31.21001	 11.43445	 20.13387	 22.08900	 10.27990	 -0.23949	 31.84904	705.70801	 22.80	
  7.991	152.370	 31.16051	  9.12312	 22.76589	 19.00473	 12.79420	 -0.19384	 31.84993	705.78302	 22.80	
 12.009	161.059	 29.78793	  4.24279	 25.86539	 17.99284	 11.38457	 -0.78778	 31.83175	705.74103	 22.80	
 12.013	142.081	 29.85996	  5.88189	 23.92225	 21.60345	  8.33453	 -0.78351	 31.83748	705.68597	 22.80	
 12.006	123.113	 29.90498	  8.46598	 20.88582	 24.35645	  6.06575	 -0.85993	 31.78968	705.75598	 22.80	
 12.007	104.200	 29.99123	 11.78283	 17.33408	 26.04783	  4.82515	 -0.96616	 31.82609	705.78900	 22.80	
 11.989	 85.301	 30.05672	 15.68720	 13.52027	 26.38612	  4.60698	 -0.89608	 31.85428	705.74103	 22.80	
 12.013	 66.294	 30.03849	 19.53443	  9.90654	 25.33932	  5.43038	 -0.74424	 31.85288	705.77802	 22.80	
 12.012	 47.388	 29.97097	 22.73373	  7.03347	 23.02171	  7.10440	 -0.73811	 31.82035	705.85999	 22.80	
 11.990	 28.440	 29.90721	 25.13475	  4.99366	 19.80111	  9.75243	 -0.85325	 31.82979	705.82703	 22.80	
 11.991	  9.464	 29.85176	 26.37645	  4.06211	 16.15226	 13.09678	 -0.87836	 31.83617	705.82703	 22.80	
 11.991	 -9.464	 29.80361	 26.31715	  4.07062	 12.18116	 17.02803	 -0.86132	 31.85124	705.78699	 22.80	
 11.990	-28.440	 29.69713	 24.91725	  4.97470	  8.82469	 20.77413	 -0.91295	 31.85877	705.77802	 22.80	
 12.012	-47.388	 29.59014	 22.32436	  6.91520	  6.09732	 23.75853	 -0.95757	 31.81512	705.87201	 22.80	
 12.013	-66.294	 29.50395	 19.02993	  9.79709	  4.30462	 25.94344	 -1.08537	 31.82038	705.79797	 22.80	
 11.989	-85.301	 29.48271	 15.09957	 13.28254	  3.66865	 26.88748	 -1.10989	 31.82193	705.72699	 22.80	
 12.007	-104.200	 29.41194	 11.24216	 17.24592	  3.86650	 26.54233	 -0.99295	 31.79540	707.38800	 22.80	
 12.006	-123.113	 29.42938	  8.07865	 20.77007	  5.11687	 24.93600	 -0.83251	 31.82131	705.73602	 22.80	
 12.013	-142.081	 29.50121	  5.56866	 23.83308	  7.40506	 22.23534	 -0.81952	 31.83299	707.43903	 22.80	
 12.009	-161.059	 29.58182	  4.08061	 25.84308	 10.43415	 18.77807	 -0.86484	 31.82826	705.78998	 22.80	
 16.000	180.000	 27.66624	 -0.65525	 28.79948	 12.43652	 13.21739	 -1.33160	 31.80292	705.74402	 22.80	
 15.990	-165.604	 27.59575	 -0.41617	 28.30806	  8.90448	 17.01128	 -1.37993	 31.84242	705.82098	 22.80	
 16.002	-151.165	 27.46791	  0.52988	 26.72397	  5.57508	 20.80045	 -1.31742	 31.80233	705.74200	 22.80	
 16.002	-136.836	 27.39757	  2.31108	 24.27473	  2.74836	 23.98487	 -1.23831	 31.83640	705.65399	 22.80	
 15.995	-122.439	 27.37937	  4.88640	 21.08891	  0.78140	 26.60197	 -1.25923	 31.84395	705.73602	 22.80	
 15.993	-107.966	 27.36036	  7.82986	 17.51778	 -0.20774	 28.35784	 -1.30922	 31.84517	705.82397	 22.80	
 16.005	-93.629	 27.38458	 11.37369	 13.51894	 -0.63997	 29.12309	 -1.27847	 31.84348	705.78302	 22.80	
 15.992	-79.234	 27.43050	 15.13147	  9.97200	 -0.56182	 28.92222	 -1.20310	 31.84880	705.85901	 22.80	
 16.009	-64.774	 27.48075	 19.07544	  6.54461	  0.14589	 27.69891	 -1.19205	 31.84185	705.80902	 22.80	
 15.997	-50.364	 27.58517	 22.54539	  3.74161	  1.70335	 25.51342	 -1.19076	 31.83284	705.80603	 22.80	
 15.997	-36.045	 27.66891	 25.46602	  1.56203	  4.11558	 22.64003	 -1.17438	 31.85052	705.71100	 22.80	
 16.000	-21.597	 27.73402	 27.56390	  0.31118	  7.14487	 19.23509	 -1.17728	 31.83582	705.69897	 22.80	
 16.003	 -7.169	 27.85567	 28.66251	 -0.24425	 10.58184	 15.24050	 -1.14633	 31.84231	705.80402	 22.80	
 16.003	  7.169	 27.89202	 28.74993	 -0.36717	 14.41370	 11.46485	 -1.15947	 31.84168	705.82001	 22.80	
 16.000	 21.597	 27.98544	 27.83368	  0.23623	 18.19347	  8.13457	 -1.20111	 31.86667	705.73602	 22.80	
 15.997	 36.045	 28.00572	 25.84752	  1.54718	 21.75415	  5.22347	 -1.18055	 31.79647	705.82703	 22.80	
 15.997	 50.364	 28.08887	 23.11816	  3.78506	 24.86048	  2.76169	 -1.14368	 31.82781	705.74701	 22.80	
 16.009	 64.774	 28.12884	 19.77173	  6.63386	 27.13828	  1.08935	 -1.15176	 31.83692	705.77301	 22.80	
 15.992	 79.234	 28.16035	 15.96541	  9.95766	 28.48147	  0.26713	 -1.26283	 31.85012	705.85699	 22.80	
 16.005	 93.629	 28.13680	 12.06008	 13.61677	 28.75940	  0.08218	 -1.28289	 31.83479	705.78900	 22.80	
 15.993	107.966	 28.09611	  8.53415	 17.45485	 27.99729	  0.51299	 -1.28760	 31.81890	705.68799	 22.80	
 15.995	122.439	 28.07358	  5.20991	 21.12371	 26.26616	  1.83763	 -1.29311	 31.85869	705.72498	 22.80	
 16.002	136.836	 27.98498	  2.74953	 24.37434	 23.54709	  3.86958	 -1.24226	 31.84726	705.70300	 22.80	
 16.002	151.165	 27.91240	  0.79044	 26.83010	 20.19024	  6.49853	 -1.25648	 31.85528	705.84302	 22.80	
 15.990	165.604	 27.78073	 -0.24108	 28.31667	 16.32436	  9.62955	 -1.27756	 31.80776	705.74103	 22.80	
 20.003	168.362	 25.23962	 -4.79529	 30.16143	 14.19866	  7.77428	 -1.37700	 31.87009	705.73297	 22.80	
 20.008	156.764	 25.34128	 -3.99241	 28.96530	 18.03859	  4.47166	 -1.41626	 31.86720	705.72699	 22.80	
 20.000	145.147	 25.40433	 -2.53041	 26.93622	 21.67836	  1.56480	 -1.38277	 31.83324	705.82703	 22.80	
 19.995	133.545	 25.52657	 -0.54835	 24.21749	 24.91034	 -0.38534	 -1.26863	 31.85643	705.80902	 22.80	
 20.009	121.926	 25.51685	  1.95380	 20.83164	 27.48992	 -2.11035	 -1.14144	 31.80808	705.77899	 22.80	
 20.005	110.327	 25.64264	  5.13094	 17.27155	 29.29749	 -3.20445	 -0.96927	 31.83491	705.71600	 22.80	
 19.989	 98.733	 25.71646	  8.40523	 13.41761	 30.27219	 -3.71214	 -0.90912	 31.84653	705.69598	 22.80	
 19.999	 87.075	 25.74094	 12.06899	  9.82435	 30.44768	 -4.07224	 -1.01636	 31.85608	705.71100	 22.80	
 19.992	 75.457	 25.77512	 15.78800	  6.42478	 29.79054	 -3.64027	 -1.27109	 31.85001	705.66901	 22.80	
 20.009	 63.844	 25.68898	 19.52176	  3.19568	 28.34291	 -2.80838	 -1.33003	 31.82008	705.81201	 22.80	
 19.989	 52.269	 25.62935	 22.93751	  0.47445	 26.10741	 -1.42655	 -1.22505	 31.82780	705.62299	 22.80	
 19.999	 40.602	 25.58062	 25.94116	 -1.46382	 23.16219	  0.62133	 -1.07450	 31.83348	705.82599	 22.80	
 20.004	 29.051	 25.53160	 28.26063	 -2.95305	 19.78556	  3.10589	 -0.95957	 31.86194	705.82599	 22.80	
 20.005	 17.433	 25.41201	 29.75298	 -3.99956	 16.04699	  6.16736	 -0.89439	 31.82784	705.80603	 22.80	
 20.006	  5.780	 25.32785	 30.44863	 -4.51429	 12.27613	  9.46635	 -0.90551	 31.81822	705.75500	 22.80	
 20.006	 -5.780	 25.24111	 30.34634	 -4.53961	  8.71831	 13.09622	 -0.96167	 31.79445	705.73401	 22.80	
 20.005	-17.433	 25.20877	 29.53311	 -4.00468	  5.23259	 16.88425	 -0.98563	 31.84660	705.71899	 22.80	
 20.004	-29.051	 25.11674	 27.83954	 -3.07486	  2.07016	 20.63008	 -0.98853	 31.82286	705.84601	 22.80	
 19.999	-40.602	 25.08990	 25.40508	 -1.55447	 -0.30594	 23.84663	 -0.97763	 31.86420	705.75500	 22.80	
 19.989	-52.269	 24.98199	 22.26403	  0.53023	 -2.18957	 26.67279	 -0.93505	 31.83608	705.71698	 22.80	
 20.009	-63.844	 24.95496	 18.81524	  3.06108	 -3.52884	 28.81661	 -0.91826	 31.86370	705.86798	 22.80	
 19.992	-75.457	 24.90096	 14.96045	  6.31242	 -4.35486	 30.16282	 -0.91995	 31.86998	705.78101	 22.80	
 19.999	-87.075	 24.77773	 11.22523	  9.78037	 -4.84921	 30.67622	 -0.93032	 31.82963	705.82397	 22.80	
 19.989	-98.733	 24.78216	  7.61131	 13.37435	 -4.65866	 30.46778	 -1.07330	 31.85716	705.82098	 22.80	
 20.005	-110.327	 24.68983	  4.26717	 17.19205	 -4.21871	 29.47395	 -1.29367	 31.83471	705.73602	 22.80	
 20.009	-121.926	 24.71830	  1.29514	 20.80991	 -2.97867	 27.69517	 -1.36755	 31.83913	705.78601	 22.80	
 19.995	-133.545	 24.74417	 -1.04185	 24.07699	 -1.33450	 25.13123	 -1.38238	 31.81247	705.72498	 22.80	
 20.000	-145.147	 24.81755	 -2.95087	 26.85683	  0.77424	 22.04244	 -1.37309	 31.83722	705.67499	 22.80	
 20.008	-156.764	 24.92097	 -4.26284	 28.89877	  3.53420	 18.51444	 -1.26277	 31.86742	705.76703	 22.80	
 20.003	-168.362	 25.02802	 -4.94947	 30.12259	  7.03220	 14.77261	 -1.23056	 31.86600	705.67499	 22.80	
 20.000	180.000	 25.08842	 -5.17913	 30.50129	 10.47892	 11.01488	 -1.25466	 31.82453	705.73602	 22.80	
