FileType=PCF
NHL=14
Date=08/25/17	19:08:12
Facility=APL
Serial=16328-7
Customer=NASA
NP=6
Mach=0.250000
Calibration=1:1
CalPts=490
TstPts=95
PortNumbering=AP Standard
Units=Torr C m/s kg/m^3 deg mm 
Theta[deg]	Phi[deg]	P1[Torr]	P2[Torr]	P3[Torr]	P4[Torr]	P5[Torr]	P6[Torr]	Pt[Torr]	Ps[Abs,Torr]	Ts[C]	
  0.000	  0.000	 30.71946	 16.68668	 16.55805	 16.13490	 16.85974	  0.29269	 30.67378	709.22900	 23.70	
  1.691	128.401	 30.71635	 15.70415	 17.47470	 17.30019	 15.61054	  0.29186	 30.67532	709.23700	 23.70	
  1.692	 77.194	 30.70701	 17.10950	 16.18285	 17.63771	 15.32376	  0.28110	 30.66992	709.19098	 23.70	
  1.699	 26.182	 30.70731	 18.17502	 15.16643	 16.80655	 16.13692	  0.27674	 30.66409	709.21100	 23.70	
  1.699	-26.182	 30.70918	 18.16766	 15.17904	 15.41664	 17.51830	  0.26543	 30.66018	709.23901	 23.70	
  1.692	-77.194	 30.73958	 17.09619	 16.22651	 14.61637	 18.38228	  0.25706	 30.70473	709.09302	 23.70	
  1.691	-128.401	 30.70474	 15.65395	 17.50046	 14.83783	 18.06187	  0.26708	 30.67486	709.25598	 23.70	
  1.700	180.000	 30.67821	 15.07130	 18.09618	 16.01276	 16.82091	  0.27800	 30.64312	709.20801	 23.70	
  3.400	180.000	 30.62833	 13.40812	 19.59561	 15.85550	 16.71204	  0.23341	 30.66790	709.23102	 23.70	
  3.388	-152.325	 30.59237	 13.72820	 19.21146	 14.41470	 18.16015	  0.20748	 30.64609	709.34900	 23.70	
  3.397	-124.529	 30.60253	 14.68679	 18.20517	 13.35184	 19.29616	  0.18712	 30.66548	709.22601	 23.70	
  3.399	-96.763	 30.57610	 16.05441	 16.74982	 12.86327	 19.82045	  0.17491	 30.62142	709.28198	 23.70	
  3.394	-69.283	 30.59140	 17.65896	 15.31986	 13.07029	 19.63320	  0.17166	 30.62217	709.04602	 23.70	
  3.400	-41.398	 30.63216	 18.94079	 14.12988	 13.93935	 18.79766	  0.19255	 30.64724	709.27002	 23.70	
  3.401	-14.021	 30.64034	 19.63452	 13.46203	 15.22046	 17.44120	  0.19470	 30.63568	709.07098	 23.70	
  3.401	 14.021	 30.67432	 19.67360	 13.46453	 16.77202	 15.95725	  0.23098	 30.66044	709.23401	 23.70	
  3.400	 41.398	 30.68586	 19.01183	 14.12349	 18.13166	 14.67637	  0.23402	 30.66264	709.19501	 23.70	
  3.394	 69.283	 30.69681	 17.78606	 15.31901	 18.99935	 13.88028	  0.22921	 30.67843	709.22601	 23.70	
  3.399	 96.763	 30.64985	 16.17012	 16.71507	 19.12558	 13.65220	  0.22874	 30.63546	709.17700	 23.70	
  3.397	124.529	 30.63276	 14.77600	 18.15618	 18.51339	 14.17569	  0.23887	 30.63036	709.27100	 23.70	
  3.388	152.325	 30.64800	 13.78927	 19.19927	 17.34734	 15.29676	  0.24740	 30.66414	709.23401	 23.70	
  5.099	161.165	 30.43776	 11.80520	 20.71293	 17.14189	 14.97696	  0.15116	 30.63049	709.19202	 23.70	
  5.109	142.013	 30.46982	 12.47412	 19.94378	 18.57105	 13.69551	  0.15027	 30.64276	709.29102	 23.70	
  5.095	123.033	 30.50189	 13.77713	 18.75527	 19.70303	 12.74433	  0.13852	 30.64285	709.21503	 23.70	
  5.105	104.191	 30.53951	 15.19533	 17.30862	 20.43010	 12.11472	  0.11781	 30.65725	709.23602	 23.70	
  5.093	 85.207	 30.54400	 16.71295	 15.78212	 20.57647	 12.03378	  0.06083	 30.64256	709.23901	 23.70	
  5.104	 66.290	 30.55649	 18.36537	 14.32687	 20.24523	 12.35209	  0.13317	 30.65152	709.22302	 23.70	
  5.094	 47.331	 30.57130	 19.65264	 13.11604	 19.38028	 13.17987	  0.12604	 30.65989	709.25403	 23.70	
  5.089	 28.397	 30.51915	 20.52919	 12.21889	 18.08858	 14.31050	  0.11431	 30.61802	709.25098	 23.70	
  5.096	  9.576	 30.56862	 21.04580	 11.76361	 16.62684	 15.72406	  0.11539	 30.67806	709.26801	 23.70	
  5.096	 -9.576	 30.51176	 20.99642	 11.75313	 15.01346	 17.23910	  0.11683	 30.64300	709.07098	 23.70	
  5.089	-28.397	 30.51105	 20.49086	 12.23391	 13.62387	 18.71025	  0.07428	 30.65464	709.13202	 23.70	
  5.094	-47.331	 30.44444	 19.49631	 13.10428	 12.38543	 19.94312	  0.04089	 30.62537	709.13599	 23.70	
  5.104	-66.290	 30.41807	 18.18708	 14.35204	 11.51190	 20.86699	 -0.01919	 30.62714	709.17999	 23.70	
  5.093	-85.207	 30.42077	 16.58856	 15.79771	 11.13699	 21.27264	  0.03519	 30.66282	709.21100	 23.70	
  5.105	-104.191	 30.38138	 15.04726	 17.30733	 11.20783	 21.11058	 -0.01488	 30.62808	709.12500	 23.70	
  5.095	-123.033	 30.38070	 13.65427	 18.75767	 11.78199	 20.46742	 -0.00945	 30.63783	709.02802	 23.70	
  5.109	-142.013	 30.37619	 12.37473	 19.96083	 12.75653	 19.38109	  0.11409	 30.63649	709.18903	 23.70	
  5.099	-161.165	 30.39994	 11.78154	 20.73385	 14.08340	 17.98940	  0.13799	 30.64060	709.01202	 23.70	
  5.100	180.000	 30.44063	 11.58697	 21.00656	 15.60807	 16.46866	  0.14957	 30.65925	709.05902	 23.70	
  6.800	180.000	 30.10654	  9.86009	 22.34971	 15.23880	 16.10602	  0.01386	 30.63277	709.13202	 23.70	
  6.796	-166.229	 30.10001	 10.04084	 22.15661	 13.78501	 17.61302	 -0.07603	 30.64001	709.10101	 23.70	
  6.808	-152.311	 30.04396	 10.47443	 21.57288	 12.39925	 19.03994	 -0.10545	 30.61274	709.14899	 23.70	
  6.795	-138.383	 30.06914	 11.24112	 20.67691	 11.20165	 20.37042	 -0.14773	 30.64768	709.04797	 23.70	
  6.792	-124.591	 30.04578	 12.19417	 19.47090	 10.27867	 21.42540	 -0.18479	 30.62991	709.15802	 23.70	
  6.787	-110.754	 30.09055	 13.62489	 18.12232	  9.69036	 22.20282	 -0.23424	 30.66342	709.06598	 23.70	
  6.800	-96.985	 30.04792	 15.07506	 16.60400	  9.36569	 22.54406	 -0.26919	 30.62091	709.16400	 23.70	
  6.800	-83.015	 30.07017	 16.57521	 15.13148	  9.37902	 22.55961	 -0.19782	 30.62546	709.07703	 23.70	
  6.787	-69.246	 30.10535	 18.16891	 13.73563	  9.74878	 22.18045	 -0.24039	 30.62618	709.09601	 23.70	
  6.792	-55.409	 30.13507	 19.51614	 12.45748	 10.40096	 21.44330	 -0.24532	 30.61546	709.07001	 23.70	
  6.795	-41.617	 30.17906	 20.65816	 11.39893	 11.41088	 20.38594	 -0.14494	 30.62544	708.98401	 23.70	
  6.808	-27.689	 30.20531	 21.52606	 10.59887	 12.63445	 19.08016	 -0.17126	 30.61272	709.10498	 23.70	
  6.796	-13.771	 30.26806	 22.04876	 10.14450	 14.05508	 17.64123	 -0.04762	 30.64592	708.99500	 23.70	
  6.800	  0.000	 30.26908	 22.25498	  9.95390	 15.50762	 16.19663	 -0.13613	 30.62980	709.03101	 23.70	
  6.796	 13.771	 30.28800	 22.10757	 10.12596	 17.04652	 14.74941	 -0.02792	 30.63544	709.03101	 23.70	
  6.808	 27.689	 30.32421	 21.58218	 10.60107	 18.54370	 13.38229	 -0.10807	 30.66687	709.03900	 23.70	
  6.795	 41.617	 30.31988	 20.85852	 11.37250	 19.82926	 12.19695	 -0.09782	 30.65111	709.03497	 23.70	
  6.792	 55.409	 30.29759	 19.73154	 12.41459	 20.86957	 11.25368	 -0.00749	 30.62234	708.99799	 23.70	
  6.787	 69.246	 30.29857	 18.40292	 13.68205	 21.60177	 10.61334	 -0.03276	 30.61911	708.96399	 23.70	
  6.800	 83.015	 30.31226	 16.80523	 15.08169	 21.99074	 10.25123	 -0.12970	 30.64473	708.93903	 23.70	
  6.800	 96.985	 30.30267	 15.28678	 16.60490	 21.94291	 10.22119	 -0.04680	 30.64797	708.98602	 23.70	
  6.787	110.754	 30.28967	 13.76666	 18.09103	 21.49150	 10.62556	 -0.12051	 30.64986	709.00098	 23.70	
  6.792	124.591	 30.25185	 12.37888	 19.49218	 20.68804	 11.28757	 -0.03155	 30.64963	708.96301	 23.70	
  6.795	138.383	 30.19939	 11.36543	 20.64571	 19.56343	 12.20678	 -0.10399	 30.62423	708.96301	 23.70	
  6.808	152.311	 30.16265	 10.57765	 21.56277	 18.24143	 13.31371	 -0.03076	 30.61921	709.06299	 23.70	
  6.796	166.229	 30.16723	 10.06226	 22.16354	 16.80219	 14.65563	 -0.07226	 30.65525	708.99500	 23.70	
  8.491	168.704	 29.68818	  8.23450	 23.41221	 16.35187	 14.16755	 -0.27543	 30.58437	709.07098	 23.70	
  8.502	157.493	 29.74695	  8.64711	 22.95775	 17.88270	 12.77281	 -0.28292	 30.61131	709.03101	 23.70	
  8.494	146.194	 29.81317	  9.35929	 22.20692	 19.34772	 11.57010	 -0.22037	 30.63294	708.89398	 23.70	
  8.495	135.039	 29.83718	 10.25707	 21.15693	 20.65829	 10.49433	 -0.25201	 30.63612	709.07397	 23.70	
  8.487	123.723	 29.87165	 11.30530	 19.91315	 21.72661	  9.65288	 -0.21671	 30.64291	708.96399	 23.70	
  8.492	112.575	 29.90167	 12.51491	 18.49657	 22.55057	  9.00590	 -0.36893	 30.62035	708.98401	 23.70	
  8.510	101.220	 29.92313	 14.04397	 16.97987	 23.09085	  8.57387	 -0.35769	 30.61010	708.84198	 23.70	
  8.500	 90.000	 29.97787	 15.67343	 15.48147	 23.29089	  8.46047	 -0.38630	 30.64291	708.88000	 23.70	
  8.510	 78.780	 29.96313	 17.17760	 13.95436	 23.14650	  8.61931	 -0.35614	 30.62346	708.87701	 23.70	
  8.492	 67.425	 29.95865	 18.83985	 12.51709	 22.67077	  9.02274	 -0.30575	 30.62113	708.94702	 23.70	
  8.487	 56.277	 29.94929	 20.14265	 11.26571	 21.91266	  9.63156	 -0.29689	 30.60875	708.88300	 23.70	
  8.495	 44.961	 29.97950	 21.35542	 10.17708	 20.91830	 10.52722	 -0.31525	 30.65862	708.92102	 23.70	
  8.494	 33.806	 29.93363	 22.26949	  9.31107	 19.64057	 11.64006	 -0.31787	 30.62264	708.96698	 23.60	
  8.502	 22.507	 29.89025	 22.90066	  8.67826	 18.21381	 12.90706	 -0.33044	 30.60116	708.94098	 23.60	
  8.491	 11.296	 29.94060	 23.37112	  8.31849	 16.73023	 14.33107	 -0.34355	 30.64304	709.02802	 23.70	
  8.500	  0.000	 29.89954	 23.48036	  8.18775	 15.12354	 15.82462	 -0.35201	 30.61904	708.96399	 23.70	
  8.491	-11.296	 29.87202	 23.28466	  8.30828	 13.61090	 17.30850	 -0.35725	 30.61110	709.01099	 23.70	
  8.502	-22.507	 29.84620	 22.81450	  8.69487	 12.18845	 18.78198	 -0.38176	 30.61290	709.00098	 23.70	
  8.494	-33.806	 29.82689	 22.04198	  9.34187	 10.84849	 20.22138	 -0.42676	 30.62809	709.01801	 23.70	
  8.495	-44.961	 29.77764	 21.11544	 10.19981	  9.70792	 21.45089	 -0.47935	 30.62826	708.94702	 23.70	
  8.487	-56.277	 29.76135	 19.93417	 11.31513	  8.81071	 22.47102	 -0.52522	 30.64200	708.96899	 23.60	
  8.492	-67.425	 29.70103	 18.57547	 12.56173	  8.17914	 23.21651	 -0.55091	 30.63328	709.01099	 23.70	
  8.510	-78.780	 29.67429	 16.89288	 13.98499	  7.70671	 23.71863	 -0.57899	 30.64531	708.89099	 23.70	
  8.500	-90.000	 29.62965	 15.39849	 15.46542	  7.54280	 23.84069	 -0.55734	 30.62539	708.93103	 23.60	
  8.510	-101.220	 29.63248	 13.82653	 16.98713	  7.65722	 23.70976	 -0.52689	 30.64563	708.96100	 23.70	
  8.492	-112.575	 29.58595	 12.25048	 18.48055	  8.02597	 23.17535	 -0.45944	 30.59767	708.89099	 23.70	
  8.487	-123.723	 29.59204	 11.11604	 19.87579	  8.61675	 22.40129	 -0.42250	 30.60855	708.95599	 23.70	
  8.495	-135.039	 29.58897	 10.05623	 21.13787	  9.43113	 21.37960	 -0.38271	 30.61057	708.87598	 23.70	
  8.494	-146.194	 29.63376	  9.23585	 22.20310	 10.54347	 20.14726	 -0.35259	 30.64574	708.94501	 23.70	
  8.502	-157.493	 29.66758	  8.63636	 23.00554	 11.84675	 18.73174	 -0.32935	 30.66402	708.93597	 23.70	
  8.491	-168.704	 29.65116	  8.27059	 23.43931	 13.27753	 17.21229	 -0.23715	 30.61676	708.92798	 23.70	
  8.500	180.000	 29.67922	  8.13686	 23.60186	 14.79522	 15.69422	 -0.15647	 30.61036	708.87402	 23.70	
 10.200	180.000	 29.15933	  6.29127	 24.79510	 14.28342	 15.20022	 -0.42297	 30.63741	708.90698	 23.70	
 10.191	-170.497	 29.10604	  6.42700	 24.63641	 12.72478	 16.74074	 -0.55815	 30.61335	708.94501	 23.70	
 10.210	-161.034	 29.08366	  6.70267	 24.25019	 11.24196	 18.25041	 -0.58918	 30.62616	708.87299	 23.70	
 10.194	-151.526	 29.09248	  7.21998	 23.58463	  9.88609	 19.77486	 -0.57923	 30.65596	708.97998	 23.60	
 10.190	-142.105	 29.04262	  7.92930	 22.65670	  8.69285	 21.10682	 -0.58796	 30.62323	708.99200	 23.70	
 10.215	-132.646	 28.99216	  8.74657	 21.52680	  7.62996	 22.29576	 -0.61401	 30.59001	708.96399	 23.60	
 10.203	-123.092	 29.04120	  9.85344	 20.24479	  6.84539	 23.36042	 -0.66132	 30.63441	709.00702	 23.70	
 10.192	-113.678	 29.04820	 11.09442	 18.80596	  6.24241	 24.16213	 -0.72891	 30.63076	708.86798	 23.60	
 10.208	-104.249	 29.07244	 12.39494	 17.30685	  5.84671	 24.75311	 -0.80667	 30.65134	708.96100	 23.70	
 10.210	-94.801	 29.05094	 13.97965	 15.77324	  5.67427	 25.01506	 -0.85729	 30.62113	708.90802	 23.60	
 10.210	-85.199	 29.06121	 15.60702	 14.20935	  5.66981	 25.02346	 -0.87565	 30.61767	708.90997	 23.70	
 10.208	-75.751	 29.07025	 17.17170	 12.71975	  5.94521	 24.73914	 -0.86091	 30.59507	708.92401	 23.70	
 10.192	-66.322	 29.12471	 18.81564	 11.33953	  6.46519	 24.20231	 -0.85741	 30.59888	708.90997	 23.60	
 10.203	-56.908	 29.19866	 20.21902	 10.07207	  7.09096	 23.44818	 -0.81004	 30.61806	709.10999	 23.60	
 10.215	-47.354	 29.28098	 21.48549	  8.96055	  7.97634	 22.45408	 -0.74864	 30.66293	708.95502	 23.60	
 10.190	-37.895	 29.30292	 22.49037	  8.04343	  9.02405	 21.22085	 -0.69678	 30.62898	708.96100	 23.60	
 10.194	-28.474	 29.36555	 23.39410	  7.31886	 10.26579	 19.86645	 -0.65041	 30.64039	708.90997	 23.60	
 10.210	-18.966	 29.40639	 24.08840	  6.78908	 11.66463	 18.37090	 -0.62463	 30.65190	708.77197	 23.60	
 10.191	 -9.503	 29.40691	 24.50451	  6.47535	 13.13220	 16.84231	 -0.60965	 30.62252	708.93903	 23.60	
 10.200	  0.000	 29.40897	 24.66610	  6.34234	 14.67576	 15.37618	 -0.60139	 30.61686	708.94501	 23.60	
 10.191	  9.503	 29.44981	 24.58127	  6.44753	 16.30061	 13.85389	 -0.59635	 30.64287	708.85400	 23.60	
 10.210	 18.966	 29.45691	 24.21750	  6.73766	 17.84787	 12.37462	 -0.61455	 30.65196	708.89099	 23.60	
 10.194	 28.474	 29.42787	 23.52145	  7.26307	 19.30709	 11.01630	 -0.58498	 30.59802	708.76703	 23.60	
 10.190	 37.895	 29.45842	 22.68722	  7.99395	 20.69036	  9.83186	 -0.55553	 30.62341	708.88000	 23.60	
 10.215	 47.354	 29.45589	 21.60136	  8.88659	 21.90590	  8.76024	 -0.53080	 30.60982	708.95502	 23.60	
 10.203	 56.908	 29.47357	 20.49117	 10.01554	 22.90358	  7.94354	 -0.51402	 30.60730	708.93298	 23.60	
 10.192	 66.322	 29.51737	 19.17545	 11.30524	 23.68996	  7.36036	 -0.53137	 30.63988	708.86499	 23.60	
 10.208	 75.751	 29.50131	 17.68588	 12.68554	 24.22467	  6.92078	 -0.59556	 30.62451	708.88000	 23.60	
 10.210	 85.199	 29.49227	 16.01177	 14.17110	 24.48943	  6.68826	 -0.64451	 30.62092	708.80298	 23.60	
 10.210	 94.801	 29.50499	 14.32377	 15.77357	 24.47104	  6.67941	 -0.66838	 30.64665	708.77899	 23.60	
 10.208	104.249	 29.46492	 12.74473	 17.30508	 24.13660	  6.95459	 -0.65750	 30.63236	708.81403	 23.60	
 10.192	113.678	 29.42915	 11.41550	 18.81739	 23.53841	  7.36486	 -0.62961	 30.62599	708.80701	 23.60	
 10.203	123.092	 29.38791	 10.13040	 20.23164	 22.72099	  7.95338	 -0.59601	 30.62823	708.80402	 23.60	
 10.215	132.646	 29.28557	  8.98321	 21.51925	 21.62042	  8.69392	 -0.56576	 30.57496	708.88202	 23.60	
 10.190	142.105	 29.34007	  8.08441	 22.68733	 20.41126	  9.71940	 -0.53627	 30.66049	708.76703	 23.60	
 10.194	151.526	 29.29580	  7.31796	 23.58112	 18.97696	 10.90830	 -0.52753	 30.64705	708.88501	 23.60	
 10.210	161.034	 29.24270	  6.74689	 24.25696	 17.45656	 12.22700	 -0.51656	 30.64178	708.84601	 23.60	
 10.191	170.497	 29.22294	  6.42624	 24.66620	 15.90833	 13.66527	 -0.51121	 30.65279	708.83698	 23.60	
 11.899	171.783	 28.52133	  4.73937	 25.75733	 15.30629	 13.03947	 -0.76563	 30.61620	708.85199	 23.60	
 11.890	163.610	 28.57826	  5.05031	 25.40989	 16.87324	 11.63185	 -0.75149	 30.62964	708.99799	 23.60	
 11.889	155.445	 28.61362	  5.50419	 24.81588	 18.42994	 10.26655	 -0.76283	 30.61602	708.97198	 23.60	
 11.909	147.299	 28.65605	  5.97255	 24.01578	 19.95378	  9.03239	 -0.75301	 30.61529	709.02600	 23.60	
 11.902	139.148	 28.68460	  6.78657	 23.00478	 21.30829	  7.92136	 -0.76825	 30.61103	709.01501	 23.60	
 11.894	130.867	 28.74160	  7.75577	 21.82712	 22.52972	  7.00865	 -0.80180	 30.62272	708.80298	 23.60	
 11.897	122.732	 28.77855	  8.85013	 20.50625	 23.57699	  6.26068	 -0.84998	 30.61258	708.90997	 23.60	
 11.903	114.597	 28.84143	 10.13169	 19.08315	 24.45184	  5.68252	 -0.90468	 30.63672	708.89301	 23.60	
 11.893	106.346	 28.88496	 11.56220	 17.54255	 25.09185	  5.26163	 -0.93279	 30.63244	708.84900	 23.60	
 11.892	 98.155	 28.89178	 12.97005	 15.96582	 25.45737	  4.97798	 -0.95570	 30.61487	708.77197	 23.60	
 11.900	 90.000	 28.90934	 14.52360	 14.41396	 25.60937	  4.83634	 -0.93814	 30.61198	708.80603	 23.60	
 11.892	 81.845	 28.92213	 16.23900	 12.88127	 25.50514	  4.97772	 -0.87776	 30.61289	708.81403	 23.60	
 11.893	 73.654	 28.90798	 17.82553	 11.39556	 25.13960	  5.24756	 -0.80538	 30.60348	708.83801	 23.60	
 11.903	 65.403	 28.95101	 19.43512	 10.02105	 24.61888	  5.67662	 -0.74740	 30.65060	708.82800	 23.60	
 11.897	 57.268	 28.92810	 20.77207	  8.77428	 23.80183	  6.32450	 -0.72620	 30.63111	708.84900	 23.60	
 11.894	 49.133	 28.88329	 21.89947	  7.66148	 22.77780	  7.16543	 -0.73174	 30.59298	708.96899	 23.60	
 11.902	 40.852	 28.88878	 23.07703	  6.68138	 21.63841	  8.09176	 -0.77112	 30.63258	708.91302	 23.60	
 11.909	 32.701	 28.84208	 24.01385	  5.86691	 20.30389	  9.15037	 -0.83093	 30.60705	708.78302	 23.60	
 11.889	 24.555	 28.87525	 24.80326	  5.30184	 18.86894	 10.43610	 -0.86511	 30.63843	708.92798	 23.60	
 11.890	 16.390	 28.87399	 25.36837	  4.89599	 17.37138	 11.81344	 -0.87413	 30.65485	708.77502	 23.60	
 11.899	  8.217	 28.85657	 25.69462	  4.61898	 15.80203	 13.29557	 -0.84956	 30.63795	708.88300	 23.60	
 11.900	  0.000	 28.80334	 25.74516	  4.53171	 14.16839	 14.83357	 -0.84665	 30.59628	708.78101	 23.60	
 11.899	 -8.217	 28.80380	 25.61645	  4.62541	 12.61081	 16.30067	 -0.84991	 30.61903	708.78302	 23.60	
 11.890	-16.390	 28.80430	 25.23596	  4.90659	 11.13536	 17.84153	 -0.83665	 30.61949	708.78900	 23.60	
 11.889	-24.555	 28.76829	 24.64395	  5.34679	  9.69588	 19.36223	 -0.85020	 30.62026	708.73297	 23.60	
 11.909	-32.701	 28.70533	 23.82797	  5.94579	  8.37808	 20.77886	 -0.88006	 30.60595	708.70801	 23.60	
 11.902	-40.852	 28.65916	 22.82594	  6.74352	  7.25518	 22.09615	 -0.92604	 30.60622	708.76703	 23.60	
 11.894	-49.133	 28.63713	 21.64673	  7.72686	  6.24965	 23.31237	 -0.99215	 30.65248	708.78101	 23.60	
 11.897	-57.268	 28.56591	 20.44907	  8.81306	  5.38742	 24.30945	 -1.04854	 30.63697	708.81500	 23.60	
 11.903	-65.403	 28.48197	 19.03106	 10.04814	  4.75683	 25.07999	 -1.09260	 30.61452	708.85101	 23.60	
 11.893	-73.654	 28.41011	 17.37091	 11.41544	  4.27612	 25.59751	 -1.08617	 30.56703	708.70801	 23.50	
 11.892	-81.845	 28.42376	 15.80872	 12.89979	  3.91095	 25.98056	 -1.08454	 30.62058	708.75897	 23.50	
 11.900	-90.000	 28.40681	 14.15962	 14.44162	  3.77105	 26.10801	 -1.09278	 30.63534	708.81201	 23.60	
 11.892	-98.155	 28.38478	 12.57069	 15.97051	  3.84323	 25.97305	 -1.09612	 30.63098	708.69598	 23.60	
 11.893	-106.346	 28.40946	 11.20119	 17.53503	  4.09465	 25.63515	 -1.03492	 30.66853	708.67902	 23.50	
 11.903	-114.597	 28.35345	  9.81641	 19.04068	  4.48267	 25.00686	 -0.94825	 30.61710	708.59802	 23.60	
 11.897	-122.732	 28.32762	  8.58340	 20.45048	  5.05192	 24.16995	 -0.87329	 30.59778	708.64301	 23.50	
 11.894	-130.867	 28.34938	  7.52370	 21.78794	  5.87830	 23.16312	 -0.82705	 30.60928	708.89899	 23.50	
 11.902	-139.148	 28.36552	  6.56197	 23.00564	  6.86124	 21.95946	 -0.80438	 30.62372	708.79797	 23.50	
 11.909	-147.299	 28.38511	  5.83764	 23.99831	  7.96789	 20.66313	 -0.81644	 30.62346	708.81000	 23.50	
 11.889	-155.445	 28.42008	  5.26811	 24.80514	  9.23125	 19.23565	 -0.83499	 30.63718	708.79999	 23.50	
 11.890	-163.610	 28.45748	  4.85739	 25.40603	 10.63276	 17.72713	 -0.82937	 30.64934	708.87701	 23.50	
 11.899	-171.783	 28.43891	  4.69765	 25.76312	 12.08142	 16.13344	 -0.78465	 30.62111	708.79999	 23.50	
 11.900	180.000	 28.49387	  4.62095	 25.89805	 13.66548	 14.59144	 -0.75914	 30.63599	708.76703	 23.50	
 13.600	180.000	 27.70951	  2.92461	 26.86909	 13.01186	 13.92750	 -0.98166	 30.62349	708.70203	 23.50	
 13.608	-172.853	 27.69708	  2.98267	 26.79706	 11.44364	 15.45674	 -1.01256	 30.64937	708.67401	 23.50	
 13.611	-165.583	 27.61680	  3.13562	 26.45595	  9.90286	 16.99037	 -1.04854	 30.62513	708.68201	 23.50	
 13.601	-158.353	 27.57734	  3.49455	 25.91147	  8.46770	 18.54252	 -1.06226	 30.59843	708.60101	 23.50	
 13.609	-151.210	 27.57189	  3.97935	 25.20241	  7.18278	 20.02246	 -1.06925	 30.60554	708.66602	 23.50	
 13.611	-143.999	 27.58444	  4.62454	 24.31116	  6.03865	 21.44730	 -1.02573	 30.63671	708.81000	 23.50	
 13.601	-136.825	 27.53596	  5.38153	 23.20300	  4.97980	 22.70835	 -1.02717	 30.59635	708.80603	 23.50	
 13.596	-129.640	 27.58306	  6.20045	 21.98901	  4.08702	 23.90890	 -1.04249	 30.63507	708.76398	 23.50	
 13.611	-122.431	 27.54424	  7.28608	 20.61438	  3.30148	 24.88278	 -1.09330	 30.59179	708.64301	 23.50	
 13.604	-115.211	 27.60453	  8.53903	 19.21047	  2.72215	 25.74869	 -1.12153	 30.65154	708.56403	 23.50	
 13.595	-108.042	 27.62496	  9.86701	 17.70662	  2.31430	 26.39181	 -1.20861	 30.65796	708.72803	 23.50	
 13.607	-100.793	 27.61765	 11.23985	 16.14740	  2.03339	 26.82606	 -1.25055	 30.64800	708.69397	 23.50	
 13.601	-93.617	 27.58132	 12.63677	 14.55489	  1.87954	 27.00859	 -1.25259	 30.60274	708.78302	 23.50	
 13.601	-86.383	 27.59673	 14.24120	 12.99920	  1.93639	 27.02139	 -1.22534	 30.59607	708.66901	 23.50	
 13.607	-79.207	 27.61859	 15.89487	 11.50420	  2.12303	 26.82564	 -1.21187	 30.59451	708.81403	 23.50	
 13.595	-71.958	 27.68278	 17.48429	 10.08586	  2.53196	 26.43199	 -1.19579	 30.61023	708.66602	 23.50	
 13.604	-64.789	 27.71163	 19.11091	  8.76003	  3.05221	 25.81672	 -1.20541	 30.58144	708.69702	 23.50	
 13.611	-57.569	 27.77982	 20.52898	  7.52608	  3.67816	 25.04911	 -1.18444	 30.60798	708.71100	 23.50	
 13.596	-50.360	 27.85952	 21.80380	  6.43454	  4.49735	 24.08517	 -1.15335	 30.63708	708.71600	 23.50	
 13.601	-43.175	 27.92236	 23.01409	  5.46265	  5.45131	 22.93481	 -1.09754	 30.62765	708.70203	 23.50	
 13.611	-36.001	 27.92758	 24.07755	  4.61325	  6.51872	 21.60939	 -1.05874	 30.56732	708.75598	 23.50	
 13.609	-28.790	 28.00319	 25.01811	  3.94030	  7.73434	 20.23272	 -1.03980	 30.59962	708.75500	 23.50	
 13.601	-21.647	 28.07170	 25.76283	  3.42600	  9.07388	 18.78067	 -1.02803	 30.62428	708.72699	 23.50	
 13.611	-14.417	 28.11828	 26.32616	  3.03689	 10.54356	 17.23765	 -1.03127	 30.65301	708.63098	 23.50	
 13.608	 -7.147	 28.11695	 26.65846	  2.78421	 12.04417	 15.67091	 -1.03342	 30.63222	708.63098	 23.50	
 13.600	  0.000	 28.14109	 26.79580	  2.70625	 13.59248	 14.21912	 -1.01457	 30.63849	708.67401	 23.50	
 13.608	  7.147	 28.12682	 26.72026	  2.77215	 15.17129	 12.66230	 -1.03149	 30.62806	708.73102	 23.50	
 13.611	 14.417	 28.13158	 26.39885	  3.01040	 16.74067	 11.17507	 -1.05785	 30.61559	708.58600	 23.50	
 13.601	 21.647	 28.15891	 25.91148	  3.36401	 18.29625	  9.78651	 -1.07853	 30.62663	708.68201	 23.50	
 13.609	 28.790	 28.16939	 25.23651	  3.85690	 19.79456	  8.51769	 -1.06675	 30.63767	708.59802	 23.50	
 13.611	 36.001	 28.20523	 24.37647	  4.54725	 21.20938	  7.38019	 -1.01620	 30.65609	708.80298	 23.50	
 13.601	 43.175	 28.23509	 23.35223	  5.40312	 22.49065	  6.37999	 -0.95301	 30.65784	708.58600	 23.50	
 13.596	 50.360	 28.22248	 22.12730	  6.36995	 23.62052	  5.44366	 -0.91071	 30.62506	708.71002	 23.50	
 13.611	 57.569	 28.25414	 20.92987	  7.46666	 24.65645	  4.59120	 -0.90849	 30.65346	708.70300	 23.50	
 13.604	 64.789	 28.21843	 19.54577	  8.68170	 25.41871	  3.95303	 -0.92731	 30.61269	708.66602	 23.50	
 13.595	 71.958	 28.23790	 17.96570	 10.01915	 26.02134	  3.52414	 -0.99069	 30.62240	708.56403	 23.50	
 13.607	 79.207	 28.22500	 16.40034	 11.45451	 26.42125	  3.19477	 -1.06237	 30.60910	708.47998	 23.50	
 13.601	 86.383	 28.22971	 14.73438	 12.98952	 26.59114	  3.07077	 -1.11866	 30.60861	708.62097	 23.50	
 13.601	 93.617	 28.24776	 13.14784	 14.58657	 26.59922	  3.11277	 -1.15590	 30.64260	708.62402	 23.50	
 13.607	100.793	 28.22033	 11.68434	 16.14890	 26.37052	  3.24788	 -1.15048	 30.63548	708.70203	 23.50	
 13.595	108.042	 28.17090	 10.22846	 17.72166	 25.90932	  3.55509	 -1.13188	 30.62462	708.69598	 23.50	
 13.604	115.211	 28.11617	  8.84810	 19.22968	 25.26714	  3.96994	 -1.10246	 30.61710	708.74799	 23.50	
 13.611	122.431	 28.09968	  7.57632	 20.70625	 24.43932	  4.51825	 -1.06113	 30.65355	708.66498	 23.50	
 13.596	129.640	 28.04009	  6.46552	 22.03291	 23.37008	  5.28555	 -1.01539	 30.61509	708.60999	 23.50	
 13.601	136.825	 27.98742	  5.68223	 23.25571	 22.15033	  6.11470	 -0.96973	 30.61337	708.63800	 23.40	
 13.611	143.999	 27.91851	  4.87469	 24.29962	 20.79904	  7.08619	 -0.96775	 30.60064	708.60303	 23.40	
 13.609	151.210	 27.88354	  4.23015	 25.22351	 19.34105	  8.20780	 -0.95163	 30.62892	708.62299	 23.40	
 13.601	158.353	 27.86854	  3.69456	 25.95951	 17.78013	  9.57717	 -0.95724	 30.64596	708.65802	 23.40	
 13.611	165.583	 27.77603	  3.28757	 26.44163	 16.20170	 10.93904	 -0.97728	 30.59231	708.61298	 23.50	
 13.608	172.853	 27.77109	  3.02708	 26.77902	 14.65542	 12.40634	 -0.98276	 30.63341	708.56201	 23.40	
 15.298	173.587	 26.90631	  1.22565	 27.64856	 13.91781	 11.70938	 -1.15133	 30.63305	708.53302	 23.40	
 15.291	167.167	 26.93242	  1.43890	 27.35909	 15.47385	 10.27252	 -1.16404	 30.60581	708.60303	 23.40	
 15.307	160.676	 27.00183	  1.79466	 26.92951	 17.03729	  8.86986	 -1.17034	 30.64236	708.57800	 23.50	
 15.300	154.261	 27.02666	  2.31577	 26.26473	 18.62692	  7.50937	 -1.16321	 30.61647	708.67902	 23.40	
 15.288	147.854	 27.09252	  2.95635	 25.46688	 20.13754	  6.35889	 -1.15527	 30.64330	708.58698	 23.50	
 15.293	141.428	 27.15720	  3.72235	 24.52491	 21.56625	  5.30045	 -1.15151	 30.65146	708.55499	 23.40	
 15.299	134.985	 27.19441	  4.52126	 23.41014	 22.89398	  4.33519	 -1.15660	 30.65016	708.48297	 23.50	
 15.305	128.583	 27.19875	  5.41569	 22.12333	 24.07299	  3.47847	 -1.18531	 30.61059	708.60999	 23.40	
 15.309	122.142	 27.25810	  6.31337	 20.75002	 25.09707	  2.86464	 -1.20626	 30.60766	708.61298	 23.40	
 15.304	115.711	 27.31215	  7.54401	 19.31102	 25.93373	  2.33907	 -1.23365	 30.60442	708.56097	 23.40	
 15.297	109.291	 27.35798	  8.87057	 17.79409	 26.61232	  1.91451	 -1.22733	 30.60649	708.57001	 23.40	
 15.293	102.897	 27.40930	 10.27387	 16.24780	 27.11270	  1.62627	 -1.24477	 30.62187	708.60699	 23.40	
 15.293	 96.458	 27.44530	 11.72893	 14.67720	 27.41676	  1.35938	 -1.23843	 30.63005	708.60901	 23.40	
 15.300	 90.000	 27.44092	 13.23245	 13.09580	 27.51168	  1.29615	 -1.24312	 30.60025	708.64600	 23.40	
 15.293	 83.542	 27.49365	 14.83828	 11.55836	 27.46658	  1.40435	 -1.23987	 30.64447	708.60303	 23.40	
 15.293	 77.103	 27.46801	 16.49990	 10.06094	 27.17458	  1.54017	 -1.19583	 30.61312	708.66602	 23.40	
 15.297	 70.709	 27.46347	 18.03118	  8.68416	 26.73193	  1.88120	 -1.14094	 30.61187	708.55603	 23.40	
 15.304	 64.289	 27.48494	 19.59175	  7.38881	 26.13950	  2.34538	 -1.08088	 30.65799	708.55603	 23.40	
 15.309	 57.858	 27.45482	 20.96300	  6.16324	 25.31861	  2.96736	 -1.07031	 30.63773	708.56702	 23.40	
 15.305	 51.417	 27.42088	 22.21018	  5.07109	 24.31786	  3.71126	 -1.06831	 30.61400	708.56702	 23.40	
 15.299	 45.015	 27.43780	 23.48073	  4.11194	 23.20250	  4.61455	 -1.10120	 30.66159	708.68500	 23.40	
 15.293	 38.572	 27.41166	 24.56654	  3.25972	 21.91146	  5.61633	 -1.14487	 30.64717	708.63202	 23.40	
 15.288	 32.146	 27.36964	 25.48074	  2.52632	 20.52590	  6.70010	 -1.18192	 30.61866	708.46503	 23.40	
 15.300	 25.739	 27.37675	 26.30020	  1.90743	 19.10088	  7.84186	 -1.19379	 30.64421	708.58698	 23.40	
 15.307	 19.324	 27.34868	 26.91080	  1.45115	 17.56741	  9.10189	 -1.16948	 30.63024	708.66901	 23.40	
 15.291	 12.833	 27.33423	 27.36159	  1.17670	 15.99558	 10.48417	 -1.13924	 30.61774	708.49902	 23.40	
 15.298	  6.413	 27.28915	 27.57016	  1.02155	 14.43662	 11.86862	 -1.09135	 30.57265	708.52802	 23.40	
 15.300	  0.000	 27.29247	 27.63632	  0.94573	 12.89553	 13.40021	 -1.07212	 30.58447	708.48901	 23.40	
 15.298	 -6.413	 27.29162	 27.55070	  0.98117	 11.36980	 14.94172	 -1.09555	 30.60722	708.55902	 23.40	
 15.291	-12.833	 27.27807	 27.23043	  1.21463	  9.89252	 16.49156	 -1.10281	 30.59931	708.64600	 23.40	
 15.307	-19.324	 27.27582	 26.76891	  1.53765	  8.43196	 18.08435	 -1.12160	 30.62873	708.52502	 23.40	
 15.300	-25.739	 27.21132	 26.06787	  2.01131	  7.06443	 19.56700	 -1.12635	 30.59940	708.46600	 23.40	
 15.288	-32.146	 27.20936	 25.25964	  2.62101	  5.84377	 21.02352	 -1.13374	 30.63629	708.44098	 23.40	
 15.293	-38.572	 27.12661	 24.23097	  3.32416	  4.69751	 22.38153	 -1.14769	 30.61171	708.58600	 23.40	
 15.299	-45.015	 27.09249	 23.10625	  4.17641	  3.67851	 23.66434	 -1.15257	 30.65386	708.51599	 23.40	
 15.305	-51.417	 26.99245	 21.83482	  5.14010	  2.80358	 24.72047	 -1.16274	 30.60658	708.37299	 23.40	
 15.309	-57.858	 26.92659	 20.55600	  6.22827	  2.02076	 25.67467	 -1.17848	 30.59011	708.48901	 23.40	
 15.304	-64.289	 26.87614	 19.12321	  7.42742	  1.36312	 26.47609	 -1.16900	 30.60276	708.34998	 23.40	
 15.297	-70.709	 26.81491	 17.49681	  8.71507	  0.84553	 27.08949	 -1.15369	 30.59359	708.52502	 23.40	
 15.293	-77.103	 26.79513	 15.94722	 10.08483	  0.41278	 27.56301	 -1.15387	 30.63016	708.40601	 23.40	
 15.293	-83.542	 26.77106	 14.28686	 11.54757	  0.21294	 27.83792	 -1.17271	 30.63866	708.46899	 23.40	
 15.300	-90.000	 26.75471	 12.71789	 13.07698	  0.05854	 27.94397	 -1.19688	 30.65243	708.37903	 23.40	
 15.293	-96.458	 26.70334	 11.19669	 14.64275	  0.04016	 27.80062	 -1.26975	 30.61741	708.32501	 23.40	
 15.293	-102.897	 26.69014	  9.78626	 16.19775	  0.23218	 27.48909	 -1.30295	 30.60586	708.34399	 23.40	
 15.297	-109.291	 26.71504	  8.46964	 17.74814	  0.57901	 27.03091	 -1.31770	 30.64062	708.47400	 23.40	
 15.304	-115.711	 26.70557	  7.18479	 19.25907	  1.14797	 26.33859	 -1.28933	 30.61267	708.51599	 23.40	
 15.309	-122.142	 26.73218	  5.98913	 20.72248	  1.71217	 25.54253	 -1.25967	 30.65333	708.53003	 23.40	
 15.305	-128.583	 26.66639	  5.12194	 22.05222	  2.32651	 24.51357	 -1.19753	 30.60723	708.43500	 23.40	
 15.299	-134.985	 26.68061	  4.21884	 23.31762	  3.16139	 23.42146	 -1.16235	 30.63417	708.46600	 23.40	
 15.293	-141.428	 26.67414	  3.38326	 24.44393	  4.14024	 22.12864	 -1.16485	 30.62214	708.58398	 23.40	
 15.288	-147.854	 26.70991	  2.65514	 25.44517	  5.28290	 20.76134	 -1.21699	 30.63772	708.39899	 23.40	
 15.300	-154.261	 26.69829	  2.03636	 26.24619	  6.49381	 19.29970	 -1.24708	 30.61583	708.30798	 23.40	
 15.307	-160.676	 26.69912	  1.58791	 26.87310	  7.79909	 17.79374	 -1.21871	 30.60417	708.40302	 23.40	
 15.291	-167.167	 26.77574	  1.30856	 27.36950	  9.27904	 16.24283	 -1.18550	 30.63605	708.36200	 23.40	
 15.298	-173.587	 26.80239	  1.12622	 27.64115	 10.75107	 14.69902	 -1.14892	 30.62133	708.42297	 23.40	
 15.300	180.000	 26.85180	  1.14571	 27.72279	 12.29967	 13.21337	 -1.14515	 30.61611	708.36200	 23.40	
 17.000	180.000	 25.93438	 -0.63665	 28.53460	 11.51263	 12.45185	 -1.25401	 30.66716	708.39899	 23.40	
 16.990	-174.179	 25.85467	 -0.57336	 28.40458	  9.99120	 13.94926	 -1.24122	 30.62461	708.37000	 23.40	
 17.009	-168.383	 25.79498	 -0.44942	 28.15576	  8.52434	 15.45738	 -1.24817	 30.61649	708.42603	 23.40	
 17.000	-162.596	 25.77618	 -0.22347	 27.74849	  7.12912	 17.00915	 -1.27207	 30.64076	708.31897	 23.40	
 16.990	-156.759	 25.79345	  0.11226	 27.19899	  5.82110	 18.53513	 -1.31397	 30.67338	708.39899	 23.40	
 16.995	-150.919	 25.74412	  0.61490	 26.42661	  4.55182	 19.99329	 -1.32222	 30.64173	708.38702	 23.40	
 16.988	-145.161	 25.70894	  1.24521	 25.52496	  3.38331	 21.39458	 -1.29030	 30.62183	708.52002	 23.40	
 17.014	-139.343	 25.68081	  1.99032	 24.49234	  2.29537	 22.74177	 -1.28563	 30.64112	708.39801	 23.40	
 17.007	-133.546	 25.71678	  2.86574	 23.35817	  1.39764	 23.98533	 -1.28555	 30.66925	708.46899	 23.40	
 17.001	-127.699	 25.69872	  3.84761	 22.04916	  0.58077	 25.09626	 -1.30692	 30.63437	708.47198	 23.40	
 17.006	-121.937	 25.68644	  4.88019	 20.67365	 -0.10225	 26.05358	 -1.34258	 30.63158	708.52502	 23.40	
 17.002	-116.134	 25.67342	  5.95204	 19.21530	 -0.66478	 26.86202	 -1.35150	 30.61283	708.56097	 23.40	
 17.001	-110.310	 25.70283	  7.01820	 17.69568	 -1.09264	 27.56796	 -1.35196	 30.62299	708.35901	 23.40	
 16.988	-104.517	 25.71338	  8.33086	 16.17417	 -1.39560	 28.06779	 -1.28075	 30.62219	708.39502	 23.40	
 17.008	-98.662	 25.71476	  9.70560	 14.62128	 -1.66156	 28.44691	 -1.19692	 30.63021	708.30798	 23.40	
 16.996	-92.909	 25.73061	 11.14837	 13.09528	 -1.72085	 28.61222	 -1.12824	 30.61578	708.45398	 23.40	
 16.996	-87.091	 25.75041	 12.67908	 11.53561	 -1.64241	 28.61935	 -1.07875	 30.61531	708.47699	 23.40	
 17.012	-81.253	 25.78466	 14.22784	 10.05218	 -1.49241	 28.49477	 -1.02122	 30.62724	708.53302	 23.40	
 16.988	-75.483	 25.83153	 15.84988	  8.68196	 -1.21697	 28.18126	 -1.00531	 30.63315	708.43799	 23.40	
 17.001	-69.690	 25.86576	 17.41734	  7.33093	 -0.83547	 27.70965	 -1.01255	 30.62509	708.34802	 23.40	
 17.002	-63.866	 25.94501	 19.02524	  6.09161	 -0.29717	 27.07576	 -1.03931	 30.63814	708.31097	 23.40	
 17.006	-58.063	 25.98930	 20.48219	  4.92713	  0.34270	 26.27072	 -1.07040	 30.62764	708.38098	 23.40	
 17.001	-52.301	 26.05459	 21.73709	  3.86364	  1.09008	 25.32264	 -1.08389	 30.62495	708.41998	 23.40	
 17.007	-46.454	 26.14341	 23.07054	  2.89209	  1.95151	 24.25256	 -1.10513	 30.64623	708.39301	 23.40	
 17.014	-40.657	 26.17253	 24.23399	  2.01515	  2.86501	 23.03973	 -1.10633	 30.61814	708.37799	 23.40	
 16.988	-34.839	 26.24615	 25.29391	  1.29155	  3.95101	 21.71227	 -1.11015	 30.60902	708.41498	 23.40	
 16.995	-29.081	 26.30772	 26.22421	  0.68600	  5.09615	 20.30539	 -1.11571	 30.61104	708.40302	 23.40	
 16.990	-23.241	 26.32364	 26.97550	  0.16824	  6.37937	 18.80290	 -1.11699	 30.58760	708.51300	 23.40	
 17.000	-17.404	 26.40649	 27.64519	 -0.24297	  7.74156	 17.32370	 -1.09818	 30.65716	708.37500	 23.40	
 17.009	-11.617	 26.40098	 28.04238	 -0.51442	  9.17300	 15.74702	 -1.08590	 30.61572	708.39801	 23.40	
 16.990	 -5.821	 26.47305	 28.33479	 -0.65052	 10.65780	 14.23135	 -1.07362	 30.66521	708.39502	 23.40	
 17.000	  0.000	 26.45420	 28.43712	 -0.72953	 12.11939	 12.67996	 -1.05346	 30.64544	708.43500	 23.40	
 16.990	  5.821	 26.44731	 28.36338	 -0.66489	 13.70773	 11.14581	 -1.05318	 30.62236	708.48901	 23.40	
 17.009	 11.617	 26.44684	 28.15635	 -0.55867	 15.25736	  9.75332	 -1.07020	 30.63380	708.42603	 23.40	
 17.000	 17.404	 26.44502	 27.75633	 -0.31962	 16.79668	  8.40962	 -1.11405	 30.61498	708.40698	 23.40	
 16.990	 23.241	 26.49450	 27.22188	  0.05922	 18.35921	  7.13384	 -1.16663	 30.65389	708.46100	 23.40	
 16.995	 29.081	 26.47499	 26.49925	  0.56095	 19.82105	  5.93487	 -1.16682	 30.62897	708.38202	 23.40	
 16.988	 34.839	 26.49120	 25.62034	  1.22243	 21.22250	  4.87270	 -1.21338	 30.61842	708.36700	 23.40	
 17.014	 40.657	 26.52830	 24.63624	  1.96234	 22.60920	  3.80871	 -1.21738	 30.65648	708.44098	 23.40	
 17.007	 46.454	 26.54662	 23.50171	  2.81882	 23.82632	  2.86884	 -1.20104	 30.65703	708.40997	 23.40	
 17.001	 52.301	 26.57514	 22.22482	  3.79746	 24.92832	  2.03920	 -1.19651	 30.63718	708.53003	 23.40	
 17.006	 58.063	 26.55651	 20.94180	  4.85489	 25.88159	  1.29553	 -1.21632	 30.62033	708.30298	 23.40	
 17.002	 63.866	 26.53413	 19.50176	  6.00001	 26.68155	  0.68602	 -1.21634	 30.59604	708.39899	 23.40	
 17.001	 69.690	 26.54257	 17.99328	  7.25043	 27.35901	  0.16162	 -1.24514	 30.60628	708.36700	 23.40	
 16.988	 75.483	 26.54840	 16.43447	  8.61090	 27.84913	 -0.21856	 -1.24622	 30.60716	708.40698	 23.40	
 17.012	 81.253	 26.59227	 14.86397	 10.02257	 28.20077	 -0.33933	 -1.25437	 30.65654	708.43500	 23.40	
 16.996	 87.091	 26.55594	 13.26482	 11.54242	 28.31526	 -0.47132	 -1.22517	 30.61639	708.41302	 23.40	
 16.996	 92.909	 26.52202	 11.72494	 13.10150	 28.28626	 -0.56241	 -1.18409	 30.59280	708.39502	 23.40	
 17.008	 98.662	 26.52029	 10.27676	 14.64430	 28.14206	 -0.43945	 -1.15169	 30.61267	708.34802	 23.40	
 16.988	104.517	 26.49113	  8.85052	 16.21846	 27.77111	 -0.10907	 -1.17467	 30.60827	708.39001	 23.40	
 17.001	110.310	 26.47227	  7.48976	 17.77283	 27.27498	  0.24797	 -1.18799	 30.64785	708.39301	 23.40	
 17.002	116.134	 26.42430	  6.43787	 19.29785	 26.59035	  0.62289	 -1.23977	 30.64494	708.31897	 23.40	
 17.006	121.937	 26.36012	  5.31407	 20.73750	 25.70466	  1.19348	 -1.22889	 30.62431	708.32703	 23.40	
 17.001	127.699	 26.34818	  4.26293	 22.12925	 24.70740	  1.89697	 -1.25441	 30.65541	708.47400	 23.40	
 17.007	133.546	 26.26230	  3.26008	 23.38379	 23.51724	  2.68035	 -1.25975	 30.62861	708.37000	 23.40	
 17.014	139.343	 26.19584	  2.34964	 24.55402	 22.21206	  3.65719	 -1.28561	 30.61083	708.29199	 23.40	
 16.988	145.161	 26.17720	  1.57542	 25.59562	 20.80979	  4.71659	 -1.30305	 30.62936	708.31299	 23.40	
 16.995	150.919	 26.13640	  0.86551	 26.45903	 19.35649	  5.82261	 -1.32359	 30.63479	708.24597	 23.40	
 16.990	156.759	 26.11407	  0.32864	 27.21785	 17.84116	  7.01085	 -1.32793	 30.66013	708.28802	 23.40	
 17.000	162.596	 26.06273	 -0.10192	 27.80087	 16.26146	  8.27181	 -1.30359	 30.66335	708.27197	 23.40	
 17.009	168.383	 25.96124	 -0.42497	 28.17494	 14.65603	  9.59580	 -1.28214	 30.61182	708.35400	 23.40	
 16.990	174.179	 25.94067	 -0.57588	 28.42023	 13.11186	 11.06747	 -1.26386	 30.61961	708.35101	 23.40	
 18.709	174.675	 24.86420	 -2.19733	 29.08033	 12.16983	 10.19863	 -1.27612	 30.62378	708.32501	 23.40	
 18.703	169.441	 24.89364	 -2.08763	 28.86288	 13.71435	  8.81909	 -1.31031	 30.60963	708.37799	 23.40	
 18.691	164.085	 24.96874	 -1.84077	 28.50894	 15.33828	  7.47418	 -1.36298	 30.63346	708.33301	 23.40	
 18.706	158.818	 25.00150	 -1.51035	 27.98647	 16.89949	  6.20545	 -1.38972	 30.62257	708.32501	 23.40	
 18.695	153.537	 25.07050	 -1.03026	 27.32771	 18.44071	  5.06356	 -1.39716	 30.61359	708.28802	 23.40	
 18.704	148.255	 25.12619	 -0.48256	 26.54370	 19.96020	  3.92744	 -1.38689	 30.63094	708.30798	 23.40	
 18.698	142.952	 25.20556	  0.14823	 25.62247	 21.44572	  2.92164	 -1.38112	 30.66360	708.42902	 23.40	
 18.699	137.625	 25.22875	  0.90050	 24.50812	 22.78067	  1.89504	 -1.33110	 30.62621	708.31299	 23.40	
 18.705	132.343	 25.29788	  1.82061	 23.34509	 24.03509	  1.01210	 -1.28108	 30.65297	708.31897	 23.40	
 18.713	127.067	 25.33339	  2.88026	 22.04882	 25.18693	  0.21743	 -1.22691	 30.66075	708.39301	 23.40	
 18.700	121.794	 25.35116	  3.95258	 20.64532	 26.17046	 -0.48179	 -1.18806	 30.61502	708.24103	 23.40	
 18.698	116.504	 25.42753	  5.13857	 19.21020	 27.07921	 -0.99649	 -1.11289	 30.64981	708.19800	 23.40	
 18.707	111.165	 25.44751	  6.37533	 17.69025	 27.77625	 -1.44987	 -1.07084	 30.62852	708.26300	 23.40	
 18.690	105.863	 25.49597	  7.40379	 16.17179	 28.28292	 -1.71836	 -1.03187	 30.60439	708.29700	 23.40	
 18.696	100.583	 25.57913	  8.81348	 14.64570	 28.72762	 -1.93965	 -1.02469	 30.65204	708.12299	 23.40	
 18.700	 95.309	 25.58947	 10.22817	 13.10137	 28.95100	 -2.11636	 -1.03503	 30.63642	708.21802	 23.40	
 18.700	 90.000	 25.61844	 11.72828	 11.56443	 29.04403	 -2.14062	 -1.08619	 30.65090	708.13702	 23.40	
 18.700	 84.691	 25.62635	 13.26513	 10.02780	 28.96897	 -2.06457	 -1.16659	 30.64135	708.21503	 23.40	
 18.696	 79.417	 25.64568	 14.82745	  8.59402	 28.75451	 -1.83939	 -1.23856	 30.64574	708.20697	 23.40	
 18.690	 74.137	 25.59159	 16.32590	  7.20360	 28.37365	 -1.72974	 -1.25176	 30.60722	708.27100	 23.40	
 18.707	 68.835	 25.59921	 17.90749	  5.87339	 27.89663	 -1.44092	 -1.29615	 30.64758	708.31097	 23.40	
 18.698	 63.496	 25.58967	 19.44863	  4.64065	 27.18357	 -0.83131	 -1.29718	 30.62868	708.25702	 23.40	
 18.700	 58.206	 25.62141	 20.89870	  3.54284	 26.40178	 -0.34001	 -1.27944	 30.66830	708.29700	 23.40	
 18.713	 52.933	 25.60115	 22.11658	  2.48249	 25.40632	  0.41376	 -1.32556	 30.65115	708.34802	 23.40	
 18.705	 47.657	 25.55518	 23.36045	  1.55919	 24.28956	  1.17801	 -1.31973	 30.62149	708.38702	 23.40	
 18.699	 42.375	 25.53621	 24.54548	  0.72334	 23.11194	  2.04090	 -1.28105	 30.63044	708.28802	 23.40	
 18.698	 37.048	 25.53591	 25.62120	 -0.01778	 21.83090	  2.97225	 -1.19477	 30.65316	708.28198	 23.40	
 18.704	 31.745	 25.46288	 26.51996	 -0.68080	 20.38668	  4.04412	 -1.15724	 30.60032	708.23297	 23.40	
 18.695	 26.463	 25.50435	 27.36441	 -1.23892	 18.96422	  5.20999	 -1.08834	 30.65091	708.27502	 23.40	
 18.706	 21.182	 25.49255	 28.01107	 -1.68727	 17.49179	  6.38111	 -1.03817	 30.65855	708.34698	 23.40	
 18.691	 15.915	 25.44424	 28.46646	 -1.99132	 15.94710	  7.66080	 -1.00786	 30.62016	708.25403	 23.40	
 18.703	 10.559	 25.41318	 28.79926	 -2.22268	 14.40199	  9.00970	 -0.97952	 30.59789	708.27698	 23.40	
 18.709	  5.325	 25.44614	 29.04081	 -2.34059	 12.90679	 10.36731	 -0.98009	 30.64540	708.33099	 23.40	
 18.700	  0.000	 25.40323	 29.03864	 -2.39318	 11.31987	 11.86397	 -1.01093	 30.59173	708.28198	 23.40	
 18.709	 -5.325	 25.45463	 29.01517	 -2.31525	  9.83379	 13.41277	 -1.01730	 30.66717	708.27197	 23.40	
 18.703	-10.559	 25.43153	 28.76550	 -2.16154	  8.38119	 14.93168	 -1.03101	 30.65292	708.32001	 23.40	
 18.691	-15.915	 25.42170	 28.36906	 -1.91481	  6.99187	 16.51332	 -1.04391	 30.65907	708.16199	 23.40	
 18.706	-21.182	 25.37364	 27.81503	 -1.60373	  5.63867	 18.00748	 -1.06299	 30.64331	708.46503	 23.40	
 18.695	-26.463	 25.33447	 27.10383	 -1.15414	  4.37910	 19.49273	 -1.07483	 30.63711	708.33899	 23.40	
 18.704	-31.745	 25.30109	 26.27397	 -0.61939	  3.16198	 20.95269	 -1.09020	 30.66246	708.45801	 23.40	
 18.698	-37.048	 25.23973	 25.27242	 -0.00644	  2.05563	 22.31860	 -1.08748	 30.65420	708.17798	 23.40	
 18.699	-42.375	 25.15516	 24.13882	  0.74761	  1.07055	 23.57080	 -1.05792	 30.62042	708.37500	 23.40	
 18.705	-47.657	 25.12154	 22.94417	  1.59687	  0.18295	 24.80214	 -1.03894	 30.66723	708.26398	 23.40	
 18.713	-52.933	 25.02203	 21.67480	  2.52556	 -0.58751	 25.84519	 -0.99376	 30.64689	708.19299	 23.40	
 18.700	-58.206	 24.96991	 20.36376	  3.57856	 -1.21282	 26.75997	 -0.96254	 30.64727	708.10498	 23.40	
 18.698	-63.496	 24.92948	 18.85123	  4.74411	 -1.82304	 27.53313	 -0.91855	 30.65185	708.11401	 23.40	
 18.707	-68.835	 24.87155	 17.31322	  5.96607	 -2.33410	 28.20443	 -0.93228	 30.66682	708.23999	 23.40	
 18.690	-74.137	 24.82857	 15.70585	  7.27268	 -2.67379	 28.69361	 -0.88874	 30.66912	708.12799	 23.40	
 18.696	-79.417	 24.76975	 14.13018	  8.60642	 -2.98312	 29.03119	 -0.97458	 30.65853	708.08801	 23.40	
 18.700	-84.691	 24.69517	 12.55253	 10.01190	 -3.32876	 29.23288	 -0.95922	 30.63902	708.09802	 23.40	
 18.700	-90.000	 24.67625	 11.05941	 11.50530	 -3.40103	 29.29955	 -0.97125	 30.65072	708.27100	 23.40	
 18.700	-95.309	 24.64259	  9.58695	 12.99748	 -3.41548	 29.20442	 -1.02761	 30.64376	708.10797	 23.40	
 18.696	-100.583	 24.62258	  8.19327	 14.48825	 -3.29481	 28.94371	 -1.12037	 30.61864	708.16199	 23.40	
 18.690	-105.863	 24.65351	  6.86154	 16.08021	 -3.01153	 28.58704	 -1.23414	 30.64568	708.18402	 23.40	
 18.707	-111.165	 24.61269	  5.77757	 17.62907	 -2.77957	 28.06788	 -1.28874	 30.64966	708.16699	 23.40	
 18.698	-116.504	 24.58102	  4.55579	 19.12311	 -2.26527	 27.34114	 -1.36376	 30.60537	708.33398	 23.40	
 18.700	-121.794	 24.58770	  3.44202	 20.55417	 -1.71873	 26.54484	 -1.36909	 30.61758	708.27100	 23.40	
 18.713	-127.067	 24.59173	  2.38019	 21.92625	 -1.09967	 25.60138	 -1.37840	 30.64470	708.19501	 23.40	
 18.705	-132.343	 24.63380	  1.39501	 23.24566	 -0.33649	 24.54936	 -1.36748	 30.67774	708.20099	 23.40	
 18.699	-137.625	 24.62346	  0.53891	 24.41219	  0.57773	 23.31556	 -1.36210	 30.63484	708.21600	 23.40	
 18.698	-142.952	 24.65106	 -0.14807	 25.51328	  1.55014	 22.04066	 -1.36085	 30.66346	708.16400	 23.40	
 18.704	-148.255	 24.66926	 -0.71080	 26.47478	  2.59964	 20.68865	 -1.33051	 30.66959	708.22998	 23.40	
 18.695	-153.537	 24.66250	 -1.22208	 27.26691	  3.79660	 19.21452	 -1.30083	 30.63403	708.07397	 23.40	
 18.706	-158.818	 24.68152	 -1.69531	 27.97489	  5.04478	 17.74515	 -1.27259	 30.67078	708.20898	 23.40	
 18.691	-164.085	 24.69474	 -1.93361	 28.46758	  6.35300	 16.25124	 -1.23552	 30.63589	708.16803	 23.40	
 18.703	-169.441	 24.73563	 -2.12295	 28.85762	  7.79043	 14.69107	 -1.21451	 30.64474	708.18201	 23.40	
 18.709	-174.675	 24.79487	 -2.23928	 29.10456	  9.19435	 13.24017	 -1.23396	 30.66189	708.19800	 23.40	
 18.700	180.000	 24.80223	 -2.24971	 29.11569	 10.60916	 11.74640	 -1.26827	 30.59489	708.37000	 23.40	
 20.400	180.000	 23.65145	 -3.81805	 29.65709	  9.74043	 10.78208	 -1.18231	 30.60233	708.23700	 23.40	
 20.401	-175.153	 23.60079	 -3.82678	 29.59693	  8.31073	 12.23408	 -1.14960	 30.62026	708.20203	 23.40	
 20.407	-170.264	 23.57024	 -3.75407	 29.42426	  6.91903	 13.74134	 -1.12388	 30.64195	708.16803	 23.40	
 20.410	-165.423	 23.51592	 -3.61966	 29.07849	  5.54945	 15.25525	 -1.11616	 30.63353	708.26898	 23.40	
 20.392	-160.496	 23.47446	 -3.41398	 28.58039	  4.25513	 16.72242	 -1.13511	 30.61364	708.11401	 23.40	
 20.401	-155.705	 23.44180	 -3.06797	 27.95663	  2.99393	 18.17148	 -1.16003	 30.59135	708.25500	 23.40	
 20.405	-150.835	 23.46332	 -2.56147	 27.22837	  1.77516	 19.68306	 -1.22684	 30.62898	708.15900	 23.40	
 20.397	-145.903	 23.44580	 -2.00846	 26.32807	  0.70880	 21.09075	 -1.29681	 30.61275	708.21503	 23.40	
 20.392	-141.062	 23.45284	 -1.41262	 25.34096	 -0.23670	 22.41808	 -1.31593	 30.63246	708.10303	 23.40	
 20.396	-136.227	 23.43365	 -0.73237	 24.21329	 -1.09830	 23.66521	 -1.37878	 30.60095	708.22601	 23.40	
 20.408	-131.372	 23.42566	 -0.02681	 23.01536	 -1.87094	 24.83873	 -1.38516	 30.61703	708.11401	 23.40	
 20.410	-126.511	 23.43272	  0.81941	 21.74956	 -2.54805	 25.89510	 -1.36864	 30.62858	708.20099	 23.40	
 20.400	-121.604	 23.43472	  1.87274	 20.38422	 -3.21633	 26.84431	 -1.33346	 30.63576	708.05298	 23.40	
 20.403	-116.741	 23.40517	  3.02511	 18.90707	 -3.81349	 27.64613	 -1.27240	 30.59932	708.23999	 23.40	
 20.413	-111.900	 23.38379	  4.22932	 17.39922	 -4.37758	 28.34455	 -1.22075	 30.59438	708.09698	 23.40	
 20.398	-107.004	 23.38653	  5.53186	 15.84142	 -4.79476	 28.91021	 -1.13180	 30.60290	708.22601	 23.40	
 20.394	-102.132	 23.40671	  6.83066	 14.36921	 -4.87815	 29.30508	 -1.02068	 30.59052	708.11200	 23.40	
 20.403	-97.332	 23.44442	  8.00127	 12.85580	 -4.98488	 29.61173	 -0.96298	 30.62654	708.15002	 23.40	
 20.392	-92.440	 23.45640	  9.42250	 11.32331	 -5.05763	 29.75159	 -0.91143	 30.60932	708.18402	 23.40	
 20.392	-87.560	 23.47720	 10.90272	  9.87488	 -4.98145	 29.76615	 -0.89224	 30.61239	708.13599	 23.40	
 20.403	-82.668	 23.51201	 12.36483	  8.47497	 -4.82170	 29.66582	 -0.88841	 30.62133	708.28900	 23.40	
 20.394	-77.868	 23.55299	 13.89007	  7.11758	 -4.48699	 29.39500	 -0.89356	 30.58928	708.12201	 23.40	
 20.398	-72.996	 23.64485	 15.47007	  5.79886	 -4.15838	 29.04897	 -0.86703	 30.62607	707.92297	 23.40	
 20.413	-68.100	 23.69849	 17.06800	  4.54879	 -3.83044	 28.53608	 -0.84598	 30.63590	707.98700	 23.40	
 20.403	-63.259	 23.76471	 18.57261	  3.37803	 -3.32235	 27.87715	 -0.86397	 30.61909	708.05200	 23.40	
 20.400	-58.396	 23.80871	 20.10123	  2.24010	 -2.79834	 27.07452	 -0.90764	 30.59999	708.07501	 23.40	
 20.410	-53.489	 23.85831	 21.43736	  1.21320	 -2.20413	 26.15051	 -0.94585	 30.59924	708.21503	 23.40	
 20.408	-48.628	 23.90851	 22.66413	  0.30775	 -1.49407	 25.11960	 -0.97388	 30.58595	708.18402	 23.40	
 20.396	-43.773	 24.02578	 23.93515	 -0.49768	 -0.65832	 24.00745	 -0.99925	 30.62456	708.08002	 23.40	
 20.392	-38.938	 24.07286	 25.05733	 -1.22221	  0.26983	 22.76785	 -0.99723	 30.59617	708.13000	 23.40	
 20.397	-34.097	 24.17011	 26.12451	 -1.85487	  1.26209	 21.50252	 -1.00955	 30.64842	708.16400	 23.40	
 20.405	-29.165	 24.19251	 27.03309	 -2.43541	  2.35650	 20.08221	 -1.00220	 30.62520	708.17401	 23.40	
 20.401	-24.295	 24.24002	 27.81448	 -2.90322	  3.57052	 18.62117	 -0.99500	 30.61967	708.21600	 23.40	
 20.392	-19.504	 24.27874	 28.44326	 -3.26337	  4.84404	 17.14659	 -0.98083	 30.60987	708.20203	 23.40	
 20.410	-14.577	 24.29716	 28.95860	 -3.57600	  6.17719	 15.58213	 -0.96896	 30.62126	708.35797	 23.40	
 20.407	 -9.736	 24.28630	 29.27488	 -3.76621	  7.54696	 14.01731	 -0.94131	 30.57234	708.42297	 23.40	
 20.401	 -4.847	 24.30816	 29.50042	 -3.91611	  8.99903	 12.48961	 -0.95022	 30.58700	708.27802	 23.40	
 20.400	  0.000	 24.34813	 29.62637	 -3.97901	 10.48967	 11.01352	 -0.92718	 30.62524	708.15302	 23.40	
 20.401	  4.847	 24.34118	 29.57872	 -3.93755	 12.03302	  9.55083	 -0.90576	 30.61788	708.14697	 23.40	
 20.407	  9.736	 24.33279	 29.39820	 -3.82586	 13.56528	  8.22153	 -0.89035	 30.61569	708.21600	 23.40	
 20.410	 14.577	 24.33959	 29.09394	 -3.63031	 15.09265	  6.85405	 -0.87961	 30.61261	708.10797	 23.40	
 20.392	 19.504	 24.34315	 28.60995	 -3.32970	 16.63248	  5.56033	 -0.86101	 30.58721	708.14697	 23.40	
 20.401	 24.295	 24.36466	 28.04176	 -2.96741	 18.09147	  4.37648	 -0.91664	 30.59831	708.16199	 23.40	
 20.405	 29.165	 24.44157	 27.38618	 -2.50072	 19.60867	  3.22161	 -0.96751	 30.67362	708.14203	 23.40	
 20.397	 34.097	 24.41556	 26.45823	 -1.90015	 21.02425	  2.12031	 -1.04470	 30.61693	708.17902	 23.40	
 20.392	 38.938	 24.44547	 25.49169	 -1.27926	 22.34440	  1.19292	 -1.17302	 30.62492	708.15302	 23.40	
 20.396	 43.773	 24.47868	 24.42353	 -0.55625	 23.58276	  0.35819	 -1.26102	 30.62586	708.26398	 23.40	
 20.408	 48.628	 24.46478	 23.20778	  0.24578	 24.72742	 -0.46119	 -1.32483	 30.61238	708.15302	 23.40	
 20.410	 53.489	 24.48616	 21.91006	  1.15700	 25.78931	 -1.16112	 -1.35778	 30.60908	708.05798	 23.40	
 20.400	 58.396	 24.47320	 20.64047	  2.18348	 26.74212	 -1.88792	 -1.34391	 30.60078	708.09497	 23.40	
 20.403	 63.259	 24.47929	 19.17698	  3.25324	 27.54604	 -2.39588	 -1.33557	 30.60850	708.11603	 23.40	
 20.413	 68.100	 24.48027	 17.63214	  4.46597	 28.25389	 -3.01099	 -1.30924	 30.62420	708.11401	 23.40	
 20.398	 72.996	 24.51398	 16.13548	  5.74131	 28.78224	 -3.21359	 -1.26645	 30.62934	708.00897	 23.40	
 20.394	 77.868	 24.54693	 14.65113	  7.07880	 29.18731	 -3.31514	 -1.19086	 30.63539	708.10602	 23.40	
 20.403	 82.668	 24.51652	 13.16484	  8.42967	 29.43727	 -3.56371	 -1.10759	 30.61890	708.08301	 23.40	
 20.392	 87.560	 24.53513	 11.66060	  9.91793	 29.56919	 -3.61081	 -1.02574	 30.63365	708.15302	 23.40	
 20.392	 92.440	 24.52452	 10.15072	 11.45833	 29.56085	 -3.60193	 -0.98387	 30.62934	708.08502	 23.40	
 20.403	 97.332	 24.48466	  8.68112	 12.97921	 29.40033	 -3.51261	 -0.95564	 30.60828	708.06897	 23.40	
 20.394	102.132	 24.45442	  7.56515	 14.46910	 29.14466	 -3.42290	 -0.97139	 30.62790	708.15601	 23.40	
 20.398	107.004	 24.41061	  6.20896	 16.00861	 28.73133	 -3.20557	 -1.00595	 30.63505	708.17902	 23.40	
 20.413	111.900	 24.31776	  4.90378	 17.49521	 28.11323	 -2.89577	 -0.96813	 30.58574	708.11102	 23.40	
 20.403	116.741	 24.30281	  3.67991	 18.99055	 27.43006	 -2.52482	 -1.03973	 30.62728	708.09198	 23.40	
 20.400	121.604	 24.28756	  2.44196	 20.44785	 26.59356	 -1.99350	 -1.09509	 30.65207	708.06598	 23.40	
 20.410	126.511	 24.21892	  1.33464	 21.82500	 25.62095	 -1.37852	 -1.17445	 30.64064	708.12299	 23.40	
 20.408	131.372	 24.18756	  0.39497	 23.13854	 24.50183	 -0.67979	 -1.25601	 30.64511	708.06403	 23.40	
 20.396	136.227	 24.14353	 -0.39939	 24.33781	 23.24561	  0.15322	 -1.33312	 30.62782	708.04602	 23.40	
 20.392	141.062	 24.11266	 -1.04982	 25.45017	 21.95895	  1.06560	 -1.39989	 30.64698	708.03302	 23.40	
 20.397	145.903	 24.00399	 -1.71250	 26.40762	 20.52945	  2.01046	 -1.39535	 30.61234	707.99597	 23.40	
 20.405	150.835	 23.97985	 -2.34901	 27.35493	 19.02856	  3.10711	 -1.41104	 30.65763	708.12000	 23.40	
 20.401	155.705	 23.88911	 -2.84075	 28.03750	 17.45104	  4.24162	 -1.41428	 30.59793	708.08801	 23.40	
 20.392	160.496	 23.87545	 -3.20926	 28.66809	 15.95384	  5.42466	 -1.41446	 30.64929	708.06403	 23.40	
 20.410	165.423	 23.82070	 -3.49690	 29.15287	 14.35142	  6.70408	 -1.37300	 30.66354	708.00500	 23.40	
 20.407	170.264	 23.77220	 -3.66736	 29.45445	 12.78829	  8.00568	 -1.32906	 30.64944	708.04102	 23.40	
 20.401	175.153	 23.72689	 -3.78145	 29.64179	 11.24893	  9.33551	 -1.25552	 30.64817	708.08301	 23.40	
  0.141	 45.000	 30.69913	 16.88318	 16.48530	 16.19606	 16.80451	  0.30288	 30.64408	708.19202	 23.40	
  4.001	128.691	 30.58895	 14.16221	 18.65502	 18.73212	 13.89852	  0.22239	 30.63869	708.11401	 23.40	
  4.002	 76.995	 30.60426	 17.39558	 15.50788	 19.57366	 13.20515	  0.20290	 30.61087	708.13599	 23.40	
  4.002	 25.892	 30.63454	 19.86096	 13.15150	 17.60640	 15.06179	  0.19082	 30.65015	707.98798	 23.40	
  4.002	-25.892	 30.56247	 19.79690	 13.14305	 14.31730	 18.21689	  0.17207	 30.61028	708.06702	 23.30	
  4.002	-76.995	 30.53659	 17.28024	 15.53540	 12.34828	 20.28014	  0.14049	 30.62425	708.13599	 23.40	
  4.001	-128.691	 30.50778	 14.06630	 18.67274	 12.95825	 19.53617	  0.17022	 30.62635	708.11401	 23.40	
  4.000	180.000	 30.50128	 12.62884	 20.07369	 15.73805	 16.62462	  0.21654	 30.58890	707.93597	 23.30	
  8.000	180.000	 29.84286	  8.65990	 23.27764	 14.94626	 15.92125	 -0.21981	 30.65378	708.00098	 23.40	
  7.991	-152.370	 29.76383	  9.35026	 22.35361	 11.59161	 19.33796	 -0.27635	 30.62750	708.06000	 23.30	
  7.997	-124.550	 29.76863	 11.38645	 19.88164	  9.16605	 22.15074	 -0.34746	 30.64802	707.97101	 23.30	
  8.006	-96.837	 29.76927	 14.63148	 16.48059	  8.09883	 23.47378	 -0.47987	 30.64019	707.98999	 23.30	
  7.988	-69.228	 29.84257	 18.28157	 13.10075	  8.57433	 23.02912	 -0.47211	 30.64377	708.15002	 23.30	
  7.997	-41.563	 29.91998	 21.20173	 10.37852	 10.44005	 20.92261	 -0.29247	 30.62356	708.01202	 23.40	
  8.008	-13.821	 30.02754	 22.89442	  8.91861	 13.53340	 17.68584	 -0.22616	 30.64221	707.98999	 23.30	
  8.008	 13.821	 30.02152	 22.92836	  8.89918	 17.05937	 14.23234	 -0.24617	 30.60730	707.97900	 23.30	
  7.997	 41.563	 30.08321	 21.27596	 10.34203	 20.33449	 11.29767	 -0.25153	 30.64906	707.95001	 23.30	
  7.988	 69.228	 30.05898	 18.53686	 13.03120	 22.43508	  9.44559	 -0.25284	 30.61059	708.08002	 23.30	
  8.006	 96.837	 30.07031	 14.89270	 16.47751	 22.88107	  9.05755	 -0.19962	 30.64695	708.05798	 23.30	
  7.997	124.550	 29.99065	 11.57666	 19.87162	 21.39578	 10.20612	 -0.15640	 30.63783	708.05701	 23.30	
  7.991	152.370	 29.89477	  9.42643	 22.34559	 18.45733	 12.64779	 -0.12707	 30.61468	708.07703	 23.30	
 12.009	161.059	 28.56159	  4.97124	 25.33697	 17.36448	 11.23386	 -0.76946	 30.65088	708.12000	 23.30	
 12.013	142.081	 28.61792	  6.33413	 23.43871	 20.85943	  8.31996	 -0.78990	 30.61737	707.96399	 23.30	
 12.006	123.113	 28.75725	  8.75257	 20.61039	 23.60060	  6.27245	 -0.87003	 30.64078	707.88599	 23.40	
 12.007	104.200	 28.84956	 11.87996	 17.12539	 25.27516	  5.13660	 -0.96224	 30.64118	707.99597	 23.30	
 11.989	 85.301	 28.90196	 15.51249	 13.51006	 25.64394	  4.85521	 -0.92944	 30.64414	708.06702	 23.30	
 12.013	 66.294	 28.88737	 19.24177	 10.09408	 24.72391	  5.53723	 -0.76828	 30.63050	707.98798	 23.30	
 12.012	 47.388	 28.87357	 22.21228	  7.37438	 22.59999	  7.29116	 -0.75593	 30.62782	708.09198	 23.30	
 11.990	 28.440	 28.84346	 24.49775	  5.47005	 19.58430	  9.74692	 -0.87441	 30.63375	708.12598	 23.30	
 11.991	  9.464	 28.80811	 25.68280	  4.56874	 16.01506	 13.01733	 -0.85542	 30.61782	708.00403	 23.30	
 11.991	 -9.464	 28.79153	 25.62677	  4.59424	 12.34443	 16.54746	 -0.86157	 30.63421	708.02698	 23.30	
 11.990	-28.440	 28.71405	 24.32099	  5.53690	  8.98060	 20.09467	 -0.88328	 30.63581	708.14203	 23.30	
 12.012	-47.388	 28.58050	 21.91082	  7.42034	  6.33832	 23.12022	 -0.99018	 30.62457	708.09100	 23.30	
 12.013	-66.294	 28.45345	 18.87330	 10.14479	  4.59897	 25.23955	 -1.10084	 30.63544	707.99597	 23.30	
 11.989	-85.301	 28.34843	 15.07509	 13.50442	  3.71177	 26.09789	 -1.11837	 30.59918	708.04102	 23.30	
 12.007	-104.200	 28.31408	 11.47829	 17.10291	  3.91315	 25.78230	 -1.07806	 30.60835	708.01001	 23.30	
 12.006	-123.113	 28.26535	  8.41356	 20.53703	  4.96538	 24.20447	 -0.90396	 30.59115	708.03003	 23.30	
 12.013	-142.081	 28.35501	  6.15071	 23.46462	  7.15787	 21.63052	 -0.82581	 30.66555	707.85602	 23.30	
 12.009	-161.059	 28.38982	  4.94568	 25.34732	 10.07301	 18.27295	 -0.87015	 30.66348	708.06000	 23.30	
 16.000	180.000	 26.44254	  0.33023	 28.06273	 11.96037	 13.00340	 -1.22798	 30.61432	707.95099	 23.30	
 15.990	-165.604	 26.34456	  0.59602	 27.57074	  8.47374	 16.59155	 -1.26109	 30.61542	708.06897	 23.30	
 16.002	-151.165	 26.28357	  1.56633	 26.13596	  5.34391	 20.10658	 -1.31679	 30.61684	707.96698	 23.30	
 16.002	-136.836	 26.27850	  3.29553	 23.83084	  2.77606	 23.28244	 -1.24313	 30.64958	707.93903	 23.30	
 15.995	-122.439	 26.29294	  5.55419	 20.80523	  0.96901	 25.76439	 -1.31339	 30.63569	708.04602	 23.30	
 15.993	-107.966	 26.29759	  8.22767	 17.31104	 -0.23071	 27.45363	 -1.35942	 30.62983	708.16803	 23.30	
 16.005	-93.629	 26.32157	 11.46169	 13.70954	 -0.74449	 28.24279	 -1.25534	 30.66142	708.02899	 23.30	
 15.992	-79.234	 26.37324	 15.11605	 10.16642	 -0.46474	 28.02797	 -1.12662	 30.64522	708.06097	 23.30	
 16.009	-64.774	 26.48815	 18.89019	  7.03511	  0.56411	 26.87122	 -1.14634	 30.63218	708.08801	 23.30	
 15.997	-50.364	 26.66269	 22.08917	  4.41770	  2.29684	 24.77929	 -1.16358	 30.64223	708.05701	 23.30	
 15.997	-36.045	 26.81355	 24.85564	  2.38397	  4.55177	 21.97337	 -1.15380	 30.65792	708.01801	 23.30	
 16.000	-21.597	 26.91489	 26.82599	  1.00939	  7.44178	 18.57942	 -1.14720	 30.65073	707.93597	 23.30	
 16.003	 -7.169	 26.97493	 27.84998	  0.31144	 10.84761	 14.92908	 -1.10964	 30.64197	708.04602	 23.30	
 16.003	  7.169	 27.00436	 27.92249	  0.34626	 14.40107	 11.37946	 -1.10514	 30.65448	707.96399	 23.30	
 16.000	 21.597	 26.99467	 26.98071	  0.90542	 18.04030	  8.16777	 -1.19919	 30.62627	707.95001	 23.30	
 15.997	 36.045	 27.04408	 25.16114	  2.30538	 21.45341	  5.46756	 -1.20049	 30.63660	707.97302	 23.30	
 15.997	 50.364	 27.09756	 22.52908	  4.32985	 24.34722	  3.23821	 -1.15165	 30.65849	707.97699	 23.30	
 16.009	 64.774	 27.11846	 19.37349	  6.95786	 26.48634	  1.60895	 -1.17364	 30.66156	708.05701	 23.30	
 15.992	 79.234	 27.10452	 15.72105	 10.11854	 27.64495	  0.73304	 -1.26496	 30.63770	708.04901	 23.30	
 16.005	 93.629	 27.08762	 12.03304	 13.71137	 27.86216	  0.59368	 -1.26667	 30.64658	708.12201	 23.30	
 15.993	107.966	 27.00835	  8.69135	 17.34760	 27.05417	  1.16580	 -1.25543	 30.61917	708.15100	 23.30	
 15.995	122.439	 26.92257	  5.94584	 20.87455	 25.32134	  2.24906	 -1.25457	 30.63998	707.97302	 23.30	
 16.002	136.836	 26.82122	  3.66066	 23.91683	 22.66791	  4.12157	 -1.25242	 30.67043	708.05798	 23.30	
 16.002	151.165	 26.65142	  1.84589	 26.14618	 19.32139	  6.61890	 -1.24875	 30.61150	707.89203	 23.30	
 15.990	165.604	 26.60438	  0.74857	 27.62514	 15.71287	  9.63688	 -1.25443	 30.66031	708.00403	 23.30	
 20.003	168.362	 24.05095	 -3.24137	 29.21091	 13.52884	  7.76180	 -1.34220	 30.62768	707.90900	 23.30	
 20.008	156.764	 24.14354	 -2.57291	 28.09268	 17.21527	  4.78151	 -1.41849	 30.59930	708.02899	 23.30	
 20.000	145.147	 24.28741	 -1.27634	 26.22044	 20.78752	  2.20098	 -1.40794	 30.62076	707.95099	 23.30	
 19.995	133.545	 24.47248	  0.37497	 23.71161	 23.95135	  0.03846	 -1.28512	 30.67055	707.92798	 23.30	
 20.009	121.926	 24.50447	  2.74038	 20.57570	 26.41790	 -1.61837	 -1.14264	 30.61762	707.97302	 23.30	
 20.005	110.327	 24.62616	  5.61416	 17.13541	 28.22621	 -2.64753	 -0.97520	 30.60816	707.93402	 23.30	
 19.989	 98.733	 24.76304	  8.52310	 13.59953	 29.22839	 -3.12241	 -0.95053	 30.62539	707.91901	 23.30	
 19.999	 87.075	 24.79168	 11.98146	 10.00416	 29.42223	 -3.24544	 -1.05051	 30.61403	707.80798	 23.30	
 19.992	 75.457	 24.86258	 15.55366	  6.72978	 28.92614	 -2.86742	 -1.22596	 30.67767	707.93903	 23.30	
 20.009	 63.844	 24.79714	 19.10929	  3.73721	 27.57164	 -2.07008	 -1.33365	 30.63992	707.79303	 23.30	
 19.989	 52.269	 24.80485	 22.29013	  1.28587	 25.50433	 -0.62242	 -1.34115	 30.64320	707.89099	 23.30	
 19.999	 40.602	 24.74772	 25.11555	 -0.68434	 22.80574	  1.22965	 -1.20026	 30.65362	707.89801	 23.30	
 20.004	 29.051	 24.65698	 27.27523	 -2.15082	 19.59018	  3.56466	 -0.97846	 30.60821	707.88599	 23.30	
 20.005	 17.433	 24.61739	 28.73377	 -3.10415	 16.11032	  6.37284	 -0.88895	 30.60917	707.91498	 23.30	
 20.006	  5.780	 24.62115	 29.46779	 -3.57569	 12.49910	  9.50590	 -0.90858	 30.64726	707.87000	 23.30	
 20.006	 -5.780	 24.59315	 29.38879	 -3.53193	  8.96576	 12.95472	 -0.93825	 30.61700	707.79102	 23.20	
 20.005	-17.433	 24.57582	 28.61552	 -3.05255	  5.68244	 16.59031	 -0.98004	 30.64556	707.68701	 23.20	
 20.004	-29.051	 24.51266	 27.02711	 -2.08652	  2.73752	 20.08560	 -0.99627	 30.66961	707.69202	 23.20	
 19.999	-40.602	 24.37304	 24.69172	 -0.64886	  0.28928	 23.22507	 -1.02707	 30.64703	707.78003	 23.30	
 19.989	-52.269	 24.20770	 21.76618	  1.33060	 -1.65246	 25.90784	 -0.95802	 30.65302	707.88800	 23.20	
 20.009	-63.844	 24.05184	 18.49338	  3.82399	 -3.03038	 27.87466	 -0.85027	 30.63312	707.92297	 23.30	
 19.992	-75.457	 23.93023	 14.85928	  6.74846	 -3.92160	 29.15043	 -0.86779	 30.63944	707.74298	 23.30	
 19.999	-87.075	 23.79233	 11.28318	  9.96198	 -4.58241	 29.64228	 -0.86736	 30.61501	707.81000	 23.20	
 19.989	-98.733	 23.76037	  7.87923	 13.47766	 -4.54835	 29.44198	 -0.99986	 30.63659	707.90601	 23.20	
 20.005	-110.327	 23.71506	  4.97952	 17.03559	 -4.18019	 28.49444	 -1.18990	 30.65025	707.82898	 23.20	
 20.009	-121.926	 23.73415	  2.20991	 20.51007	 -2.82221	 26.74440	 -1.32031	 30.64629	707.73901	 23.20	
 19.995	-133.545	 23.73658	  0.00256	 23.56639	 -1.15036	 24.31023	 -1.37739	 30.62113	707.83600	 23.20	
 20.000	-145.147	 23.76319	 -1.57016	 26.16018	  0.89083	 21.35979	 -1.29592	 30.65748	707.79901	 23.20	
 20.008	-156.764	 23.77339	 -2.78395	 28.06306	  3.56551	 17.97964	 -1.18193	 30.64078	707.80103	 23.20	
 20.003	-168.362	 23.82250	 -3.32214	 29.18025	  6.68227	 14.47940	 -1.11870	 30.61670	707.70001	 23.20	
 20.000	180.000	 23.96401	 -3.46628	 29.58808	  9.97039	 11.00797	 -1.18563	 30.65787	707.87201	 23.20	
