FileType=PCF
NHL=14
Date=08/30/17	12:52:51
Facility=APL
Serial=16328-18
Customer=NASA
NP=6
Mach=0.250000
Calibration=1:1
CalPts=490
TstPts=95
PortNumbering=AP Standard
Units=Torr C m/s kg/m^3 deg mm 
Theta[deg]	Phi[deg]	P1[Torr]	P2[Torr]	P3[Torr]	P4[Torr]	P5[Torr]	P6[Torr]	Pt[Torr]	Ps[Abs,Torr]	Ts[C]	
  0.000	  0.000	 30.17388	 15.53591	 14.97882	 15.28542	 15.43672	  0.38511	 30.12767	704.63202	 23.30	
  1.691	128.401	 30.21601	 14.56286	 15.94309	 16.54964	 14.15861	  0.36992	 30.17411	706.36902	 23.30	
  1.692	 77.194	 30.20876	 15.87827	 14.57188	 16.86539	 13.83570	  0.36669	 30.15767	706.29602	 23.30	
  1.699	 26.182	 30.15057	 16.92317	 13.48892	 15.94876	 14.65014	  0.37085	 30.11173	704.78003	 23.30	
  1.699	-26.182	 30.16205	 16.92763	 13.52010	 14.52366	 16.09611	  0.35835	 30.12007	704.79303	 23.30	
  1.692	-77.194	 30.19057	 15.85254	 14.61379	 13.71977	 16.96759	  0.34225	 30.14772	704.90100	 23.30	
  1.691	-128.401	 30.20947	 14.52319	 15.97922	 14.03463	 16.68042	  0.35561	 30.15824	706.15601	 23.30	
  1.700	180.000	 30.18050	 13.92099	 16.58417	 15.25535	 15.40469	  0.35721	 30.12392	704.96503	 23.30	
  3.400	180.000	 30.15536	 12.23995	 18.12299	 15.14538	 15.30869	  0.30137	 30.14146	706.24597	 23.30	
  3.388	-152.325	 30.16414	 12.61044	 17.75430	 13.67778	 16.79766	  0.30005	 30.14808	705.91901	 23.30	
  3.397	-124.529	 30.10330	 13.56091	 16.67863	 12.53403	 17.93476	  0.28532	 30.09818	704.71997	 23.30	
  3.399	-96.763	 30.12384	 14.96860	 15.22403	 12.01331	 18.50049	  0.27659	 30.12355	704.70898	 23.30	
  3.394	-69.283	 30.11475	 16.47103	 13.74190	 12.19562	 18.27825	  0.26837	 30.12629	705.73102	 23.30	
  3.400	-41.398	 30.07502	 17.77999	 12.45598	 13.00511	 17.38218	  0.28839	 30.10972	704.76202	 23.30	
  3.401	-14.021	 30.08781	 18.52575	 11.76430	 14.29735	 16.03702	  0.29842	 30.11980	706.41699	 23.30	
  3.401	 14.021	 30.10481	 18.53660	 11.73261	 15.88112	 14.47223	  0.31669	 30.14480	704.81598	 23.30	
  3.400	 41.398	 30.10581	 17.82029	 12.38778	 17.26501	 13.15032	  0.32713	 30.13915	704.93103	 23.30	
  3.394	 69.283	 30.13651	 16.55445	 13.63686	 18.16220	 12.34888	  0.32232	 30.17019	704.79303	 23.30	
  3.399	 96.763	 30.13335	 15.03930	 15.14938	 18.35568	 12.15258	  0.32226	 30.14385	704.80701	 23.30	
  3.397	124.529	 30.14690	 13.62299	 16.63138	 17.83505	 12.68989	  0.31929	 30.14695	704.62500	 23.30	
  3.388	152.325	 30.13246	 12.62421	 17.69060	 16.63370	 13.81123	  0.31605	 30.11636	704.75098	 23.30	
  5.099	161.165	 30.04431	 10.81526	 19.27593	 16.52007	 13.57120	  0.21330	 30.14664	704.64203	 23.30	
  5.109	142.013	 30.01554	 11.51699	 18.44840	 17.93798	 12.19434	  0.13122	 30.12453	706.31500	 23.30	
  5.095	123.033	 30.00570	 12.62669	 17.23232	 19.01515	 11.22578	  0.13529	 30.12213	706.35498	 23.30	
  5.105	104.191	 29.98507	 14.04764	 15.72909	 19.68389	 10.59965	  0.22205	 30.13147	704.77600	 23.40	
  5.093	 85.207	 29.94603	 15.59751	 14.13157	 19.76881	 10.48213	  0.12361	 30.11080	704.73499	 23.40	
  5.104	 66.290	 29.92356	 17.12613	 12.60317	 19.35268	 10.81135	  0.17623	 30.11248	704.73901	 23.40	
  5.094	 47.331	 29.92305	 18.45461	 11.36559	 18.45156	 11.59759	  0.13794	 30.12357	704.78003	 23.40	
  5.089	 28.397	 29.87962	 19.44634	 10.43823	 17.14582	 12.73834	  0.13604	 30.08393	704.72601	 23.40	
  5.096	  9.576	 29.89364	 20.00251	  9.98524	 15.66988	 14.18418	  0.20504	 30.11385	706.39099	 23.40	
  5.096	 -9.576	 29.91579	 20.01140	 10.02714	 14.04965	 15.82860	  0.20028	 30.14116	705.33398	 23.30	
  5.089	-28.397	 29.87990	 19.44323	 10.47484	 12.59753	 17.29719	  0.05943	 30.10203	705.47998	 23.30	
  5.094	-47.331	 29.92257	 18.43640	 11.41371	 11.42676	 18.60912	  0.10387	 30.11321	704.63501	 23.30	
  5.104	-66.290	 29.89438	 17.01215	 12.70355	 10.61332	 19.50248	  0.03361	 30.07450	704.68701	 23.30	
  5.093	-85.207	 29.95643	 15.49455	 14.22921	 10.29180	 19.99390	  0.15046	 30.11829	706.44800	 23.30	
  5.105	-104.191	 29.96939	 13.94255	 15.81133	 10.40168	 19.86418	  0.16492	 30.11764	705.67200	 23.30	
  5.095	-123.033	 29.95110	 12.55192	 17.27512	 10.97594	 19.14137	  0.09189	 30.07993	705.60999	 23.30	
  5.109	-142.013	 29.99147	 11.45482	 18.51634	 12.01033	 18.07172	  0.18766	 30.11032	704.65198	 23.30	
  5.099	-161.165	 29.98876	 10.74473	 19.28817	 13.38928	 16.63091	  0.16295	 30.09389	706.33600	 23.40	
  5.100	180.000	 30.00244	 10.50968	 19.56013	 14.90020	 15.10079	  0.16104	 30.10151	705.18799	 23.40	
  6.800	180.000	 29.75689	  8.73323	 20.95499	 14.61845	 14.78778	 -0.04976	 30.09622	704.90601	 23.40	
  6.796	-166.229	 29.76259	  8.86183	 20.79168	 13.09796	 16.33422	 -0.05151	 30.10949	706.46198	 23.40	
  6.808	-152.311	 29.72091	  9.31812	 20.20269	 11.65351	 17.78911	 -0.06716	 30.07489	705.63800	 23.40	
  6.795	-138.383	 29.70483	 10.12587	 19.27405	 10.42074	 19.11644	 -0.08165	 30.07709	706.45001	 23.40	
  6.792	-124.591	 29.69028	 11.17463	 18.05078	  9.43331	 20.20384	 -0.10890	 30.08335	704.97900	 23.40	
  6.787	-110.754	 29.68074	 12.51387	 16.62610	  8.81683	 20.99735	 -0.14235	 30.08233	705.61700	 23.40	
  6.800	-96.985	 29.67111	 13.98214	 15.11865	  8.50468	 21.37721	 -0.16859	 30.09299	705.30798	 23.40	
  6.800	-83.015	 29.66284	 15.53224	 13.56744	  8.51111	 21.39030	 -0.19941	 30.09789	706.46698	 23.40	
  6.787	-69.246	 29.62297	 17.02933	 12.07216	  8.78703	 20.95063	 -0.18009	 30.07922	705.81000	 23.40	
  6.792	-55.409	 29.59012	 18.44408	 10.71848	  9.39886	 20.16634	 -0.17375	 30.06991	704.72900	 23.40	
  6.795	-41.617	 29.61511	 19.71227	  9.61660	 10.32747	 19.08756	 -0.15556	 30.11115	704.70599	 23.40	
  6.808	-27.689	 29.57333	 20.65232	  8.77191	 11.57082	 17.70802	 -0.13265	 30.08849	704.80402	 23.40	
  6.796	-13.771	 29.58724	 21.23952	  8.31772	 13.00033	 16.24293	 -0.10542	 30.10009	704.80103	 23.40	
  6.800	  0.000	 29.55362	 21.42248	  8.13027	 14.50684	 14.67092	 -0.08644	 30.07361	704.62097	 23.30	
  6.796	 13.771	 29.58410	 21.25383	  8.27635	 16.06808	 13.14529	 -0.07345	 30.10123	704.62402	 23.30	
  6.808	 27.689	 29.59974	 20.71104	  8.72046	 17.55802	 11.73904	 -0.05076	 30.12010	704.75403	 23.30	
  6.795	 41.617	 29.59631	 19.78511	  9.48221	 18.87922	 10.50932	 -0.03866	 30.11139	704.66998	 23.30	
  6.792	 55.409	 29.62175	 18.57236	 10.58836	 19.97432	  9.57963	 -0.03194	 30.11606	704.78497	 23.30	
  6.787	 69.246	 29.62517	 17.15679	 11.91177	 20.74171	  8.96614	 -0.03740	 30.10153	704.96802	 23.30	
  6.800	 83.015	 29.59353	 15.63917	 13.35349	 21.11969	  8.65730	 -0.05237	 30.04485	706.37500	 23.30	
  6.800	 96.985	 29.66519	 14.14078	 14.94076	 21.17325	  8.68533	 -0.06716	 30.09538	704.75403	 23.30	
  6.787	110.754	 29.67113	 12.67308	 16.45987	 20.77430	  9.01831	 -0.06331	 30.07015	704.84601	 23.30	
  6.792	124.591	 29.69703	 11.34368	 17.90851	 20.03935	  9.67468	 -0.06624	 30.07479	704.82898	 23.30	
  6.795	138.383	 29.74040	 10.25472	 19.16154	 18.97652	 10.63952	 -0.05506	 30.09417	704.74902	 23.30	
  6.808	152.311	 29.73725	  9.39198	 20.12794	 17.64947	 11.81691	 -0.03495	 30.08462	705.27100	 23.40	
  6.796	166.229	 29.71094	  8.89738	 20.70527	 16.13635	 13.23623	 -0.04807	 30.05231	706.16400	 23.40	
  8.491	168.704	 29.39285	  7.05083	 22.11432	 15.83930	 12.83705	 -0.26499	 30.08942	704.89502	 23.40	
  8.502	157.493	 29.42182	  7.43822	 21.65490	 17.38175	 11.38163	 -0.26490	 30.12109	704.95398	 23.40	
  8.494	146.194	 29.34369	  8.04913	 20.77813	 18.77582	 10.02165	 -0.25761	 30.05318	704.81500	 23.40	
  8.495	135.039	 29.34652	  9.00521	 19.69928	 20.07381	  8.89537	 -0.28081	 30.07404	704.80798	 23.40	
  8.487	123.723	 29.31623	 10.14782	 18.34834	 21.11170	  8.02152	 -0.30010	 30.05664	704.70898	 23.40	
  8.492	112.575	 29.28631	 11.50133	 16.87110	 21.87555	  7.36323	 -0.29622	 30.04007	704.69800	 23.40	
  8.510	101.220	 29.25359	 12.97664	 15.31671	 22.34908	  6.95168	 -0.31768	 30.05134	704.83899	 23.40	
  8.500	 90.000	 29.27116	 14.52741	 13.77392	 22.49667	  6.85708	 -0.30342	 30.08565	704.82098	 23.40	
  8.510	 78.780	 29.23197	 16.06738	 12.21774	 22.32541	  6.94111	 -0.26279	 30.07527	706.31799	 23.40	
  8.492	 67.425	 29.18016	 17.59013	 10.73413	 21.78406	  7.29988	 -0.23196	 30.04135	704.79901	 23.40	
  8.487	 56.277	 29.19292	 19.02986	  9.42131	 21.01051	  7.94868	 -0.21985	 30.08744	705.19897	 23.40	
  8.495	 44.961	 29.16890	 20.32235	  8.24403	 19.93968	  8.82167	 -0.23358	 30.08071	704.77301	 23.40	
  8.494	 33.806	 29.12759	 21.33120	  7.35106	 18.63466	  9.93522	 -0.24942	 30.06008	704.77698	 23.40	
  8.502	 22.507	 29.13879	 22.12164	  6.75616	 17.22197	 11.26248	 -0.28555	 30.07988	706.36102	 23.40	
  8.491	 11.296	 29.17919	 22.61286	  6.39926	 15.72796	 12.73929	 -0.30826	 30.12648	704.71198	 23.40	
  8.500	  0.000	 29.12459	 22.72690	  6.27173	 14.11673	 14.28447	 -0.32400	 30.05959	704.76001	 23.40	
  8.491	-11.296	 29.12992	 22.55349	  6.41524	 12.56259	 15.88493	 -0.32468	 30.06459	704.72498	 23.40	
  8.502	-22.507	 29.12171	 22.06488	  6.79754	 11.10065	 17.38897	 -0.33991	 30.04782	705.67499	 23.40	
  8.494	-33.806	 29.16449	 21.29451	  7.43976	  9.73530	 18.86701	 -0.37457	 30.08063	706.40601	 23.40	
  8.495	-44.961	 29.14979	 20.22350	  8.35450	  8.58326	 20.14974	 -0.40210	 30.06534	704.78998	 23.40	
  8.487	-56.277	 29.18486	 18.91574	  9.54156	  7.74055	 21.20528	 -0.42436	 30.05510	704.67200	 23.40	
  8.492	-67.425	 29.21097	 17.46484	 10.91192	  7.13854	 22.00459	 -0.43882	 30.06476	706.40302	 23.40	
  8.510	-78.780	 29.20450	 15.92166	 12.38846	  6.75656	 22.50046	 -0.45760	 30.03422	706.32098	 23.40	
  8.500	-90.000	 29.25063	 14.40521	 13.94420	  6.67091	 22.68386	 -0.44336	 30.05767	705.73102	 23.40	
  8.510	-101.220	 29.25123	 12.85117	 15.49660	  6.76793	 22.52293	 -0.40625	 30.05317	704.67297	 23.40	
  8.492	-112.575	 29.26642	 11.34560	 17.05504	  7.16816	 22.02305	 -0.36419	 30.04023	705.71698	 23.40	
  8.487	-123.723	 29.32524	 10.03796	 18.51163	  7.80422	 21.27036	 -0.33264	 30.07953	704.78003	 23.40	
  8.495	-135.039	 29.30978	  8.86179	 19.80527	  8.68410	 20.21605	 -0.31530	 30.05754	705.84302	 23.40	
  8.494	-146.194	 29.35787	  8.00884	 20.88607	  9.84735	 18.95886	 -0.30517	 30.08879	704.71399	 23.40	
  8.502	-157.493	 29.34154	  7.36154	 21.65525	 11.21069	 17.48520	 -0.30158	 30.05244	704.78497	 23.40	
  8.491	-168.704	 29.34476	  7.01532	 22.11482	 12.68367	 15.96826	 -0.29292	 30.05047	704.71802	 23.40	
  8.500	180.000	 29.37838	  6.91106	 22.29129	 14.24504	 14.41079	 -0.28512	 30.07984	704.90900	 23.40	
 10.200	180.000	 28.91911	  5.06640	 23.55012	 13.82144	 13.95845	 -0.53278	 30.08612	704.70099	 23.40	
 10.191	-170.497	 28.87323	  5.13945	 23.39714	 12.22428	 15.54211	 -0.53692	 30.05672	704.78400	 23.40	
 10.210	-161.034	 28.88033	  5.44856	 23.01689	 10.74012	 17.10136	 -0.56672	 30.07444	704.73700	 23.40	
 10.194	-151.526	 28.88227	  5.96295	 22.36190	  9.32570	 18.62099	 -0.55112	 30.08899	704.77002	 23.40	
 10.190	-142.105	 28.89093	  6.68792	 21.46850	  8.02189	 20.04018	 -0.52423	 30.12982	704.84198	 23.40	
 10.215	-132.646	 28.79406	  7.57786	 20.28491	  6.89265	 21.22628	 -0.52531	 30.05407	704.87000	 23.40	
 10.203	-123.092	 28.79580	  8.76669	 18.93482	  6.03312	 22.28359	 -0.56845	 30.06429	704.85999	 23.40	
 10.192	-113.678	 28.77615	 10.11108	 17.46715	  5.43224	 23.07630	 -0.61971	 30.06172	704.66699	 23.40	
 10.208	-104.249	 28.76620	 11.55286	 15.92292	  4.96699	 23.64151	 -0.66935	 30.07347	704.71698	 23.40	
 10.210	-94.801	 28.78002	 13.11930	 14.35029	  4.73617	 23.94395	 -0.70623	 30.10715	704.75403	 23.40	
 10.210	-85.199	 28.72522	 14.71419	 12.70898	  4.73874	 23.91521	 -0.74223	 30.07745	704.73901	 23.40	
 10.208	-75.751	 28.68866	 16.24415	 11.14531	  4.94660	 23.61582	 -0.74804	 30.06016	704.78003	 23.40	
 10.192	-66.322	 28.68213	 17.79601	  9.73433	  5.38220	 23.05288	 -0.73468	 30.06480	704.68903	 23.40	
 10.203	-56.908	 28.63253	 19.25695	  8.35818	  5.96629	 22.24858	 -0.70385	 30.05214	704.78003	 23.40	
 10.215	-47.354	 28.60835	 20.61739	  7.11089	  6.77721	 21.19694	 -0.66667	 30.05297	704.71997	 23.40	
 10.190	-37.895	 28.64199	 21.79514	  6.14857	  7.87206	 19.95617	 -0.61453	 30.08754	704.81299	 23.40	
 10.194	-28.474	 28.64430	 22.72862	  5.40355	  9.18458	 18.55106	 -0.59025	 30.09190	704.64099	 23.40	
 10.210	-18.966	 28.61212	 23.40718	  4.83931	 10.57553	 17.01790	 -0.57424	 30.07326	704.71997	 23.40	
 10.191	 -9.503	 28.56450	 23.78628	  4.49068	 12.05470	 15.42334	 -0.57460	 30.03923	704.74500	 23.40	
 10.200	  0.000	 28.55989	 23.93572	  4.35950	 13.61990	 13.82283	 -0.55872	 30.03222	704.70898	 23.40	
 10.191	  9.503	 28.59557	 23.83664	  4.45844	 15.24977	 12.23582	 -0.55434	 30.07026	704.82098	 23.40	
 10.210	 18.966	 28.58413	 23.44929	  4.74819	 16.78710	 10.75815	 -0.55906	 30.07023	704.70398	 23.40	
 10.194	 28.474	 28.59689	 22.77784	  5.28476	 18.29639	  9.36882	 -0.52179	 30.05740	704.61902	 23.40	
 10.190	 37.895	 28.59066	 21.87173	  5.99381	 19.69360	  8.09698	 -0.49873	 30.04619	704.76801	 23.40	
 10.215	 47.354	 28.61211	 20.77362	  6.94962	 20.97333	  7.01094	 -0.46534	 30.07255	704.63599	 23.40	
 10.203	 56.908	 28.66901	 19.46983	  8.16289	 22.03738	  6.17593	 -0.45745	 30.09306	704.67798	 23.40	
 10.192	 66.322	 28.67310	 18.00852	  9.50072	 22.83006	  5.54113	 -0.47740	 30.06985	704.72803	 23.40	
 10.208	 75.751	 28.66052	 16.44801	 10.88632	 23.37910	  5.08438	 -0.51627	 30.03014	704.76599	 23.40	
 10.210	 85.199	 28.73844	 14.91990	 12.47748	 23.72228	  4.90080	 -0.56097	 30.07849	704.73499	 23.40	
 10.210	 94.801	 28.74078	 13.31329	 14.08208	 23.73170	  4.91358	 -0.59041	 30.04923	704.78003	 23.40	
 10.208	104.249	 28.79641	 11.76091	 15.63741	 23.48583	  5.16627	 -0.60404	 30.08265	704.74200	 23.40	
 10.192	113.678	 28.85163	 10.31730	 17.22731	 22.94952	  5.66566	 -0.58506	 30.09879	704.63599	 23.40	
 10.203	123.092	 28.85399	  8.97970	 18.71811	 22.17345	  6.26270	 -0.56851	 30.08139	704.75702	 23.40	
 10.215	132.646	 28.86304	  7.77225	 20.11013	 21.15362	  7.09847	 -0.54189	 30.07893	705.26398	 23.40	
 10.190	142.105	 28.85533	  6.77492	 21.27483	 19.88111	  8.19771	 -0.50908	 30.04926	704.63599	 23.40	
 10.194	151.526	 28.88928	  6.03420	 22.24259	 18.48668	  9.46910	 -0.50519	 30.05863	704.70599	 23.40	
 10.210	161.034	 28.90941	  5.50540	 22.97909	 16.99159	 10.86787	 -0.49704	 30.08405	704.59100	 23.40	
 10.191	170.497	 28.90907	  5.18908	 23.37451	 15.43187	 12.35914	 -0.51353	 30.07368	704.65601	 23.40	
 11.899	171.783	 28.29024	  3.31135	 24.53864	 14.94204	 11.80376	 -0.76558	 30.03803	704.73499	 23.40	
 11.890	163.610	 28.32474	  3.59813	 24.20216	 16.53353	 10.33054	 -0.73984	 30.07405	704.84601	 23.40	
 11.889	155.445	 28.28912	  4.05254	 23.55362	 18.05466	  8.90047	 -0.73471	 30.04070	704.81897	 23.40	
 11.909	147.299	 28.29526	  4.64213	 22.74238	 19.54849	  7.53315	 -0.73848	 30.07043	704.73401	 23.40	
 11.902	139.148	 28.26711	  5.50465	 21.67115	 20.88154	  6.34166	 -0.73748	 30.05854	704.74298	 23.40	
 11.894	130.867	 28.29318	  6.57107	 20.43261	 22.08372	  5.35223	 -0.77722	 30.08871	704.78400	 23.40	
 11.897	122.732	 28.26191	  7.74128	 19.04293	 23.07324	  4.58771	 -0.81941	 30.07570	704.75201	 23.40	
 11.903	114.597	 28.23367	  9.02752	 17.54947	 23.87312	  3.93974	 -0.85594	 30.06842	704.83801	 23.40	
 11.893	106.346	 28.19698	 10.47313	 15.93822	 24.43382	  3.44045	 -0.87235	 30.06332	704.78802	 23.40	
 11.892	 98.155	 28.16470	 12.03219	 14.30470	 24.77246	  3.16451	 -0.86617	 30.05623	704.67999	 23.40	
 11.900	 90.000	 28.14877	 13.62773	 12.76120	 24.89469	  3.04023	 -0.84787	 30.07846	704.82898	 23.40	
 11.892	 81.845	 28.09204	 15.20362	 11.17289	 24.70918	  3.15741	 -0.80020	 30.04614	704.88397	 23.40	
 11.893	 73.654	 28.06220	 16.74721	  9.65284	 24.32233	  3.41239	 -0.74466	 30.03137	704.69800	 23.40	
 11.903	 65.403	 28.07847	 18.32779	  8.23755	 23.75226	  3.81146	 -0.70080	 30.09626	705.62299	 23.40	
 11.897	 57.268	 28.03189	 19.76705	  6.92163	 22.88823	  4.48675	 -0.66576	 30.07382	704.76001	 23.40	
 11.894	 49.133	 27.99796	 21.09367	  5.75975	 21.84086	  5.32358	 -0.66315	 30.05587	704.79102	 23.40	
 11.902	 40.852	 27.97706	 22.28748	  4.72518	 20.63519	  6.31662	 -0.71340	 30.05520	704.65900	 23.40	
 11.909	 32.701	 27.95771	 23.28046	  3.88733	 19.29817	  7.46798	 -0.75823	 30.06669	704.78497	 23.40	
 11.889	 24.555	 27.94820	 24.04358	  3.29795	 17.81180	  8.80471	 -0.79387	 30.04909	704.75403	 23.40	
 11.890	 16.390	 27.94162	 24.60490	  2.88319	 16.28578	 10.21866	 -0.80705	 30.04498	704.66602	 23.40	
 11.899	  8.217	 27.97169	 24.99037	  2.57365	 14.73857	 11.71594	 -0.80313	 30.08590	704.78497	 23.40	
 11.900	  0.000	 27.93749	 25.06947	  2.48034	 13.08735	 13.28935	 -0.79600	 30.05144	704.79303	 23.40	
 11.899	 -8.217	 27.93544	 24.94106	  2.59189	 11.50786	 14.91758	 -0.81287	 30.04540	704.84399	 23.40	
 11.890	-16.390	 27.94680	 24.56983	  2.89467	 10.00881	 16.50185	 -0.81486	 30.04507	704.79102	 23.40	
 11.889	-24.555	 27.95780	 23.98329	  3.38380	  8.59423	 18.05096	 -0.82429	 30.04794	704.69702	 23.40	
 11.909	-32.701	 27.97525	 23.18716	  4.02674	  7.28237	 19.52212	 -0.83433	 30.05273	704.81598	 23.40	
 11.902	-40.852	 27.99081	 22.17012	  4.84609	  6.05748	 20.87577	 -0.85405	 30.06185	704.68103	 23.40	
 11.894	-49.133	 27.99505	 20.92957	  5.87838	  5.05502	 22.10199	 -0.89743	 30.05570	704.67200	 23.40	
 11.897	-57.268	 28.01855	 19.57388	  7.11703	  4.27251	 23.13084	 -0.94479	 30.05161	704.77698	 23.40	
 11.903	-65.403	 28.04102	 18.10008	  8.43107	  3.65814	 23.95275	 -0.97574	 30.06003	704.73401	 23.40	
 11.893	-73.654	 28.07934	 16.52839	  9.87363	  3.24956	 24.53981	 -0.97846	 30.06076	704.90802	 23.40	
 11.892	-81.845	 28.14724	 14.99686	 11.42057	  2.98833	 24.93239	 -0.97734	 30.10094	704.89398	 23.50	
 11.900	-90.000	 28.13430	 13.39108	 12.99991	  2.86881	 25.03907	 -0.95773	 30.07862	704.75897	 23.50	
 11.892	-98.155	 28.15084	 11.80632	 14.62266	  2.99498	 24.90593	 -0.93563	 30.05432	704.80499	 23.50	
 11.893	-106.346	 28.19854	 10.28617	 16.23979	  3.28245	 24.59174	 -0.88589	 30.08979	704.97900	 23.50	
 11.903	-114.597	 28.19012	  8.83892	 17.80073	  3.70530	 24.00488	 -0.83803	 30.07837	704.87701	 23.40	
 11.897	-122.732	 28.22138	  7.53977	 19.28904	  4.34008	 23.20748	 -0.78118	 30.09728	704.98499	 23.50	
 11.894	-130.867	 28.21648	  6.32499	 20.63714	  5.12672	 22.17009	 -0.74085	 30.08179	704.87000	 23.40	
 11.902	-139.148	 28.21070	  5.33114	 21.83053	  6.17728	 20.93249	 -0.74109	 30.04322	704.99298	 23.40	
 11.909	-147.299	 28.30144	  4.58347	 22.89300	  7.40237	 19.64496	 -0.79248	 30.11838	704.91400	 23.40	
 11.889	-155.445	 28.28547	  3.98278	 23.65475	  8.77842	 18.13931	 -0.81839	 30.07488	704.86401	 23.40	
 11.890	-163.610	 28.26091	  3.53073	 24.20451	 10.20154	 16.59332	 -0.81126	 30.03260	704.84399	 23.40	
 11.899	-171.783	 28.28739	  3.25938	 24.57771	 11.71720	 15.02904	 -0.79486	 30.04471	704.88300	 23.50	
 11.900	180.000	 28.32393	  3.18973	 24.70021	 13.31559	 13.43181	 -0.78860	 30.07433	704.90302	 23.40	
 13.600	180.000	 27.59278	  1.29765	 25.72654	 12.73460	 12.80818	 -1.01883	 30.03659	704.83899	 23.50	
 13.608	-172.853	 27.60851	  1.36328	 25.66778	 11.16845	 14.41432	 -1.05129	 30.07155	704.89203	 23.50	
 13.611	-165.583	 27.58762	  1.59559	 25.35895	  9.62031	 16.02432	 -1.06966	 30.06475	704.92200	 23.50	
 13.601	-158.353	 27.55397	  1.99173	 24.81836	  8.14035	 17.57245	 -1.06566	 30.03864	704.94000	 23.50	
 13.609	-151.210	 27.53525	  2.50776	 24.10932	  6.81772	 19.07401	 -1.05124	 30.03827	704.79303	 23.50	
 13.611	-143.999	 27.53018	  3.22499	 23.22471	  5.52152	 20.49733	 -0.98773	 30.06346	704.84698	 23.50	
 13.601	-136.825	 27.53068	  4.02292	 22.15670	  4.35554	 21.83420	 -0.92555	 30.09282	704.86902	 23.50	
 13.596	-129.640	 27.47183	  4.99175	 20.88527	  3.36405	 22.98595	 -0.93002	 30.05375	704.93103	 23.50	
 13.611	-122.431	 27.46458	  6.18727	 19.51121	  2.60011	 23.98633	 -0.96671	 30.06467	704.89398	 23.50	
 13.604	-115.211	 27.45560	  7.45857	 18.03754	  1.99530	 24.80050	 -1.02965	 30.05978	705.04102	 23.40	
 13.595	-108.042	 27.44851	  8.86208	 16.49004	  1.55425	 25.41393	 -1.06744	 30.06100	704.96002	 23.50	
 13.607	-100.793	 27.42091	 10.33145	 14.88416	  1.19820	 25.83588	 -1.13261	 30.06076	704.94000	 23.40	
 13.601	-93.617	 27.42123	 11.91480	 13.27156	  1.00864	 26.07513	 -1.11945	 30.09181	704.95300	 23.50	
 13.601	-86.383	 27.36807	 13.52350	 11.61782	  0.99942	 26.04131	 -1.11648	 30.05936	704.92200	 23.50	
 13.607	-79.207	 27.37102	 15.11211	 10.05704	  1.19828	 25.84977	 -1.12106	 30.08607	704.90601	 23.50	
 13.595	-71.958	 27.32717	 16.69696	  8.55141	  1.49904	 25.40023	 -1.11786	 30.04820	704.90900	 23.50	
 13.604	-64.789	 27.29887	 18.25015	  7.14796	  1.92667	 24.78563	 -1.13217	 30.05346	704.91400	 23.50	
 13.611	-57.569	 27.26048	 19.72406	  5.85736	  2.49245	 23.96940	 -1.10827	 30.04756	704.99597	 23.50	
 13.596	-50.360	 27.27160	 21.13040	  4.68165	  3.27583	 22.98944	 -1.07217	 30.07786	704.92603	 23.50	
 13.601	-43.175	 27.25257	 22.38828	  3.63557	  4.26333	 21.80327	 -1.03957	 30.07390	704.93903	 23.50	
 13.611	-36.001	 27.22860	 23.47659	  2.71153	  5.39727	 20.44434	 -1.01503	 30.04587	704.97101	 23.50	
 13.609	-28.790	 27.18131	 24.36929	  1.99182	  6.59687	 18.98842	 -1.01041	 30.00423	704.90601	 23.50	
 13.601	-21.647	 27.23087	 25.14496	  1.42832	  7.92819	 17.52872	 -1.00684	 30.08112	704.85498	 23.50	
 13.611	-14.417	 27.21503	 25.68302	  0.99979	  9.38185	 15.95282	 -0.98979	 30.07272	704.70300	 23.50	
 13.608	 -7.147	 27.19792	 25.98805	  0.72700	 10.90573	 14.32016	 -0.99271	 30.06048	704.93201	 23.50	
 13.600	  0.000	 27.19027	 26.09041	  0.62836	 12.46793	 12.71583	 -0.97494	 30.06179	704.90802	 23.50	
 13.608	  7.147	 27.19717	 26.01391	  0.68513	 14.08593	 11.13249	 -0.98188	 30.06609	704.88397	 23.50	
 13.611	 14.417	 27.19778	 25.70219	  0.98942	 15.68596	  9.62141	 -0.98902	 30.05879	704.88300	 23.50	
 13.601	 21.647	 27.21616	 25.21038	  1.36968	 17.26682	  8.19762	 -1.00619	 30.07891	704.77698	 23.50	
 13.609	 28.790	 27.16911	 24.48310	  1.88423	 18.74437	  6.82879	 -0.98258	 30.02168	704.96198	 23.50	
 13.611	 36.001	 27.19433	 23.60980	  2.57018	 20.17323	  5.59937	 -0.95213	 30.04273	704.98499	 23.50	
 13.601	 43.175	 27.24990	 22.56587	  3.44693	 21.49637	  4.53017	 -0.89281	 30.08026	704.99402	 23.50	
 13.596	 50.360	 27.24510	 21.31914	  4.46066	 22.66276	  3.57767	 -0.86010	 30.04459	704.94000	 23.50	
 13.611	 57.569	 27.26458	 19.97300	  5.59996	 23.70622	  2.74105	 -0.86426	 30.05319	704.84998	 23.50	
 13.604	 64.789	 27.31371	 18.52323	  6.88222	 24.58011	  2.08556	 -0.90513	 30.08691	704.91803	 23.50	
 13.595	 71.958	 27.32080	 16.96304	  8.26448	 25.18474	  1.61812	 -0.94005	 30.04147	704.97699	 23.50	
 13.607	 79.207	 27.34233	 15.42150	  9.73083	 25.64036	  1.29085	 -1.02411	 30.05366	705.00201	 23.50	
 13.601	 86.383	 27.39011	 13.84373	 11.22713	 25.87182	  1.17497	 -1.06144	 30.05653	704.97900	 23.50	
 13.601	 93.617	 27.41947	 12.23328	 12.85432	 25.89607	  1.19004	 -1.06872	 30.05532	704.94202	 23.50	
 13.607	100.793	 27.47242	 10.68260	 14.50381	 25.72994	  1.35810	 -1.08146	 30.07496	704.85303	 23.50	
 13.595	108.042	 27.48423	  9.17660	 16.12683	 25.30569	  1.69787	 -1.08684	 30.05592	704.89203	 23.50	
 13.604	115.211	 27.51776	  7.77453	 17.70294	 24.72807	  2.14242	 -1.08352	 30.06244	704.93103	 23.50	
 13.611	122.431	 27.50010	  6.45262	 19.19865	 23.89612	  2.78534	 -1.06485	 30.02695	704.98102	 23.50	
 13.596	129.640	 27.59373	  5.33701	 20.65153	 22.94717	  3.64094	 -1.02172	 30.09141	704.87500	 23.50	
 13.601	136.825	 27.59049	  4.28577	 21.91147	 21.77575	  4.56818	 -0.97896	 30.06659	704.90900	 23.50	
 13.611	143.999	 27.56404	  3.36879	 23.02080	 20.47082	  5.63266	 -0.95853	 30.03611	704.95001	 23.50	
 13.609	151.210	 27.61238	  2.63720	 24.00591	 19.07858	  6.89722	 -0.96966	 30.07587	704.90900	 23.50	
 13.601	158.353	 27.59521	  2.10973	 24.73092	 17.53592	  8.26119	 -0.97194	 30.04129	704.84698	 23.50	
 13.611	165.583	 27.60476	  1.66226	 25.30391	 15.97439	  9.71274	 -0.99283	 30.05728	704.83002	 23.50	
 13.608	172.853	 27.62127	  1.37860	 25.64432	 14.37505	 11.24280	 -1.01974	 30.07733	704.77002	 23.50	
 15.298	173.587	 26.78942	 -0.47874	 26.54985	 13.72293	 10.56622	 -1.22119	 30.02973	704.88397	 23.50	
 15.291	167.167	 26.83181	 -0.19971	 26.28866	 15.30791	  9.08818	 -1.20938	 30.06999	704.82202	 23.50	
 15.307	160.676	 26.83151	  0.16382	 25.81372	 16.91203	  7.60818	 -1.19424	 30.07250	704.77002	 23.60	
 15.300	154.261	 26.81478	  0.67956	 25.12201	 18.45879	  6.22825	 -1.18199	 30.05839	704.79102	 23.50	
 15.288	147.854	 26.79479	  1.30919	 24.24652	 19.89173	  4.98924	 -1.16462	 30.03982	704.81097	 23.60	
 15.293	141.428	 26.80768	  2.06897	 23.25028	 21.28395	  3.84713	 -1.16563	 30.05727	704.83002	 23.60	
 15.299	134.985	 26.76493	  3.00489	 22.05130	 22.55237	  2.77385	 -1.17243	 30.04822	704.78198	 23.60	
 15.305	128.583	 26.75183	  4.01704	 20.76064	 23.68904	  1.84523	 -1.21433	 30.06240	704.93903	 23.60	
 15.309	122.142	 26.69992	  5.15695	 19.31708	 24.62127	  1.06161	 -1.22159	 30.02273	704.86902	 23.60	
 15.304	115.711	 26.69583	  6.44018	 17.81921	 25.43086	  0.46884	 -1.22262	 30.04813	704.97101	 23.60	
 15.297	109.291	 26.67169	  7.79933	 16.24858	 26.04910	  0.03214	 -1.20266	 30.04696	704.87500	 23.60	
 15.293	102.897	 26.66551	  9.25731	 14.66086	 26.49858	 -0.27106	 -1.17320	 30.06694	704.91803	 23.60	
 15.293	 96.458	 26.63874	 10.77935	 13.03295	 26.75076	 -0.48694	 -1.17111	 30.06224	705.09998	 23.60	
 15.300	 90.000	 26.59999	 12.35572	 11.40139	 26.82768	 -0.56087	 -1.18457	 30.06230	704.92603	 23.60	
 15.293	 83.542	 26.59282	 13.93971	  9.80956	 26.72207	 -0.46597	 -1.18528	 30.07762	704.95697	 23.60	
 15.293	 77.103	 26.53745	 15.51216	  8.33451	 26.37787	 -0.23744	 -1.16208	 30.04276	704.97101	 23.60	
 15.297	 70.709	 26.53243	 17.08872	  6.90590	 25.91895	  0.07088	 -1.11837	 30.07892	704.87799	 23.60	
 15.304	 64.289	 26.47748	 18.59332	  5.57461	 25.22500	  0.52354	 -1.07841	 30.05088	704.90900	 23.60	
 15.309	 57.858	 26.43005	 20.04206	  4.33143	 24.38797	  1.05987	 -1.04084	 30.03810	704.85199	 23.60	
 15.305	 51.417	 26.43821	 21.43086	  3.21231	 23.40895	  1.86014	 -1.02827	 30.07002	704.94598	 23.60	
 15.299	 45.015	 26.42681	 22.69778	  2.20693	 22.24967	  2.81567	 -1.04401	 30.07045	704.86401	 23.60	
 15.293	 38.572	 26.42731	 23.82426	  1.36123	 20.95837	  3.87066	 -1.07905	 30.06950	704.98798	 23.60	
 15.288	 32.146	 26.37322	 24.76982	  0.59494	 19.57215	  4.96105	 -1.10740	 30.05432	704.96198	 23.60	
 15.300	 25.739	 26.36086	 25.58006	 -0.04230	 18.12704	  6.16512	 -1.11312	 30.07434	705.06299	 23.60	
 15.307	 19.324	 26.32384	 26.18710	 -0.52157	 16.56461	  7.51046	 -1.10270	 30.03324	705.10797	 23.60	
 15.291	 12.833	 26.35866	 26.65901	 -0.85446	 15.01209	  8.97638	 -1.07620	 30.07602	705.00098	 23.60	
 15.298	  6.413	 26.36160	 26.93050	 -1.08492	 13.42358	 10.47242	 -1.06680	 30.07535	705.00500	 23.60	
 15.300	  0.000	 26.32591	 26.97813	 -1.17038	 11.78097	 12.03808	 -1.06648	 30.03415	704.95697	 23.60	
 15.298	 -6.413	 26.32900	 26.87801	 -1.07160	 10.22657	 13.62601	 -1.12132	 30.03071	705.06403	 23.60	
 15.291	-12.833	 26.35377	 26.61243	 -0.83506	  8.71917	 15.24272	 -1.10207	 30.05993	705.00098	 23.70	
 15.307	-19.324	 26.37824	 26.16347	 -0.45433	  7.24094	 16.84066	 -1.11884	 30.07818	705.03302	 23.70	
 15.300	-25.739	 26.39232	 25.49489	  0.06824	  5.89919	 18.39395	 -1.11825	 30.06102	704.94598	 23.70	
 15.288	-32.146	 26.40299	 24.65228	  0.70662	  4.68954	 19.86011	 -1.12324	 30.05464	705.03497	 23.70	
 15.293	-38.572	 26.39957	 23.65312	  1.46993	  3.55166	 21.25611	 -1.11677	 30.04624	704.88397	 23.70	
 15.299	-45.015	 26.41059	 22.50665	  2.37418	  2.53196	 22.53990	 -1.14532	 30.05241	704.90802	 23.70	
 15.305	-51.417	 26.40332	 21.21964	  3.40514	  1.64860	 23.63743	 -1.16411	 30.03013	704.95697	 23.70	
 15.309	-57.858	 26.45130	 19.84535	  4.53803	  0.89495	 24.64013	 -1.19874	 30.05712	704.96198	 23.70	
 15.304	-64.289	 26.46904	 18.35981	  5.79743	  0.28321	 25.45881	 -1.19444	 30.05087	704.98700	 23.70	
 15.297	-70.709	 26.50812	 16.82456	  7.17547	 -0.16675	 26.12667	 -1.16699	 30.07387	704.95697	 23.70	
 15.293	-77.103	 26.50598	 15.22774	  8.62286	 -0.49435	 26.56394	 -1.11154	 30.03571	704.94202	 23.70	
 15.293	-83.542	 26.52568	 13.61654	 10.16454	 -0.69639	 26.84671	 -1.11167	 30.03684	705.00800	 23.70	
 15.300	-90.000	 26.56274	 12.02569	 11.74520	 -0.76084	 26.96078	 -1.13917	 30.05332	704.96002	 23.70	
 15.293	-96.458	 26.59946	 10.43410	 13.39982	 -0.72347	 26.87833	 -1.19491	 30.06817	704.99402	 23.70	
 15.293	-102.897	 26.58966	  8.89770	 15.01052	 -0.46898	 26.56525	 -1.20679	 30.02954	704.89801	 23.70	
 15.297	-109.291	 26.63893	  7.45979	 16.62181	 -0.12871	 26.14850	 -1.20322	 30.07393	704.93701	 23.70	
 15.304	-115.711	 26.65161	  6.09221	 18.17881	  0.33695	 25.50379	 -1.18323	 30.07404	705.06000	 23.70	
 15.309	-122.142	 26.66982	  4.86759	 19.65875	  0.95590	 24.69336	 -1.14082	 30.07647	705.01801	 23.70	
 15.305	-128.583	 26.68601	  3.75950	 21.03572	  1.70154	 23.70411	 -1.13186	 30.06747	705.06000	 23.70	
 15.299	-134.985	 26.69843	  2.80696	 22.28121	  2.65195	 22.58069	 -1.13881	 30.06053	705.02899	 23.70	
 15.293	-141.428	 26.73260	  1.89892	 23.43660	  3.74447	 21.31081	 -1.17681	 30.07121	704.97900	 23.70	
 15.288	-147.854	 26.76870	  1.19631	 24.44201	  4.90778	 19.93718	 -1.24581	 30.08829	704.93201	 23.70	
 15.300	-154.261	 26.73933	  0.51938	 25.20983	  6.12309	 18.45763	 -1.28684	 30.04253	705.03302	 23.70	
 15.307	-160.676	 26.77013	  0.06033	 25.86976	  7.49668	 16.93867	 -1.29710	 30.05915	705.02698	 23.70	
 15.291	-167.167	 26.79017	 -0.27042	 26.31587	  8.99457	 15.34262	 -1.28073	 30.05236	705.08099	 23.70	
 15.298	-173.587	 26.80306	 -0.47272	 26.59847	 10.52948	 13.74403	 -1.25779	 30.06798	704.93903	 23.70	
 15.300	180.000	 26.79924	 -0.55419	 26.66781	 12.10377	 12.13275	 -1.23663	 30.03992	705.02899	 23.70	
 17.000	180.000	 25.89123	 -2.35662	 27.51255	 11.38412	 11.40656	 -1.35195	 30.04792	705.00500	 23.70	
 16.990	-174.179	 25.90615	 -2.28895	 27.46560	  9.82813	 12.99100	 -1.36941	 30.08463	704.98499	 23.70	
 17.009	-168.383	 25.84404	 -2.11222	 27.18355	  8.29090	 14.53477	 -1.36405	 30.02448	705.08600	 23.70	
 17.000	-162.596	 25.85702	 -1.78745	 26.78454	  6.82706	 16.16158	 -1.38349	 30.04602	704.95300	 23.70	
 16.990	-156.759	 25.88660	 -1.38296	 26.25222	  5.46341	 17.73204	 -1.39876	 30.09341	704.95001	 23.70	
 16.995	-150.919	 25.83043	 -0.81937	 25.47474	  4.15660	 19.20568	 -1.39320	 30.04236	705.06403	 23.70	
 16.988	-145.161	 25.85450	 -0.18967	 24.60569	  2.99381	 20.67047	 -1.36229	 30.08680	705.04303	 23.70	
 17.014	-139.343	 25.78197	  0.58723	 23.54703	  1.90790	 21.97749	 -1.30917	 30.04380	705.10602	 23.70	
 17.007	-133.546	 25.80441	  1.47218	 22.39119	  0.97022	 23.22440	 -1.28451	 30.07959	705.09100	 23.70	
 17.001	-127.699	 25.77018	  2.45308	 21.06225	  0.06083	 24.33478	 -1.27243	 30.06994	705.18103	 23.70	
 17.006	-121.937	 25.73701	  3.50394	 19.66746	 -0.68913	 25.29283	 -1.28009	 30.06175	705.01599	 23.70	
 17.002	-116.134	 25.72277	  4.68130	 18.20342	 -1.30278	 26.11185	 -1.26954	 30.06798	705.06403	 23.70	
 17.001	-110.310	 25.68574	  6.00168	 16.64008	 -1.79728	 26.77792	 -1.25898	 30.06348	705.12598	 23.70	
 16.988	-104.517	 25.68364	  7.41284	 15.07826	 -2.11785	 27.25631	 -1.21181	 30.06479	704.91699	 23.70	
 17.008	-98.662	 25.64133	  8.88735	 13.45152	 -2.39875	 27.58482	 -1.15848	 30.03918	705.03302	 23.70	
 16.996	-92.909	 25.63230	 10.44146	 11.82411	 -2.52907	 27.75427	 -1.09043	 30.05750	704.97900	 23.70	
 16.996	-87.091	 25.58142	 12.01147	 10.24123	 -2.54723	 27.72219	 -1.06034	 30.02572	705.08301	 23.70	
 17.012	-81.253	 25.60130	 13.63262	  8.70644	 -2.44699	 27.62439	 -1.01658	 30.09526	704.98199	 23.70	
 16.988	-75.483	 25.55987	 15.19524	  7.22713	 -2.19513	 27.25402	 -1.04964	 30.05195	705.01300	 23.70	
 17.001	-69.690	 25.53118	 16.77058	  5.80189	 -1.86477	 26.77108	 -1.08314	 30.05176	704.98199	 23.70	
 17.002	-63.866	 25.52269	 18.32408	  4.47883	 -1.38125	 26.12163	 -1.07159	 30.05566	705.05499	 23.70	
 17.006	-58.063	 25.51723	 19.80483	  3.25872	 -0.77426	 25.30783	 -1.10567	 30.06786	705.01599	 23.70	
 17.001	-52.301	 25.48293	 21.19025	  2.14402	 -0.03849	 24.31636	 -1.15113	 30.04650	705.14203	 23.70	
 17.007	-46.454	 25.45646	 22.49334	  1.14162	  0.79025	 23.18561	 -1.15584	 30.02508	705.09802	 23.70	
 17.014	-40.657	 25.47673	 23.70166	  0.26017	  1.72072	 21.99616	 -1.16294	 30.06614	705.15698	 23.70	
 16.988	-34.839	 25.48480	 24.76132	 -0.50532	  2.72995	 20.64416	 -1.13791	 30.06200	705.09698	 23.70	
 16.995	-29.081	 25.46526	 25.66594	 -1.16847	  3.91075	 19.20608	 -1.14259	 30.05596	705.06000	 23.70	
 16.990	-23.241	 25.45078	 26.43352	 -1.71041	  5.15864	 17.70613	 -1.13186	 30.05707	705.07001	 23.70	
 17.000	-17.404	 25.40825	 27.01731	 -2.23681	  6.51198	 16.10739	 -1.10952	 30.04262	705.01202	 23.70	
 17.009	-11.617	 25.37715	 27.42426	 -2.60898	  7.96522	 14.47690	 -1.09030	 30.02684	705.04303	 23.70	
 16.990	 -5.821	 25.41350	 27.70590	 -2.83842	  9.47984	 12.93494	 -1.08089	 30.07707	704.94000	 23.70	
 17.000	  0.000	 25.40205	 27.79355	 -2.89902	 11.05061	 11.33526	 -1.05622	 30.06585	705.04303	 23.70	
 16.990	  5.821	 25.41010	 27.72476	 -2.83056	 12.66828	  9.76312	 -1.05390	 30.07327	704.98499	 23.70	
 17.009	 11.617	 25.41324	 27.50649	 -2.63318	 14.24101	  8.26850	 -1.04256	 30.09339	705.02899	 23.60	
 17.000	 17.404	 25.39470	 27.07705	 -2.30682	 15.79120	  6.85012	 -1.07788	 30.05982	705.02600	 23.60	
 16.990	 23.241	 25.42112	 26.53540	 -1.90153	 17.35036	  5.50032	 -1.08049	 30.08438	705.05701	 23.60	
 16.995	 29.081	 25.41986	 25.79460	 -1.36258	 18.82792	  4.22087	 -1.13615	 30.05667	705.07800	 23.60	
 16.988	 34.839	 25.46310	 24.92030	 -0.68419	 20.26922	  3.07702	 -1.16127	 30.06577	704.94800	 23.60	
 17.014	 40.657	 25.45023	 23.88461	  0.03975	 21.63365	  1.99692	 -1.17118	 30.05471	704.96002	 23.60	
 17.007	 46.454	 25.46060	 22.72441	  0.89669	 22.89470	  0.97668	 -1.14748	 30.06819	705.12903	 23.60	
 17.001	 52.301	 25.47728	 21.41637	  1.92075	 24.02840	  0.15754	 -1.16376	 30.05422	705.10602	 23.60	
 17.006	 58.063	 25.50102	 20.05650	  3.01606	 25.01631	 -0.52110	 -1.18647	 30.05342	705.00800	 23.60	
 17.002	 63.866	 25.53387	 18.60150	  4.19549	 25.86469	 -1.08674	 -1.21765	 30.05758	705.03198	 23.60	
 17.001	 69.690	 25.50996	 17.06927	  5.43550	 26.50508	 -1.55102	 -1.24650	 30.01411	704.95697	 23.60	
 16.988	 75.483	 25.59254	 15.54215	  6.86178	 27.08159	 -1.89553	 -1.27143	 30.07399	705.12903	 23.60	
 17.012	 81.253	 25.60174	 13.97397	  8.25439	 27.44371	 -2.15367	 -1.24781	 30.06818	705.05200	 23.60	
 16.996	 87.091	 25.64571	 12.37118	  9.81711	 27.63387	 -2.26287	 -1.19165	 30.06219	705.16998	 23.60	
 16.996	 92.909	 25.67888	 10.80226	 11.41989	 27.66210	 -2.29937	 -1.16399	 30.06832	705.14502	 23.60	
 17.008	 98.662	 25.72990	  9.32204	 13.04511	 27.54692	 -2.19229	 -1.14995	 30.09380	705.10303	 23.60	
 16.988	104.517	 25.76907	  7.84346	 14.68037	 27.21638	 -1.89766	 -1.15637	 30.07849	704.89398	 23.60	
 17.001	110.310	 25.75521	  6.40182	 16.24561	 26.72137	 -1.57877	 -1.19392	 30.04349	704.94202	 23.60	
 17.002	116.134	 25.80540	  5.06675	 17.83261	 26.10208	 -1.14562	 -1.26105	 30.07029	705.07800	 23.60	
 17.006	121.937	 25.81382	  3.85198	 19.32383	 25.28265	 -0.58887	 -1.29102	 30.05242	705.00800	 23.60	
 17.001	127.699	 25.83887	  2.74304	 20.73788	 24.32555	  0.11801	 -1.31083	 30.04086	705.09698	 23.60	
 17.007	133.546	 25.83942	  1.66193	 22.07372	 23.20961	  0.96182	 -1.31285	 30.03144	705.02600	 23.60	
 17.014	139.343	 25.88880	  0.75271	 23.31520	 21.99829	  1.95633	 -1.34112	 30.05630	705.04901	 23.60	
 16.988	145.161	 25.93421	 -0.01865	 24.40228	 20.65039	  3.06161	 -1.35417	 30.06923	705.04999	 23.60	
 16.995	150.919	 25.94239	 -0.68272	 25.32463	 19.24678	  4.22233	 -1.36361	 30.07380	705.08801	 23.60	
 16.990	156.759	 25.94301	 -1.23790	 26.10840	 17.75608	  5.50608	 -1.37819	 30.07662	705.09802	 23.60	
 17.000	162.596	 25.91840	 -1.68132	 26.72500	 16.16547	  6.88840	 -1.38986	 30.05891	705.09100	 23.60	
 17.009	168.383	 25.90820	 -2.02881	 27.15677	 14.57403	  8.34031	 -1.38283	 30.05714	705.14203	 23.60	
 16.990	174.179	 25.92795	 -2.23020	 27.42764	 13.00054	  9.84416	 -1.37557	 30.07612	705.11902	 23.60	
 18.709	174.675	 24.92155	 -3.96875	 28.16687	 12.20740	  9.06415	 -1.43172	 30.07322	705.19000	 23.60	
 18.703	169.441	 24.90350	 -3.73819	 27.90519	 13.74727	  7.59737	 -1.47070	 30.03852	705.04303	 23.60	
 18.691	164.085	 24.95553	 -3.36275	 27.54537	 15.39197	  6.15626	 -1.46617	 30.09037	705.07397	 23.60	
 18.706	158.818	 24.93953	 -2.92824	 26.96535	 16.94041	  4.77695	 -1.48194	 30.05470	705.14697	 23.60	
 18.695	153.537	 24.94726	 -2.44078	 26.24363	 18.43435	  3.51391	 -1.48731	 30.04101	705.10303	 23.60	
 18.704	148.255	 24.92901	 -1.90126	 25.39142	 19.88159	  2.33208	 -1.48211	 30.03864	705.10303	 23.60	
 18.698	142.952	 24.93507	 -1.19175	 24.40701	 21.29952	  1.26381	 -1.43867	 30.04231	705.28302	 23.60	
 18.699	137.625	 24.91048	 -0.43916	 23.33176	 22.62522	  0.14388	 -1.37788	 30.06760	705.15698	 23.60	
 18.705	132.343	 24.85965	  0.43955	 22.07177	 23.77937	 -0.75343	 -1.32041	 30.03096	705.16803	 23.60	
 18.713	127.067	 24.84923	  1.41800	 20.74924	 24.87593	 -1.57111	 -1.26416	 30.06479	705.18799	 23.50	
 18.700	121.794	 24.82309	  2.55884	 19.30363	 25.81952	 -2.23516	 -1.20123	 30.05220	705.12299	 23.50	
 18.698	116.504	 24.77815	  3.74167	 17.78481	 26.61509	 -2.76105	 -1.13086	 30.04020	705.10498	 23.60	
 18.707	111.165	 24.76288	  5.02609	 16.25221	 27.26186	 -3.14375	 -1.04887	 30.03125	705.12799	 23.50	
 18.690	105.863	 24.75125	  6.38843	 14.66199	 27.76951	 -3.51240	 -0.99680	 30.05403	705.08600	 23.50	
 18.696	100.583	 24.71631	  7.82584	 13.06112	 28.10403	 -3.80214	 -0.96508	 30.05558	705.16199	 23.50	
 18.700	 95.309	 24.65018	  9.25049	 11.44283	 28.25328	 -3.93298	 -0.97319	 29.99937	705.21802	 23.50	
 18.700	 90.000	 24.65532	 10.80446	  9.86049	 28.32567	 -3.94961	 -1.03676	 30.02679	705.22101	 23.50	
 18.700	 84.691	 24.61590	 12.36333	  8.30588	 28.21767	 -3.86461	 -1.13360	 30.02014	705.18201	 23.50	
 18.696	 79.417	 24.58226	 13.93680	  6.83745	 27.96794	 -3.67643	 -1.19003	 30.01672	705.24902	 23.50	
 18.690	 74.137	 24.59427	 15.53352	  5.45990	 27.60369	 -3.40301	 -1.23746	 30.05274	705.15399	 23.50	
 18.707	 68.835	 24.56432	 17.05934	  4.11721	 27.07772	 -3.07110	 -1.25066	 30.07363	705.21600	 23.50	
 18.698	 63.496	 24.55069	 18.57752	  2.87712	 26.38055	 -2.61858	 -1.25571	 30.07646	705.14502	 23.50	
 18.700	 58.206	 24.52895	 20.00193	  1.78383	 25.52891	 -2.04841	 -1.23100	 30.06975	705.24597	 23.50	
 18.713	 52.933	 24.48993	 21.38406	  0.69341	 24.53909	 -1.38340	 -1.21349	 30.06223	705.08801	 23.50	
 18.705	 47.657	 24.46511	 22.66469	 -0.26312	 23.41731	 -0.62859	 -1.17444	 30.04808	705.04303	 23.50	
 18.699	 42.375	 24.43491	 23.83180	 -1.14626	 22.20750	  0.23757	 -1.13252	 30.03660	705.21301	 23.50	
 18.698	 37.048	 24.43104	 24.90756	 -1.88991	 20.87417	  1.30398	 -1.05417	 30.03952	705.13702	 23.50	
 18.704	 31.745	 24.41835	 25.88647	 -2.56158	 19.45736	  2.40648	 -1.03023	 30.04299	705.25403	 23.50	
 18.695	 26.463	 24.37115	 26.64945	 -3.12222	 17.97868	  3.52825	 -0.95871	 30.00677	705.21503	 23.50	
 18.706	 21.182	 24.35581	 27.32154	 -3.61498	 16.50335	  4.75924	 -0.91896	 30.02787	705.23297	 23.60	
 18.691	 15.915	 24.32228	 27.78160	 -3.97596	 14.94205	  6.11440	 -0.91070	 29.99175	705.12201	 23.50	
 18.703	 10.559	 24.33798	 28.17908	 -4.27725	 13.38837	  7.53022	 -0.90727	 30.02014	705.14502	 23.50	
 18.709	  5.325	 24.32464	 28.38857	 -4.50248	 11.83554	  8.95925	 -0.92605	 30.02151	705.22400	 23.50	
 18.700	  0.000	 24.35731	 28.47087	 -4.51213	 10.26022	 10.54789	 -0.93193	 30.05260	705.21198	 23.50	
 18.709	 -5.325	 24.33324	 28.37910	 -4.48468	  8.68966	 12.08864	 -0.92857	 30.02133	705.15302	 23.50	
 18.703	-10.559	 24.38612	 28.19515	 -4.22924	  7.24197	 13.70013	 -0.96097	 30.06804	705.15997	 23.50	
 18.691	-15.915	 24.37499	 27.75963	 -3.86783	  5.78905	 15.31005	 -0.98189	 30.01796	705.09399	 23.50	
 18.706	-21.182	 24.43434	 27.27407	 -3.45312	  4.44626	 16.87811	 -1.01861	 30.06362	705.06702	 23.50	
 18.695	-26.463	 24.42300	 26.54498	 -2.94143	  3.18670	 18.37053	 -1.03722	 30.01591	705.11102	 23.50	
 18.704	-31.745	 24.45190	 25.74541	 -2.37147	  1.99198	 19.85844	 -1.07522	 30.06231	705.10797	 23.50	
 18.698	-37.048	 24.49545	 24.78903	 -1.67604	  0.93377	 21.26425	 -1.03019	 30.08390	705.12299	 23.50	
 18.699	-42.375	 24.51362	 23.69389	 -0.89251	  0.01081	 22.55421	 -1.06097	 30.08513	705.14203	 23.50	
 18.705	-47.657	 24.48949	 22.45873	 -0.02257	 -0.80392	 23.72770	 -1.02845	 30.05255	705.13098	 23.50	
 18.713	-52.933	 24.48549	 21.14826	  0.92157	 -1.57828	 24.81236	 -0.98209	 30.05467	705.15900	 23.50	
 18.700	-58.206	 24.49800	 19.72177	  1.99931	 -2.25064	 25.73771	 -0.95192	 30.02105	705.08899	 23.50	
 18.698	-63.496	 24.50035	 18.25503	  3.17575	 -2.83424	 26.54392	 -0.90063	 30.02148	704.96002	 23.50	
 18.707	-68.835	 24.54839	 16.74943	  4.46409	 -3.33231	 27.24949	 -0.86216	 30.05880	705.01599	 23.50	
 18.690	-74.137	 24.54491	 15.17563	  5.82510	 -3.68727	 27.72396	 -0.88811	 30.00896	705.11499	 23.50	
 18.696	-79.417	 24.55926	 13.60843	  7.23952	 -3.98336	 28.10767	 -0.90191	 30.02582	705.12000	 23.50	
 18.700	-84.691	 24.59388	 12.02910	  8.73172	 -4.18142	 28.35193	 -0.90544	 30.05531	705.08899	 23.50	
 18.700	-90.000	 24.62576	 10.46297	 10.24150	 -4.23310	 28.42603	 -0.91040	 30.05462	705.13599	 23.50	
 18.700	-95.309	 24.62219	  8.88330	 11.85747	 -4.07493	 28.31695	 -0.98118	 30.00398	705.11200	 23.50	
 18.696	-100.583	 24.64610	  7.39386	 13.44603	 -3.93605	 28.10532	 -1.05132	 30.01617	705.13098	 23.50	
 18.690	-105.863	 24.68826	  5.98653	 15.04406	 -3.65147	 27.75466	 -1.13196	 30.03780	705.13098	 23.50	
 18.707	-111.165	 24.70056	  4.60680	 16.62338	 -3.30993	 27.26224	 -1.21727	 30.05928	705.21503	 23.50	
 18.698	-116.504	 24.70688	  3.35258	 18.13560	 -2.82890	 26.57222	 -1.29104	 30.03730	705.12000	 23.50	
 18.700	-121.794	 24.72138	  2.23032	 19.57433	 -2.23168	 25.76773	 -1.29700	 30.02822	705.26300	 23.50	
 18.713	-127.067	 24.74021	  1.17242	 20.97971	 -1.51850	 24.81759	 -1.33436	 30.02735	705.29901	 23.50	
 18.705	-132.343	 24.75808	  0.24372	 22.28273	 -0.68766	 23.72487	 -1.35201	 30.01628	705.20502	 23.50	
 18.699	-137.625	 24.79396	 -0.61034	 23.49644	  0.20152	 22.52291	 -1.36975	 30.01553	705.16803	 23.50	
 18.698	-142.952	 24.83756	 -1.38419	 24.60778	  1.16616	 21.26339	 -1.36547	 30.05026	705.11401	 23.50	
 18.704	-148.255	 24.84904	 -2.05389	 25.57546	  2.25192	 19.88451	 -1.35770	 30.05605	705.03900	 23.50	
 18.695	-153.537	 24.84666	 -2.56902	 26.37963	  3.48971	 18.39770	 -1.33129	 30.02435	705.14502	 23.50	
 18.706	-158.818	 24.87331	 -3.10384	 27.08417	  4.77431	 16.89042	 -1.29951	 30.04767	705.19299	 23.40	
 18.691	-164.085	 24.86765	 -3.48886	 27.59035	  6.13507	 15.33602	 -1.28532	 30.04371	705.13098	 23.50	
 18.703	-169.441	 24.87429	 -3.80233	 27.96303	  7.59674	 13.71792	 -1.27688	 30.03890	705.15698	 23.40	
 18.709	-174.675	 24.88161	 -3.99527	 28.18454	  9.07978	 12.14697	 -1.29464	 30.05061	705.25702	 23.40	
 18.700	180.000	 24.85929	 -4.08644	 28.22016	 10.59336	 10.58368	 -1.31815	 30.02246	705.15900	 23.40	
 20.400	180.000	 23.81716	 -5.66999	 28.85244	  9.78585	  9.76805	 -1.25037	 30.05475	705.16699	 23.40	
 20.401	-175.153	 23.80726	 -5.59329	 28.80041	  8.29825	 11.25509	 -1.23824	 30.05506	705.08301	 23.40	
 20.407	-170.264	 23.78054	 -5.40477	 28.57887	  6.84804	 12.85165	 -1.20018	 30.02871	705.21503	 23.40	
 20.410	-165.423	 23.77761	 -5.16357	 28.26670	  5.40997	 14.43879	 -1.17691	 30.04441	705.29901	 23.40	
 20.392	-160.496	 23.81074	 -4.75572	 27.81138	  4.06936	 16.04218	 -1.18298	 30.06947	705.25500	 23.40	
 20.401	-155.705	 23.75959	 -4.31284	 27.15761	  2.78246	 17.50707	 -1.20048	 30.02304	705.15997	 23.40	
 20.405	-150.835	 23.77298	 -3.81210	 26.43351	  1.53868	 19.03297	 -1.24447	 30.05338	705.23199	 23.40	
 20.397	-145.903	 23.73478	 -3.21022	 25.50023	  0.44897	 20.42284	 -1.30104	 30.01321	705.18402	 23.40	
 20.392	-141.062	 23.75710	 -2.54109	 24.53174	 -0.50589	 21.76017	 -1.34365	 30.05783	705.14502	 23.40	
 20.396	-136.227	 23.73289	 -1.83075	 23.41383	 -1.41802	 23.01511	 -1.38690	 30.05234	705.05701	 23.40	
 20.408	-131.372	 23.69538	 -1.01402	 22.18064	 -2.26701	 24.18895	 -1.38266	 30.05800	705.16498	 23.40	
 20.410	-126.511	 23.67064	 -0.09534	 20.86279	 -2.96466	 25.22140	 -1.34072	 30.04345	705.18103	 23.40	
 20.400	-121.604	 23.64898	  0.91443	 19.46703	 -3.61667	 26.13545	 -1.32072	 30.02160	705.10303	 23.40	
 20.403	-116.741	 23.61461	  2.03321	 18.01420	 -4.19486	 26.94267	 -1.22417	 30.01726	705.19800	 23.40	
 20.413	-111.900	 23.59137	  3.21686	 16.51952	 -4.69460	 27.63694	 -1.12363	 30.03682	705.16199	 23.40	
 20.398	-107.004	 23.58095	  4.50997	 14.97143	 -5.10796	 28.18411	 -1.04824	 30.03791	705.14502	 23.40	
 20.394	-102.132	 23.55441	  5.88309	 13.39922	 -5.41042	 28.58398	 -0.95437	 30.04150	705.23602	 23.40	
 20.403	-97.332	 23.52339	  7.29825	 11.84052	 -5.64131	 28.84807	 -0.89606	 30.04125	705.24597	 23.40	
 20.392	-92.440	 23.50521	  8.81206	 10.26225	 -5.71197	 28.96447	 -0.88439	 30.02987	705.16803	 23.40	
 20.392	-87.560	 23.45281	 10.33995	  8.69158	 -5.83599	 28.96679	 -0.84832	 30.02477	705.08600	 23.40	
 20.403	-82.668	 23.44040	 11.88709	  7.20757	 -5.78039	 28.86087	 -0.84534	 30.04845	705.23199	 23.40	
 20.394	-77.868	 23.41788	 13.43521	  5.79628	 -5.46819	 28.56271	 -0.84771	 30.00311	705.12799	 23.40	
 20.398	-72.996	 23.43172	 15.01791	  4.42320	 -5.17016	 28.20231	 -0.83460	 30.04342	705.12903	 23.40	
 20.413	-68.100	 23.39740	 16.56733	  3.11101	 -4.76987	 27.63474	 -0.82941	 30.02329	705.03302	 23.40	
 20.403	-63.259	 23.41231	 18.07724	  1.90913	 -4.27368	 26.96537	 -0.86905	 30.03468	705.11499	 23.30	
 20.400	-58.396	 23.38988	 19.52588	  0.78590	 -3.70693	 26.15509	 -0.88919	 30.02109	705.23297	 23.30	
 20.410	-53.489	 23.37204	 20.93773	 -0.25551	 -3.09069	 25.22578	 -0.89934	 30.03469	705.18799	 23.30	
 20.408	-48.628	 23.32069	 22.21529	 -1.19662	 -2.41363	 24.14570	 -0.97997	 29.99092	705.15698	 23.30	
 20.396	-43.773	 23.36695	 23.51487	 -2.07899	 -1.65743	 23.01529	 -0.97586	 30.02777	705.25500	 23.30	
 20.392	-38.938	 23.32612	 24.60309	 -2.84898	 -0.76772	 21.71874	 -0.99476	 29.97670	705.20398	 23.30	
 20.397	-34.097	 23.31987	 25.61488	 -3.49727	  0.15147	 20.41936	 -0.94174	 29.99789	705.23999	 23.30	
 20.405	-29.165	 23.29582	 26.50846	 -4.12813	  1.21935	 19.00046	 -0.94659	 30.01578	705.17798	 23.30	
 20.401	-24.295	 23.30378	 27.29942	 -4.66865	  2.42945	 17.50783	 -0.94672	 30.02504	705.13098	 23.30	
 20.392	-19.504	 23.31805	 27.93610	 -5.10061	  3.69123	 16.01636	 -0.91867	 30.04800	705.07397	 23.30	
 20.410	-14.577	 23.23959	 28.39429	 -5.50209	  5.01092	 14.40619	 -0.88811	 30.00912	705.11200	 23.30	
 20.407	 -9.736	 23.24961	 28.77514	 -5.81547	  6.41863	 12.84527	 -0.87864	 30.03800	705.14203	 23.30	
 20.401	 -4.847	 23.20729	 28.93506	 -6.00384	  7.91805	 11.24576	 -0.86625	 30.00155	705.21503	 23.30	
 20.400	  0.000	 23.23079	 29.03825	 -6.07592	  9.41629	  9.74264	 -0.85999	 30.04094	705.24701	 23.30	
 20.401	  4.847	 23.23684	 28.99817	 -6.03905	 10.96644	  8.23798	 -0.83978	 30.05698	705.19800	 23.30	
 20.407	  9.736	 23.19934	 28.76654	 -5.87112	 12.49112	  6.77920	 -0.85123	 30.00780	705.17798	 23.30	
 20.410	 14.577	 23.22379	 28.49714	 -5.64618	 14.04281	  5.36840	 -0.82707	 30.04827	705.33301	 23.30	
 20.392	 19.504	 23.24395	 27.99998	 -5.28580	 15.60609	  4.04033	 -0.83118	 30.03034	705.24597	 23.30	
 20.401	 24.295	 23.26936	 27.42163	 -4.84827	 17.09056	  2.84413	 -0.83882	 30.04388	705.23297	 23.30	
 20.405	 29.165	 23.26550	 26.66339	 -4.33263	 18.54827	  1.72318	 -0.88848	 30.00872	705.28601	 23.30	
 20.397	 34.097	 23.25531	 25.77518	 -3.75092	 20.00712	  0.53193	 -0.94383	 29.99282	705.17401	 23.30	
 20.392	 38.938	 23.28011	 24.79689	 -3.08374	 21.37354	 -0.53196	 -0.99607	 30.00024	705.21503	 23.30	
 20.396	 43.773	 23.32956	 23.73953	 -2.30764	 22.65925	 -1.41207	 -1.09701	 30.02727	705.19598	 23.30	
 20.408	 48.628	 23.28785	 22.49197	 -1.48182	 23.81002	 -2.27278	 -1.17667	 29.98341	705.25500	 23.30	
 20.410	 53.489	 23.34901	 21.22572	 -0.55246	 24.93991	 -3.01892	 -1.21200	 30.03531	705.15302	 23.30	
 20.400	 58.396	 23.36139	 19.82779	  0.50201	 25.90425	 -3.68497	 -1.23552	 30.02899	705.10498	 23.30	
 20.403	 63.259	 23.37116	 18.36098	  1.58403	 26.71598	 -4.19593	 -1.24712	 30.00129	705.18201	 23.30	
 20.413	 68.100	 23.41387	 16.91905	  2.74126	 27.43130	 -4.65703	 -1.23282	 30.02515	705.14301	 23.30	
 20.398	 72.996	 23.44221	 15.40005	  4.01766	 28.00529	 -4.98806	 -1.20618	 30.02260	705.21301	 23.30	
 20.394	 77.868	 23.46551	 13.84017	  5.31021	 28.43433	 -5.23415	 -1.16161	 30.01270	705.24402	 23.30	
 20.403	 82.668	 23.47903	 12.29752	  6.71077	 28.72698	 -5.45196	 -1.05748	 30.01196	705.22101	 23.30	
 20.392	 87.560	 23.51575	 10.75062	  8.22203	 28.89079	 -5.58009	 -1.00566	 30.02284	705.29102	 23.30	
 20.392	 92.440	 23.55439	  9.21100	  9.78150	 28.93199	 -5.63945	 -0.93303	 30.03679	705.14697	 23.30	
 20.403	 97.332	 23.56520	  7.72949	 11.35410	 28.80108	 -5.54618	 -0.86374	 30.01717	705.22302	 23.30	
 20.394	102.132	 23.60513	  6.36945	 12.94733	 28.55036	 -5.33214	 -0.85843	 30.00267	705.15900	 23.30	
 20.398	107.004	 23.67180	  5.00268	 14.56039	 28.22097	 -5.04966	 -0.87643	 30.05810	705.11102	 23.30	
 20.413	111.900	 23.67257	  3.69399	 16.11354	 27.66338	 -4.67343	 -0.95996	 30.00766	705.26398	 23.30	
 20.403	116.741	 23.71762	  2.50479	 17.63638	 27.01769	 -4.22550	 -1.03116	 30.02135	705.08301	 23.30	
 20.400	121.604	 23.73231	  1.39682	 19.10328	 26.21772	 -3.71014	 -1.10230	 30.00792	705.14502	 23.30	
 20.410	126.511	 23.75132	  0.33807	 20.53136	 25.30048	 -3.10516	 -1.21257	 30.00431	705.20502	 23.30	
 20.408	131.372	 23.77428	 -0.63304	 21.88335	 24.22641	 -2.36477	 -1.32020	 29.98796	705.16699	 23.30	
 20.396	136.227	 23.80906	 -1.50399	 23.13959	 23.07763	 -1.52497	 -1.37140	 29.99427	705.23999	 23.30	
 20.392	141.062	 23.85939	 -2.28345	 24.31467	 21.87281	 -0.58806	 -1.43485	 30.03661	705.15997	 23.30	
 20.397	145.903	 23.86777	 -3.00845	 25.35368	 20.49698	  0.54601	 -1.44747	 30.01602	705.16803	 23.30	
 20.405	150.835	 23.88126	 -3.57954	 26.27986	 19.06191	  1.64706	 -1.44347	 30.02440	705.05200	 23.30	
 20.401	155.705	 23.88662	 -4.06218	 27.04621	 17.60431	  2.77651	 -1.44302	 30.02508	705.11401	 23.30	
 20.392	160.496	 23.84995	 -4.48645	 27.62459	 16.09990	  4.00469	 -1.42917	 29.99204	705.09399	 23.30	
 20.410	165.423	 23.78391	 -4.95393	 28.10560	 14.46204	  5.36583	 -1.39071	 29.95141	704.98499	 23.30	
 20.407	170.264	 23.80371	 -5.29645	 28.50107	 12.90442	  6.77256	 -1.35641	 29.99442	705.12598	 23.30	
 20.401	175.153	 23.76599	 -5.55687	 28.69682	 11.33077	  8.21708	 -1.32137	 29.97405	705.09698	 23.30	
  0.141	 45.000	 30.02952	 15.53071	 14.82486	 15.28000	 15.28677	  0.38505	 29.97106	705.07397	 23.30	
  4.001	128.691	 29.96288	 12.96049	 17.04357	 17.96660	 12.30498	  0.29847	 29.98213	705.14301	 23.30	
  4.002	 76.995	 29.92308	 16.11597	 13.79904	 18.65530	 11.61714	  0.25842	 29.98218	705.16998	 23.30	
  4.002	 25.892	 29.92535	 18.68203	 11.33484	 16.62103	 13.48309	  0.28034	 30.01001	705.10797	 23.30	
  4.002	-25.892	 29.92231	 18.66915	 11.40090	 13.35204	 16.74822	  0.21954	 30.00109	705.02100	 23.30	
  4.002	-76.995	 29.96003	 16.05738	 13.88206	 11.44672	 18.83383	  0.23454	 30.00733	705.03497	 23.30	
  4.001	-128.691	 29.96608	 12.93655	 17.10823	 12.13057	 18.10878	  0.23237	 29.99080	705.07001	 23.30	
  4.000	180.000	 30.00281	 11.59713	 18.55435	 15.00283	 15.19499	  0.27437	 29.99970	705.09698	 23.30	
  8.000	180.000	 29.42384	  7.43744	 21.84814	 14.33148	 14.46719	 -0.19133	 30.00549	705.11499	 23.30	
  7.991	-152.370	 29.38181	  8.10091	 20.95102	 10.87997	 17.98999	 -0.21416	 29.97548	705.10303	 23.30	
  7.997	-124.550	 29.35172	 10.25339	 18.41544	  8.27742	 20.87622	 -0.25401	 29.99196	705.25702	 23.30	
  8.006	-96.837	 29.29949	 13.55564	 14.92848	  7.19887	 22.20395	 -0.34361	 29.98218	705.15100	 23.30	
  7.988	-69.228	 29.26388	 17.11439	 11.39693	  7.53497	 21.71859	 -0.34591	 29.98116	705.17401	 23.30	
  7.997	-41.563	 29.22318	 20.27283	  8.49318	  9.30048	 19.52926	 -0.30460	 29.98735	705.26898	 23.30	
  8.008	-13.821	 29.21937	 22.09092	  7.00671	 12.43565	 16.19148	 -0.24439	 30.01643	705.16998	 23.30	
  8.008	 13.821	 29.17630	 22.07610	  6.94152	 16.01231	 12.54339	 -0.21101	 29.97865	705.17297	 23.30	
  7.997	 41.563	 29.23372	 20.37486	  8.35507	 19.34276	  9.48046	 -0.17303	 30.02056	705.11499	 23.30	
  7.988	 69.228	 29.24769	 17.25306	 11.20105	 21.53461	  7.67294	 -0.16659	 29.98899	705.11902	 23.30	
  8.006	 96.837	 29.31534	 13.72568	 14.71510	 22.06365	  7.34225	 -0.22835	 29.99149	704.96301	 23.30	
  7.997	124.550	 29.41023	 10.43250	 18.25346	 20.76318	  8.50107	 -0.21377	 30.03088	704.96997	 23.30	
  7.991	152.370	 29.42247	  8.17791	 20.89165	 17.87646	 11.03567	 -0.17164	 29.99807	705.04999	 23.30	
 12.009	161.059	 28.21327	  3.59406	 24.03402	 16.98248	  9.76791	 -0.72635	 29.99198	705.12598	 23.30	
 12.013	142.081	 28.19325	  5.07621	 22.08520	 20.43062	  6.63182	 -0.71280	 30.00758	705.09998	 23.30	
 12.006	123.113	 28.13692	  7.58141	 19.07462	 23.02811	  4.48524	 -0.80460	 29.97732	705.25403	 23.30	
 12.007	104.200	 28.07239	 10.78329	 15.46473	 24.56713	  3.19406	 -0.86983	 29.98299	705.12799	 23.30	
 11.989	 85.301	 28.02217	 14.49337	 11.77043	 24.83287	  2.95884	 -0.81948	 29.99357	705.16998	 23.30	
 12.013	 66.294	 27.94923	 18.10975	  8.28039	 23.82034	  3.61699	 -0.68887	 29.99001	705.12201	 23.30	
 12.012	 47.388	 27.90535	 21.36576	  5.41854	 21.62270	  5.36982	 -0.65582	 30.00439	705.11102	 23.30	
 11.990	 28.440	 27.83433	 23.69370	  3.44294	 18.49866	  8.04521	 -0.75682	 29.97137	705.05200	 23.30	
 11.991	  9.464	 27.88527	 24.97059	  2.48443	 14.94145	 11.39092	 -0.78211	 30.02722	705.22601	 23.30	
 11.991	 -9.464	 27.86962	 24.92321	  2.53258	 11.22126	 15.10378	 -0.80298	 30.00451	705.11102	 23.30	
 11.990	-28.440	 27.85816	 23.62794	  3.56979	  7.86726	 18.71370	 -0.80494	 29.97624	705.12201	 23.30	
 12.012	-47.388	 27.89133	 21.19835	  5.53863	  5.14057	 21.84274	 -0.86055	 29.98627	705.12201	 23.30	
 12.013	-66.294	 27.95054	 17.90825	  8.48643	  3.48900	 24.02777	 -0.95492	 29.98912	705.09998	 23.30	
 11.989	-85.301	 28.02314	 14.25587	 12.01270	  2.81359	 24.97466	 -0.96933	 29.99158	705.21198	 23.30	
 12.007	-104.200	 28.07967	 10.58864	 15.77631	  3.07224	 24.68995	 -0.87867	 30.00500	705.19299	 23.20	
 12.006	-123.113	 28.08542	  7.37002	 19.31439	  4.25088	 23.11077	 -0.76804	 29.98182	705.16699	 23.30	
 12.013	-142.081	 28.15730	  4.94503	 22.25480	  6.51297	 20.45180	 -0.76151	 30.01169	705.03900	 23.30	
 12.009	-161.059	 28.20178	  3.52116	 24.10962	  9.67424	 17.04587	 -0.81415	 30.01122	705.22101	 23.20	
 16.000	180.000	 26.42494	 -1.30700	 27.02876	 11.82204	 11.79260	 -1.26961	 30.02189	705.24103	 23.20	
 15.990	-165.604	 26.36609	 -0.94172	 26.51875	  8.20539	 15.50032	 -1.30334	 29.97598	705.22101	 23.20	
 16.002	-151.165	 26.35664	  0.11883	 25.12226	  4.97988	 19.12161	 -1.29514	 30.00443	705.11401	 23.30	
 16.002	-136.836	 26.28736	  1.89704	 22.77747	  2.35528	 22.30352	 -1.17770	 29.98789	705.11499	 23.20	
 15.995	-122.439	 26.24133	  4.23107	 19.72548	  0.34732	 24.80288	 -1.15965	 29.98231	705.12000	 23.20	
 15.993	-107.966	 26.19557	  7.24686	 16.16390	 -0.93766	 26.51083	 -1.19786	 29.99115	705.15997	 23.30	
 16.005	-93.629	 26.15215	 10.72638	 12.39645	 -1.51684	 27.24129	 -1.12325	 30.00244	705.22601	 23.20	
 15.992	-79.234	 26.08714	 14.45140	  8.72965	 -1.33955	 26.99135	 -1.05745	 29.99916	705.19800	 23.20	
 16.009	-64.774	 26.03224	 18.14621	  5.38771	 -0.48425	 25.76849	 -1.13342	 29.98094	705.18799	 23.20	
 15.997	-50.364	 26.02255	 21.51073	  2.63922	  1.14003	 23.65824	 -1.12287	 30.00554	705.18402	 23.20	
 15.997	-36.045	 26.01183	 24.26046	  0.52819	  3.38305	 20.78467	 -1.09101	 30.01203	705.07202	 23.20	
 16.000	-21.597	 25.98014	 26.20297	 -0.91552	  6.24807	 17.33166	 -1.09182	 30.01628	705.08899	 23.20	
 16.003	 -7.169	 25.88228	 27.13696	 -1.78149	  9.63411	 13.55756	 -1.04405	 29.94813	705.07001	 23.20	
 16.003	  7.169	 25.94248	 27.22282	 -1.79739	 13.38101	  9.88835	 -1.01171	 30.02617	705.17401	 23.20	
 16.000	 21.597	 25.89776	 26.25564	 -1.07999	 17.01116	  6.50756	 -1.06626	 29.97997	705.09998	 23.20	
 15.997	 36.045	 25.94600	 24.36680	  0.36780	 20.44476	  3.61052	 -1.11091	 29.96600	705.09100	 23.20	
 15.997	 50.364	 25.99472	 21.70758	  2.42018	 23.40559	  1.28250	 -1.04676	 30.00002	705.20398	 23.20	
 16.009	 64.774	 26.05129	 18.42416	  5.11297	 25.57498	 -0.25393	 -1.09410	 30.00918	705.05499	 23.20	
 15.992	 79.234	 26.11490	 14.78638	  8.35175	 26.84586	 -1.10534	 -1.17229	 30.00351	705.05701	 23.20	
 16.005	 93.629	 26.16376	 11.09677	 11.98919	 27.14544	 -1.35519	 -1.13635	 29.99258	705.12000	 23.20	
 15.993	107.966	 26.26132	  7.64530	 15.76544	 26.46268	 -0.76403	 -1.13569	 29.99518	705.06598	 23.20	
 15.995	122.439	 26.33330	  4.56025	 19.40461	 24.83691	  0.39125	 -1.21929	 30.00154	705.14203	 23.20	
 16.002	136.836	 26.40384	  2.10464	 22.55625	 22.35269	  2.41056	 -1.19144	 30.01458	705.08899	 23.20	
 16.002	151.165	 26.39367	  0.25331	 24.93866	 19.15803	  5.00755	 -1.20992	 29.97710	705.07800	 23.20	
 15.990	165.604	 26.44287	 -0.83852	 26.49672	 15.55397	  8.25750	 -1.24488	 30.02134	705.03198	 23.20	
 20.003	168.362	 24.10171	 -4.82091	 28.29242	 13.66948	  6.47456	 -1.38273	 30.03212	705.09998	 23.20	
 20.008	156.764	 24.10894	 -3.85047	 27.06246	 17.33547	  3.29162	 -1.45989	 30.01333	705.08600	 23.20	
 20.000	145.147	 24.10020	 -2.58340	 25.12557	 20.71129	  0.66924	 -1.43434	 30.01005	705.01001	 23.20	
 19.995	133.545	 24.03204	 -0.75307	 22.43959	 23.67103	 -1.68255	 -1.35095	 29.98883	705.06299	 23.20	
 20.009	121.926	 23.98678	  1.58080	 19.25402	 26.08975	 -3.35643	 -1.13962	 30.02294	705.00403	 23.20	
 20.005	110.327	 23.90492	  4.35568	 15.70408	 27.69803	 -4.42520	 -0.95699	 29.97510	705.09399	 23.20	
 19.989	 98.733	 23.86140	  7.57279	 11.99996	 28.61176	 -5.11422	 -0.89908	 30.01361	705.06000	 23.20	
 19.999	 87.075	 23.80334	 11.09200	  8.32278	 28.74758	 -5.16489	 -1.02883	 30.02637	705.01599	 23.20	
 19.992	 75.457	 23.72433	 14.73238	  4.95522	 28.07490	 -4.67745	 -1.17366	 29.98305	705.03198	 23.20	
 20.009	 63.844	 23.68699	 18.27450	  2.03706	 26.72831	 -3.84162	 -1.25314	 30.01288	705.06702	 23.20	
 19.989	 52.269	 23.62989	 21.55720	 -0.45793	 24.58721	 -2.42119	 -1.21802	 30.01362	704.99298	 23.20	
 19.999	 40.602	 23.56003	 24.37811	 -2.48987	 21.80510	 -0.51611	 -1.04720	 29.98752	705.01898	 23.20	
 20.004	 29.051	 23.56441	 26.62473	 -3.99516	 18.58783	  2.03373	 -0.89838	 30.04073	705.04401	 23.20	
 20.005	 17.433	 23.47822	 28.07854	 -5.06328	 15.05104	  4.85118	 -0.83832	 29.99177	705.25702	 23.20	
 20.006	  5.780	 23.45533	 28.79003	 -5.63895	 11.41441	  8.14538	 -0.85447	 29.99788	705.01898	 23.20	
 20.006	 -5.780	 23.49448	 28.81859	 -5.65513	  7.84640	 11.70596	 -0.85938	 30.03332	704.98102	 23.20	
 20.005	-17.433	 23.53633	 28.03710	 -4.93343	  4.50248	 15.43633	 -0.90223	 30.01901	704.96802	 23.20	
 20.004	-29.051	 23.53791	 26.40989	 -3.78555	  1.57682	 18.96640	 -0.96415	 29.95656	705.00201	 23.20	
 19.999	-40.602	 23.58862	 24.16016	 -2.27724	 -0.74978	 22.12668	 -0.97855	 29.97028	705.10602	 23.20	
 19.989	-52.269	 23.62957	 21.28281	 -0.18489	 -2.55719	 24.86067	 -0.92694	 29.99255	705.00201	 23.20	
 20.009	-63.844	 23.66539	 17.98078	  2.32767	 -3.96675	 26.90534	 -0.82971	 30.00137	705.04303	 23.20	
 19.992	-75.457	 23.67283	 14.35376	  5.36261	 -4.91481	 28.19386	 -0.81935	 29.96022	704.93201	 23.20	
 19.999	-87.075	 23.73210	 10.71626	  8.73806	 -5.46760	 28.81501	 -0.84912	 30.02016	705.07001	 23.20	
 19.989	-98.733	 23.78258	  7.14528	 12.42462	 -5.17667	 28.58180	 -0.90259	 29.97923	704.96802	 23.20	
 20.005	-110.327	 23.82991	  3.93013	 16.08214	 -4.49477	 27.67366	 -1.09596	 29.99749	704.88300	 23.20	
 20.009	-121.926	 23.90416	  1.18796	 19.56466	 -3.25602	 26.00696	 -1.27516	 30.01583	704.85602	 23.20	
 19.995	-133.545	 23.95705	 -1.02199	 22.68704	 -1.57931	 23.61249	 -1.36249	 30.01500	705.05701	 23.20	
 20.000	-145.147	 23.97532	 -2.73524	 25.23762	  0.59956	 20.63937	 -1.29906	 29.97782	705.01300	 23.20	
 20.008	-156.764	 23.99922	 -4.04846	 27.16599	  3.33447	 17.23655	 -1.20804	 29.97727	705.03900	 23.20	
 20.003	-168.362	 24.01929	 -4.93480	 28.30762	  6.51787	 13.60457	 -1.20109	 29.99368	705.02899	 23.20	
 20.000	180.000	 24.00379	 -5.28993	 28.62650	  9.94907	  9.91175	 -1.25690	 29.95262	705.00403	 23.20	
