FileType=PCF
NHL=14
Date=05/30/19	16:13:50
Facility=APL
Serial=16071-13
Customer=NASA
NP=6
Mach=0.300000
Calibration=1:1
CalPts=490
TstPts=95
PortNumbering=AP Standard
Units=Torr C m/s kg/m^3 deg mm 
Theta[deg]	Phi[deg]	P1[Torr]	P2[Torr]	P3[Torr]	P4[Torr]	P5[Torr]	P6[Torr]	Pt[Torr]	Ps[Abs,Torr]	Ts[C]	
  0.000	  0.000	 44.95853	 18.13317	 20.31569	 19.85061	 17.91665	  1.11460	 44.88147	700.52002	 36.60	
  1.691	128.401	 44.93644	 16.44439	 21.73415	 21.72096	 16.11400	  1.02822	 44.89829	700.46997	 36.60	
  1.692	 77.194	 44.95142	 18.53031	 19.69764	 22.30149	 15.63154	  1.08039	 44.88682	700.34003	 36.70	
  1.699	 26.182	 44.97787	 20.37168	 18.09230	 21.02809	 16.87860	  1.12217	 44.89687	700.46002	 36.70	
  1.699	-26.182	 44.97448	 20.44393	 18.09516	 18.77994	 18.87444	  1.13201	 44.87864	700.58002	 36.70	
  1.692	-77.194	 44.98625	 18.72498	 19.71663	 17.53640	 20.30126	  1.10208	 44.89461	700.53003	 36.80	
  1.691	-128.401	 44.96534	 16.63265	 21.79856	 17.88699	 19.78214	  1.07079	 44.87962	700.48999	 36.80	
  1.700	180.000	 44.96237	 15.63488	 22.74936	 19.71516	 17.86576	  1.02373	 44.88219	700.53998	 36.90	
  3.400	180.000	 44.83635	 13.07185	 25.13721	 19.43708	 17.74100	  0.85185	 44.90511	700.63000	 36.90	
  3.388	-152.325	 44.86419	 13.69898	 24.55365	 17.30403	 19.99440	  0.89015	 44.89682	700.59003	 36.90	
  3.397	-124.529	 44.87528	 15.24192	 22.91604	 15.74984	 21.84434	  0.94880	 44.87526	700.56000	 37.00	
  3.399	-96.763	 44.95155	 17.46475	 20.72360	 15.05465	 22.80997	  1.00232	 44.91966	700.40002	 37.00	
  3.394	-69.283	 44.94730	 19.85488	 18.39616	 15.39684	 22.49922	  1.04911	 44.89303	700.44000	 37.00	
  3.400	-41.398	 44.97403	 21.93829	 16.58589	 16.69949	 21.03531	  1.05120	 44.91367	700.48999	 37.00	
  3.401	-14.021	 44.96096	 22.99093	 15.58816	 18.59988	 18.78477	  1.06406	 44.90523	700.34998	 37.10	
  3.401	 14.021	 44.94067	 22.91109	 15.57169	 21.09096	 16.62785	  1.06171	 44.90602	700.35999	 37.10	
  3.400	 41.398	 44.89852	 21.66460	 16.54434	 23.18938	 14.59054	  1.03544	 44.90083	700.41998	 37.10	
  3.394	 69.283	 44.85978	 19.53986	 18.33395	 24.48359	 13.32050	  0.98235	 44.91250	700.31000	 37.10	
  3.399	 96.763	 44.85727	 17.11409	 20.62750	 24.69855	 13.07660	  0.93102	 44.95013	700.40997	 37.20	
  3.397	124.529	 44.80186	 15.04982	 22.76690	 23.72901	 13.85144	  0.87152	 44.90611	700.53998	 37.20	
  3.388	152.325	 44.82224	 13.61313	 24.44806	 21.83717	 15.59274	  0.85360	 44.91655	700.40002	 37.20	
  5.099	161.165	 44.51379	 10.83072	 26.89548	 21.50481	 15.18347	  0.59596	 44.92493	700.53998	 37.20	
  5.109	142.013	 44.47874	 11.82268	 25.62817	 23.81707	 13.15118	  0.58420	 44.90810	700.41998	 37.30	
  5.095	123.033	 44.49889	 13.49754	 23.72684	 25.59598	 11.63351	  0.64001	 44.91923	700.51001	 37.30	
  5.105	104.191	 44.52353	 15.62284	 21.49698	 26.69816	 10.66989	  0.68580	 44.93132	700.52002	 37.30	
  5.093	 85.207	 44.56345	 17.95071	 19.09431	 26.98432	 10.50082	  0.74258	 44.93388	700.48999	 37.30	
  5.104	 66.290	 44.59809	 20.46490	 16.89533	 26.47216	 10.99667	  0.80377	 44.91788	700.53998	 37.30	
  5.094	 47.331	 44.67110	 22.70773	 15.02890	 25.19470	 12.26363	  0.84936	 44.94631	700.46002	 37.30	
  5.089	 28.397	 44.72923	 24.34982	 13.70483	 23.27802	 14.07995	  0.88375	 44.93687	700.42999	 37.40	
  5.096	  9.576	 44.78679	 25.29794	 12.99006	 20.92363	 16.30591	  0.87449	 44.93872	700.51001	 37.40	
  5.096	 -9.576	 44.82851	 25.36136	 13.04460	 18.40717	 18.55521	  0.88752	 44.93506	700.50000	 37.40	
  5.089	-28.397	 44.85265	 24.59825	 13.76545	 16.31549	 20.99831	  0.89061	 44.93452	700.51001	 37.40	
  5.094	-47.331	 44.87507	 23.10814	 15.12453	 14.45510	 23.13427	  0.88062	 44.96266	700.53998	 37.50	
  5.104	-66.290	 44.84950	 20.95236	 17.01987	 13.11712	 24.61920	  0.88023	 44.94458	700.50000	 37.50	
  5.093	-85.207	 44.81855	 18.45925	 19.24978	 12.48944	 25.24586	  0.84196	 44.94482	700.53998	 37.50	
  5.105	-104.191	 44.79966	 16.06382	 21.62986	 12.58805	 25.01462	  0.80759	 44.96973	700.47998	 37.50	
  5.095	-123.033	 44.75410	 13.91355	 23.87305	 13.45590	 23.89072	  0.74223	 44.96613	700.56000	 37.60	
  5.109	-142.013	 44.69123	 12.07725	 25.81219	 14.90400	 22.13044	  0.71069	 44.95919	700.59003	 37.60	
  5.099	-161.165	 44.63079	 10.95162	 26.98479	 16.86977	 19.78696	  0.64501	 44.95210	700.47998	 37.60	
  5.100	180.000	 44.56762	 10.53396	 27.34784	 18.99836	 17.49658	  0.60339	 44.94603	700.54999	 37.60	
  6.800	180.000	 44.12324	  7.94302	 29.44558	 18.54159	 17.09522	  0.27754	 44.95539	700.47998	 37.70	
  6.796	-166.229	 44.19148	  8.27541	 29.18832	 16.44189	 19.28085	  0.29624	 44.96139	700.47998	 37.70	
  6.808	-152.311	 44.28405	  9.07500	 28.34443	 14.38923	 21.68289	  0.37791	 44.98127	700.47998	 37.70	
  6.795	-138.383	 44.33889	 10.36928	 26.96323	 12.64651	 23.81443	  0.44069	 44.97320	700.53003	 37.70	
  6.792	-124.591	 44.40172	 12.07715	 25.11296	 11.29405	 25.53356	  0.39973	 44.98833	700.50000	 37.70	
  6.787	-110.754	 44.46533	 14.12353	 22.87930	 10.38566	 26.74970	  0.54253	 44.99395	700.47998	 37.80	
  6.800	-96.985	 44.49631	 16.29171	 20.62681	  9.88074	 27.41941	  0.56697	 44.98632	700.62000	 37.80	
  6.800	-83.015	 44.54574	 18.67565	 18.30644	  9.97716	 27.46225	  0.59858	 44.99377	700.54999	 37.80	
  6.787	-69.246	 44.56407	 21.09735	 16.17953	 10.55048	 26.87916	  0.62724	 44.99900	700.53998	 37.80	
  6.792	-55.409	 44.60840	 23.33950	 14.23664	 11.60986	 25.67875	  0.62630	 45.00447	700.45001	 37.90	
  6.795	-41.617	 44.62554	 25.20599	 12.63789	 13.14229	 23.94004	  0.59279	 45.01460	700.51001	 37.90	
  6.808	-27.689	 44.58544	 26.62195	 11.35618	 14.98561	 21.77392	  0.60059	 44.98844	700.44000	 37.90	
  6.796	-13.771	 44.53288	 27.48501	 10.55647	 17.08348	 19.26860	  0.60399	 44.97393	700.46002	 37.90	
  6.800	  0.000	 44.53122	 27.73247	 10.27193	 19.32119	 17.12187	  0.59535	 44.98915	700.51001	 37.90	
  6.796	 13.771	 44.45275	 27.32663	 10.50043	 21.72771	 14.81475	  0.60261	 44.99153	700.44000	 37.90	
  6.808	 27.689	 44.39637	 26.31190	 11.27576	 24.01987	 12.69536	  0.63063	 44.96827	700.48999	 38.00	
  6.795	 41.617	 44.35360	 24.79345	 12.47667	 26.03306	 10.84041	  0.52141	 45.01051	700.42999	 38.00	
  6.792	 55.409	 44.32483	 22.73144	 14.13902	 27.61385	  9.41069	  0.49528	 45.03043	700.46997	 38.00	
  6.787	 69.246	 44.25187	 20.45270	 16.02939	 28.63355	  8.42572	  0.47835	 45.01350	700.34998	 38.00	
  6.800	 83.015	 44.15829	 18.01046	 18.13978	 29.10053	  7.92894	  0.45160	 44.97979	700.46002	 38.00	
  6.800	 96.985	 44.15210	 15.72473	 20.43732	 29.05062	  7.94298	  0.36945	 45.01784	700.42999	 38.00	
  6.787	110.754	 44.12933	 13.57258	 22.75114	 28.39196	  8.43073	  0.35053	 45.01783	700.50000	 38.10	
  6.792	124.591	 44.08469	 11.56913	 24.92674	 27.16625	  9.42359	  0.31277	 45.00645	700.44000	 38.10	
  6.795	138.383	 44.09829	  9.95545	 26.82312	 25.43799	 10.89202	  0.25209	 45.01997	700.51001	 38.10	
  6.808	152.311	 44.06974	  8.81783	 28.23876	 23.30417	 12.69361	  0.14052	 44.98033	700.34003	 38.10	
  6.796	166.229	 44.11008	  8.11149	 29.14257	 20.93964	 14.81773	  0.20480	 44.98635	700.40997	 38.10	
  8.491	168.704	 43.46901	  5.41081	 31.20514	 20.30835	 14.17913	 -0.30906	 44.98007	700.38000	 38.10	
  8.502	157.493	 43.46676	  5.97656	 30.46243	 22.79743	 11.99350	 -0.30829	 45.01480	700.45001	 38.10	
  8.494	146.194	 43.43864	  6.86758	 29.23796	 25.07041	 10.00237	 -0.34545	 45.01283	700.45001	 38.10	
  8.495	135.039	 43.42947	  8.12701	 27.64237	 27.08953	  8.29911	 -0.28050	 45.01191	700.40002	 38.10	
  8.487	123.723	 43.42980	  9.76790	 25.66560	 28.73881	  6.93268	 -0.23713	 44.99401	700.46002	 38.20	
  8.492	112.575	 43.42540	 11.70433	 23.44283	 29.95452	  5.96958	 -0.22863	 44.96860	700.57001	 38.20	
  8.510	101.220	 43.47959	 13.93380	 21.04511	 30.82174	  5.31557	 -0.23908	 44.99946	700.52002	 38.20	
  8.500	 90.000	 43.52617	 16.26771	 18.73565	 31.11147	  5.17480	 -0.13500	 44.99574	700.53003	 38.20	
  8.510	 78.780	 43.55048	 18.62829	 16.50392	 30.98814	  5.31151	 -0.07433	 44.97796	700.52002	 38.20	
  8.492	 67.425	 43.59247	 21.09454	 14.30382	 30.34798	  5.87576	  0.03809	 44.96685	700.52002	 38.20	
  8.487	 56.277	 43.67374	 23.46293	 12.38710	 29.27978	  6.89673	  0.06191	 44.98507	700.50000	 38.20	
  8.495	 44.961	 43.75081	 25.57095	 10.71430	 27.77020	  8.30530	  0.07593	 44.98804	700.52002	 38.30	
  8.494	 33.806	 43.82273	 27.30543	  9.38291	 25.89611	 10.02994	  0.27121	 44.98860	700.51001	 38.30	
  8.502	 22.507	 43.85339	 28.60536	  8.39175	 23.69363	 12.04964	  0.20022	 44.96619	700.60999	 38.30	
  8.491	 11.296	 43.93465	 29.46244	  7.81507	 21.28203	 14.26504	  0.12950	 44.98876	700.58002	 38.30	
  8.500	  0.000	 43.97124	 29.83497	  7.59207	 18.84594	 16.60513	  0.17643	 44.97898	700.65002	 38.30	
  8.491	-11.296	 44.02582	 29.63900	  7.83989	 16.62320	 18.82740	  0.18870	 44.96739	700.46997	 38.30	
  8.502	-22.507	 44.07020	 29.00366	  8.45041	 14.47797	 21.25924	  0.08435	 44.99392	700.52002	 38.40	
  8.494	-33.806	 44.09857	 27.78595	  9.47313	 12.44599	 23.65384	  0.20242	 44.99812	700.59998	 38.40	
  8.495	-44.961	 44.12294	 26.16496	 10.89580	 10.69467	 25.74771	  0.10115	 45.00125	700.53998	 38.40	
  8.487	-56.277	 44.11466	 24.15816	 12.61735	  9.26274	 27.41006	  0.26029	 45.00638	700.56000	 38.40	
  8.492	-67.425	 44.07998	 21.92979	 14.54010	  8.19997	 28.60478	  0.26027	 44.98961	700.54999	 38.40	
  8.510	-78.780	 44.05960	 19.46845	 16.73056	  7.53709	 29.39443	  0.26559	 45.00367	700.62000	 38.40	
  8.500	-90.000	 44.02152	 17.03671	 18.92951	  7.30995	 29.59148	  0.11905	 44.99451	700.53998	 38.40	
  8.510	-101.220	 43.97387	 14.72879	 21.22355	  7.38030	 29.36595	  0.23197	 44.99818	700.52002	 38.40	
  8.492	-112.575	 43.93251	 12.45018	 23.61637	  7.93895	 28.56402	  0.05356	 45.01857	700.53003	 38.50	
  8.487	-123.723	 43.84288	 10.41093	 25.82996	  8.85824	 27.30689	  0.00574	 44.98780	700.54999	 38.50	
  8.495	-135.039	 43.76721	  8.68797	 27.73660	 10.08769	 25.63103	 -0.01395	 44.97356	700.56000	 38.50	
  8.494	-146.194	 43.73854	  7.28789	 29.32619	 11.73679	 23.60343	 -0.07513	 45.00118	700.59998	 38.50	
  8.502	-157.493	 43.66830	  6.22598	 30.54557	 13.66608	 21.21563	 -0.19359	 45.00860	700.75000	 38.50	
  8.491	-168.704	 43.59407	  5.56836	 31.23833	 15.78401	 18.86414	 -0.24455	 45.00023	700.67999	 38.50	
  8.500	180.000	 43.54993	  5.25425	 31.53204	 18.02394	 16.58014	 -0.28229	 45.02174	700.71002	 38.50	
 10.200	180.000	 42.75233	  2.54438	 33.45523	 17.34808	 15.93283	 -0.76473	 45.00175	700.67999	 38.50	
 10.191	-170.497	 42.80859	  2.80682	 33.21746	 15.04271	 18.30799	 -0.73509	 45.00844	700.62000	 38.50	
 10.210	-161.034	 42.86428	  3.36786	 32.59357	 12.85251	 20.56507	 -0.70430	 44.99036	700.52002	 38.50	
 10.194	-151.526	 42.93508	  4.25542	 31.55606	 10.82196	 23.06777	 -0.60158	 44.99279	700.53998	 38.50	
 10.190	-142.105	 43.02853	  5.45216	 30.14979	  9.03581	 25.35212	 -0.53823	 45.01766	700.56000	 38.50	
 10.215	-132.646	 43.09024	  6.91505	 28.46188	  7.49462	 27.32949	 -0.50354	 45.00698	700.59003	 38.50	
 10.203	-123.092	 43.16997	  8.69074	 26.46135	  6.27540	 28.96020	 -0.46941	 45.02034	700.65002	 38.60	
 10.192	-113.678	 43.23058	 10.74086	 24.21358	  5.43047	 30.20313	 -0.41716	 45.02311	700.58002	 38.50	
 10.208	-104.249	 43.29302	 12.95134	 21.83303	  4.80707	 31.11989	 -0.40502	 45.02589	700.59998	 38.50	
 10.210	-94.801	 43.34137	 15.27847	 19.45242	  4.59224	 31.56205	 -0.39282	 45.02298	700.54999	 38.50	
 10.210	-85.199	 43.39624	 17.71494	 17.22493	  4.63971	 31.58049	 -0.35028	 45.01860	700.54999	 38.50	
 10.208	-75.751	 43.42822	 20.20019	 14.94002	  5.04781	 31.13818	 -0.23737	 45.02155	700.60999	 38.50	
 10.192	-66.322	 43.47694	 22.58857	 12.82374	  5.71783	 30.29865	 -0.15766	 45.03780	700.58002	 38.50	
 10.203	-56.908	 43.52248	 24.87745	 10.87160	  6.77796	 29.08097	 -0.18139	 45.05228	700.64001	 38.50	
 10.215	-47.354	 43.53038	 26.99732	  9.07973	  8.15442	 27.45471	 -0.33370	 45.06523	700.60999	 38.60	
 10.190	-37.895	 43.52007	 28.73305	  7.65618	  9.85488	 25.46974	 -0.27501	 45.04851	700.59998	 38.60	
 10.194	-28.474	 43.49828	 30.13050	  6.48871	 11.76887	 23.17347	 -0.31492	 45.03786	700.66998	 38.60	
 10.210	-18.966	 43.50582	 31.16805	  5.63409	 13.89482	 20.69750	 -0.34260	 45.07380	700.66998	 38.60	
 10.191	 -9.503	 43.47572	 31.75894	  5.11434	 16.13467	 18.39725	 -0.31404	 45.08871	700.59998	 38.60	
 10.200	  0.000	 43.37302	 31.87655	  4.88668	 18.34736	 16.03251	 -0.33149	 45.03493	700.56000	 38.60	
 10.191	  9.503	 43.32991	 31.55267	  5.06275	 20.73626	 13.65811	 -0.26600	 45.06404	700.59998	 38.60	
 10.210	 18.966	 43.26537	 30.82840	  5.52623	 23.20211	 11.35826	 -0.29952	 45.07726	700.63000	 38.60	
 10.194	 28.474	 43.20643	 29.64390	  6.35123	 25.53078	  9.25241	 -0.25040	 45.06174	700.56000	 38.60	
 10.190	 37.895	 43.12009	 28.07977	  7.45854	 27.61505	  7.31992	 -0.33033	 45.06279	700.59998	 38.70	
 10.215	 47.354	 43.05096	 26.28059	  8.85522	 29.40112	  5.70013	 -0.41280	 45.07144	700.65002	 38.70	
 10.203	 56.908	 42.99072	 24.08278	 10.62991	 30.88207	  4.39311	 -0.44338	 45.07235	700.65002	 38.70	
 10.192	 66.322	 42.92287	 21.69836	 12.57613	 32.04157	  3.44501	 -0.42460	 45.06838	700.69000	 38.70	
 10.208	 75.751	 42.87003	 19.22706	 14.71597	 32.82869	  2.75019	 -0.52287	 45.07677	700.69000	 38.70	
 10.210	 85.199	 42.81427	 16.83787	 17.00737	 33.14058	  2.41181	 -0.64151	 45.08171	700.54999	 38.70	
 10.210	 94.801	 42.79050	 14.40878	 19.31086	 33.06683	  2.41712	 -0.70489	 45.10065	700.59998	 38.70	
 10.208	104.249	 42.72113	 12.06724	 21.62362	 32.51322	  2.74658	 -0.74071	 45.06339	700.54999	 38.70	
 10.192	113.678	 42.72733	  9.89233	 24.06158	 31.56068	  3.39381	 -0.71285	 45.07672	700.56000	 38.70	
 10.203	123.092	 42.70338	  7.94017	 26.30216	 30.27831	  4.39437	 -0.74684	 45.08723	700.57001	 38.70	
 10.215	132.646	 42.66974	  6.19769	 28.33633	 28.65444	  5.66544	 -0.82290	 45.08506	700.65997	 38.70	
 10.190	142.105	 42.64782	  4.89086	 30.06133	 26.66748	  7.30832	 -0.87275	 45.05313	700.47998	 38.70	
 10.194	151.526	 42.66761	  3.83032	 31.49862	 24.46586	  9.18653	 -0.86262	 45.05231	700.52002	 38.80	
 10.210	161.034	 42.71822	  3.06435	 32.61962	 22.07120	 11.26413	 -0.84295	 45.08104	700.59998	 38.70	
 10.191	170.497	 42.79816	  2.63717	 33.28195	 19.64270	 13.56806	 -0.81283	 45.11557	700.65997	 38.80	
 11.899	171.783	 41.81765	 -0.05540	 35.10520	 18.88204	 12.76842	 -1.24181	 45.08406	700.53998	 38.80	
 11.890	163.610	 41.77354	  0.25519	 34.50727	 21.23203	 10.48203	 -1.27623	 45.08338	700.58002	 38.80	
 11.889	155.445	 41.69345	  0.78040	 33.54821	 23.64606	  8.30164	 -1.33958	 45.04308	700.58002	 38.80	
 11.909	147.299	 41.68807	  1.69291	 32.31765	 25.98875	  6.30593	 -1.36934	 45.10309	700.54999	 38.80	
 11.902	139.148	 41.68343	  2.71273	 30.71639	 28.12123	  4.53474	 -1.36677	 45.08880	700.53003	 38.80	
 11.894	130.867	 41.70329	  4.24794	 28.81200	 30.00267	  3.02183	 -1.29147	 45.07070	700.53998	 38.80	
 11.897	122.732	 41.72556	  6.04726	 26.74629	 31.62656	  1.79303	 -1.18962	 45.07369	700.59998	 38.80	
 11.903	114.597	 41.73349	  7.97054	 24.48903	 32.97454	  0.87601	 -1.16059	 45.06135	700.59003	 38.90	
 11.893	106.346	 41.75363	 10.15286	 22.05155	 34.04226	  0.27136	 -1.16153	 45.06802	700.60999	 38.90	
 11.892	 98.155	 41.79829	 12.45993	 19.67393	 34.69936	 -0.04658	 -1.17751	 45.07868	700.64001	 38.90	
 11.900	 90.000	 41.85437	 14.84331	 17.41847	 35.00355	 -0.23319	 -1.14111	 45.09526	700.59998	 38.90	
 11.892	 81.845	 41.88456	 17.21763	 15.10012	 34.89515	 -0.10340	 -1.06133	 45.05891	700.62000	 38.90	
 11.893	 73.654	 41.96022	 19.63920	 12.84943	 34.45847	  0.22458	 -0.93956	 45.08535	700.56000	 38.90	
 11.903	 65.403	 41.98415	 22.14742	 10.70050	 33.58594	  0.79812	 -0.87974	 45.05106	700.53998	 38.90	
 11.897	 57.268	 42.08543	 24.58226	  8.74855	 32.39822	  1.65863	 -0.90192	 45.10044	700.59003	 38.90	
 11.894	 49.133	 42.12460	 26.72741	  7.01981	 30.86101	  2.95697	 -0.88658	 45.04322	700.54999	 38.90	
 11.902	 40.852	 42.17562	 28.67673	  5.50780	 29.11550	  4.52664	 -0.80311	 45.04672	700.63000	 38.90	
 11.909	 32.701	 42.28502	 30.37983	  4.29613	 27.16137	  6.30689	 -0.72100	 45.05970	700.59003	 38.90	
 11.889	 24.555	 42.37383	 31.77044	  3.39366	 24.94649	  8.35355	 -0.65505	 45.08414	700.62000	 39.00	
 11.890	 16.390	 42.43252	 32.82277	  2.68875	 22.52595	 10.57929	 -0.68773	 45.05711	700.57001	 39.00	
 11.899	  8.217	 42.50417	 33.51274	  2.22415	 20.05905	 12.92246	 -0.76419	 45.08448	700.57001	 39.00	
 11.900	  0.000	 42.51970	 33.80351	  2.01402	 17.71072	 15.33703	 -0.78548	 45.04501	700.59998	 39.00	
 11.899	 -8.217	 42.56898	 33.70133	  2.19073	 15.40747	 17.72352	 -0.77706	 45.03856	700.64001	 39.00	
 11.890	-16.390	 42.66943	 33.17290	  2.79807	 13.18881	 19.97302	 -0.75119	 45.05887	700.69000	 39.00	
 11.889	-24.555	 42.68619	 32.29168	  3.54692	 11.02534	 22.45411	 -0.73415	 45.06574	700.66998	 39.00	
 11.909	-32.701	 42.68944	 31.07066	  4.46805	  8.95777	 24.86439	 -0.77977	 45.06268	700.50000	 39.00	
 11.902	-40.852	 42.69641	 29.48987	  5.68935	  7.16421	 27.02248	 -0.81574	 45.04815	700.59003	 39.00	
 11.894	-49.133	 42.72229	 27.63020	  7.18929	  5.53397	 28.93700	 -0.80464	 45.07417	700.62000	 39.00	
 11.897	-57.268	 42.67926	 25.50297	  8.93395	  4.22607	 30.49747	 -0.77266	 45.04736	700.59998	 39.00	
 11.903	-65.403	 42.69165	 23.20902	 10.94009	  3.22034	 31.81949	 -0.73821	 45.08072	700.58002	 39.00	
 11.893	-73.654	 42.66446	 20.76802	 13.08772	  2.50719	 32.77739	 -0.79070	 45.05948	700.53998	 39.00	
 11.892	-81.845	 42.64160	 18.28389	 15.39128	  2.04473	 33.40794	 -0.85173	 45.08538	700.57001	 39.00	
 11.900	-90.000	 42.57526	 15.81336	 17.69542	  1.79158	 33.60831	 -0.89936	 45.05750	700.62000	 39.00	
 11.892	-98.155	 42.50505	 13.43268	 19.90449	  1.90619	 33.37122	 -0.89692	 45.05390	700.54999	 39.00	
 11.893	-106.346	 42.45663	 11.10865	 22.29756	  2.18671	 32.77852	 -0.88174	 45.06147	700.67999	 39.10	
 11.903	-114.597	 42.39890	  8.89519	 24.75300	  2.78839	 31.77726	 -0.90220	 45.07872	700.56000	 39.10	
 11.897	-122.732	 42.36058	  6.86830	 26.98616	  3.71995	 30.47925	 -0.95097	 45.10445	700.69000	 39.10	
 11.894	-130.867	 42.29513	  5.15342	 28.98810	  4.88168	 28.88618	 -0.97262	 45.08727	700.63000	 39.10	
 11.902	-139.148	 42.20528	  3.52075	 30.86839	  6.33855	 26.96382	 -0.97801	 45.09740	700.66998	 39.10	
 11.909	-147.299	 42.11658	  2.22523	 32.41718	  8.02989	 24.74437	 -1.01753	 45.06208	700.67999	 39.10	
 11.889	-155.445	 42.06430	  1.29417	 33.66362	  9.94091	 22.31292	 -1.08739	 45.08444	700.64001	 39.10	
 11.890	-163.610	 42.02088	  0.57916	 34.59541	 11.99718	 19.91783	 -1.18180	 45.09422	700.71002	 39.10	
 11.899	-171.783	 41.90496	  0.05344	 35.11920	 14.18799	 17.66543	 -1.21683	 45.05849	700.75000	 39.10	
 11.900	180.000	 41.86813	 -0.13740	 35.32365	 16.55144	 15.23780	 -1.24807	 45.09173	700.71997	 39.10	
 13.600	180.000	 40.71894	 -2.76994	 36.93453	 15.58750	 14.35015	 -1.65986	 45.05423	700.72998	 39.10	
 13.608	-172.853	 40.79246	 -2.63236	 36.81758	 13.27001	 16.77579	 -1.61321	 45.07346	700.64001	 39.10	
 13.611	-165.583	 40.85358	 -2.20760	 36.35315	 11.00605	 19.16447	 -1.59620	 45.07488	700.65997	 39.10	
 13.601	-158.353	 40.96081	 -1.58937	 35.53921	  8.89430	 21.48317	 -1.53404	 45.10162	700.53998	 39.10	
 13.609	-151.210	 41.01133	 -0.84146	 34.42920	  6.94525	 23.91123	 -1.44519	 45.10176	700.58002	 39.10	
 13.611	-143.999	 41.09479	  0.25802	 32.99454	  5.12941	 26.31887	 -1.36557	 45.10505	700.59003	 39.10	
 13.601	-136.825	 41.17206	  1.64553	 31.32515	  3.60435	 28.40625	 -1.36724	 45.09399	700.59003	 39.20	
 13.596	-129.640	 41.27782	  3.25788	 29.43143	  2.26760	 30.26122	 -1.39508	 45.11167	700.54999	 39.20	
 13.611	-122.431	 41.31800	  5.00615	 27.33941	  1.14158	 31.81823	 -1.38140	 45.07755	700.69000	 39.20	
 13.604	-115.211	 41.37853	  6.95612	 25.06957	  0.28577	 33.16672	 -1.32810	 45.08265	700.57001	 39.20	
 13.595	-108.042	 41.44026	  9.12132	 22.71997	 -0.29806	 34.26683	 -1.31347	 45.08241	700.64001	 39.20	
 13.607	-100.793	 41.48776	 11.42975	 20.26762	 -0.75297	 35.02481	 -1.35141	 45.08303	700.64001	 39.20	
 13.601	-93.617	 41.55566	 13.83508	 17.98930	 -0.93712	 35.40112	 -1.38465	 45.09549	700.59003	 39.20	
 13.601	-86.383	 41.61120	 16.28899	 15.66484	 -0.85512	 35.39911	 -1.38024	 45.07645	700.62000	 39.20	
 13.607	-79.207	 41.67422	 18.76310	 13.35594	 -0.61553	 35.07804	 -1.33368	 45.10548	700.60999	 39.20	
 13.595	-71.958	 41.69451	 21.25781	 11.09556	 -0.13957	 34.34309	 -1.22842	 45.08689	700.66998	 39.20	
 13.604	-64.789	 41.71547	 23.69759	  8.98196	  0.57052	 33.24392	 -1.17918	 45.09254	700.56000	 39.20	
 13.611	-57.569	 41.75476	 26.04350	  6.99335	  1.56439	 31.91223	 -1.18942	 45.11815	700.60999	 39.20	
 13.596	-50.360	 41.78949	 28.17738	  5.23039	  2.86009	 30.34624	 -1.20791	 45.15598	700.65997	 39.20	
 13.601	-43.175	 41.78835	 30.10294	  3.73778	  4.35842	 28.54504	 -1.20372	 45.14562	700.65997	 39.20	
 13.611	-36.001	 41.75046	 31.75794	  2.44352	  6.12362	 26.44619	 -1.14543	 45.10606	700.53998	 39.20	
 13.609	-28.790	 41.74968	 33.19627	  1.30919	  8.07139	 24.06940	 -1.06397	 45.09186	700.67999	 39.30	
 13.601	-21.647	 41.73612	 34.31885	  0.52786	 10.19565	 21.60748	 -1.04058	 45.11941	700.67999	 39.30	
 13.611	-14.417	 41.64981	 35.11894	 -0.11575	 12.38320	 19.25278	 -1.09013	 45.08268	700.66998	 39.20	
 13.608	 -7.147	 41.62840	 35.56303	 -0.51869	 14.72608	 16.90348	 -1.13079	 45.11326	700.67999	 39.20	
 13.600	  0.000	 41.56967	 35.62285	 -0.62700	 17.04236	 14.47912	 -1.14854	 45.10311	700.70001	 39.30	
 13.608	  7.147	 41.50346	 35.39008	 -0.51654	 19.31655	 12.04521	 -1.14361	 45.13717	700.78003	 39.30	
 13.611	 14.417	 41.42577	 34.77849	 -0.19417	 21.67757	  9.64402	 -1.11442	 45.10263	700.71997	 39.30	
 13.601	 21.647	 41.37757	 33.80353	  0.38275	 24.16127	  7.36813	 -1.08138	 45.10807	700.73999	 39.30	
 13.609	 28.790	 41.28245	 32.52435	  1.19650	 26.48147	  5.27534	 -1.12118	 45.11116	700.67999	 39.30	
 13.611	 36.001	 41.21569	 30.92964	  2.28595	 28.62761	  3.36715	 -1.18093	 45.09039	700.75000	 39.30	
 13.601	 43.175	 41.14299	 29.19121	  3.52139	 30.49831	  1.71412	 -1.27506	 45.12974	700.71002	 39.30	
 13.596	 50.360	 41.06436	 27.16321	  5.04490	 32.23952	  0.43175	 -1.33130	 45.09741	700.84003	 39.30	
 13.611	 57.569	 40.96790	 24.94084	  6.74276	 33.76917	 -0.68477	 -1.35793	 45.10883	700.78003	 39.30	
 13.604	 64.789	 40.93751	 22.48129	  8.73611	 35.01443	 -1.48561	 -1.35549	 45.12088	700.87000	 39.30	
 13.595	 71.958	 40.87415	 20.05138	 10.80572	 35.89971	 -2.06898	 -1.39670	 45.12212	700.83002	 39.30	
 13.607	 79.207	 40.80237	 17.59187	 13.02279	 36.45461	 -2.49354	 -1.47040	 45.08156	700.84998	 39.30	
 13.601	 86.383	 40.76432	 15.17409	 15.33464	 36.69624	 -2.71099	 -1.54929	 45.09325	700.78998	 39.30	
 13.601	 93.617	 40.69695	 12.72111	 17.68437	 36.61360	 -2.71520	 -1.61657	 45.10668	700.84003	 39.40	
 13.607	100.793	 40.67212	 10.33100	 20.00839	 36.21061	 -2.46794	 -1.58807	 45.11777	700.73999	 39.40	
 13.595	108.042	 40.66922	  8.09407	 22.41998	 35.44687	 -2.01433	 -1.55445	 45.13303	700.77002	 39.40	
 13.604	115.211	 40.63976	  5.97437	 24.79455	 34.34434	 -1.41746	 -1.56354	 45.11079	700.72998	 39.40	
 13.611	122.431	 40.61939	  3.96790	 27.10409	 32.93015	 -0.57725	 -1.62938	 45.12332	700.73999	 39.40	
 13.596	129.640	 40.59688	  2.28757	 29.21477	 31.28814	  0.52715	 -1.71119	 45.14094	700.83002	 39.40	
 13.601	136.825	 40.57614	  0.74996	 31.13153	 29.43687	  1.83416	 -1.79192	 45.10348	700.79999	 39.40	
 13.611	143.999	 40.57045	 -0.38750	 32.81456	 27.35726	  3.43984	 -1.82958	 45.08757	700.73999	 39.40	
 13.609	151.210	 40.55370	 -1.27447	 34.29326	 25.10365	  5.26685	 -1.79466	 45.08498	700.79999	 39.40	
 13.601	158.353	 40.62191	 -2.00121	 35.46371	 22.71618	  7.32031	 -1.76847	 45.11545	700.88000	 39.50	
 13.611	165.583	 40.62735	 -2.41658	 36.26839	 20.27514	  9.54771	 -1.71573	 45.04542	700.77002	 39.50	
 13.608	172.853	 40.68217	 -2.73795	 36.79390	 17.92034	 11.94048	 -1.67013	 45.07516	700.77002	 39.50	
 15.298	173.587	 39.44350	 -5.27810	 38.33177	 16.89211	 10.90833	 -1.95160	 45.09019	700.82001	 39.50	
 15.291	167.167	 39.43517	 -4.95819	 37.89961	 19.25514	  8.52902	 -1.97243	 45.11553	700.87000	 39.50	
 15.307	160.676	 39.37332	 -4.53902	 37.12416	 21.61944	  6.30032	 -2.03651	 45.09025	700.87000	 39.50	
 15.300	154.261	 39.34880	 -3.96792	 36.08622	 23.99373	  4.23723	 -2.09025	 45.09043	700.79999	 39.50	
 15.288	147.854	 39.30260	 -3.31569	 34.76227	 26.36253	  2.46169	 -2.12372	 45.11722	700.81000	 39.50	
 15.293	141.428	 39.28204	 -2.37640	 33.15602	 28.53410	  0.84857	 -2.14657	 45.07620	700.78003	 39.50	
 15.299	134.985	 39.29852	 -1.12598	 31.34156	 30.60557	 -0.64307	 -2.08542	 45.08580	700.72998	 39.50	
 15.305	128.583	 39.30660	  0.29609	 29.44677	 32.37190	 -1.88391	 -1.96558	 45.07288	700.71997	 39.50	
 15.309	122.142	 39.32767	  2.02066	 27.27469	 34.06627	 -2.83177	 -1.89822	 45.08886	700.70001	 39.50	
 15.304	115.711	 39.36228	  3.87720	 24.99434	 35.49688	 -3.63755	 -1.88081	 45.08778	700.72998	 39.50	
 15.297	109.291	 39.37335	  5.91241	 22.63711	 36.57057	 -4.30175	 -1.88491	 45.09999	700.65997	 39.50	
 15.293	102.897	 39.41643	  8.10989	 20.27287	 37.43905	 -4.84104	 -1.92236	 45.07828	700.71997	 39.50	
 15.293	 96.458	 39.46231	 10.50347	 17.90346	 37.98513	 -5.15833	 -1.92800	 45.09879	700.71002	 39.50	
 15.300	 90.000	 39.49385	 12.90232	 15.55317	 38.23115	 -5.21199	 -1.93576	 45.07303	700.78998	 39.50	
 15.293	 83.542	 39.55187	 15.40161	 13.17214	 38.20020	 -5.14433	 -1.88042	 45.08495	700.84003	 39.50	
 15.293	 77.103	 39.62070	 17.83156	 10.89131	 37.80570	 -4.83002	 -1.78682	 45.08813	700.85999	 39.50	
 15.297	 70.709	 39.65082	 20.20707	  8.75677	 37.15285	 -4.36968	 -1.76613	 45.07115	700.91998	 39.50	
 15.304	 64.289	 39.69914	 22.66182	  6.65531	 36.22059	 -3.77356	 -1.78399	 45.08008	700.82001	 39.50	
 15.309	 57.858	 39.79610	 25.09300	  4.75167	 35.03645	 -3.01397	 -1.77723	 45.10358	700.72998	 39.50	
 15.305	 51.417	 39.86425	 27.32553	  3.08504	 33.53609	 -1.98242	 -1.77083	 45.10688	700.71997	 39.50	
 15.299	 45.015	 39.90521	 29.37978	  1.64951	 31.77007	 -0.68645	 -1.71892	 45.06346	700.71997	 39.50	
 15.293	 38.572	 40.00916	 31.27708	  0.39305	 29.91400	  0.78302	 -1.61768	 45.11811	700.70001	 39.50	
 15.288	 32.146	 40.08543	 32.95014	 -0.66305	 27.86363	  2.38437	 -1.51255	 45.09960	700.77002	 39.50	
 15.300	 25.739	 40.15216	 34.42389	 -1.56957	 25.63232	  4.24819	 -1.47622	 45.11842	700.76001	 39.50	
 15.307	 19.324	 40.22941	 35.58710	 -2.24562	 23.22093	  6.38593	 -1.41521	 45.10233	700.78998	 39.50	
 15.291	 12.833	 40.29277	 36.46008	 -2.72370	 20.75932	  8.70118	 -1.44203	 45.11366	700.78003	 39.50	
 15.298	  6.413	 40.31781	 37.01150	 -3.09251	 18.45469	 11.04654	 -1.46524	 45.08703	700.69000	 39.50	
 15.300	  0.000	 40.37722	 37.25391	 -3.11635	 16.13258	 13.52726	 -1.45120	 45.07993	700.65002	 39.50	
 15.298	 -6.413	 40.45930	 37.18787	 -2.96829	 13.80491	 15.97421	 -1.42950	 45.08987	700.73999	 39.50	
 15.291	-12.833	 40.51938	 36.79756	 -2.62570	 11.49711	 18.38361	 -1.37013	 45.08783	700.65997	 39.50	
 15.307	-19.324	 40.53911	 36.10251	 -2.12259	  9.18395	 20.62560	 -1.32925	 45.06956	700.65997	 39.50	
 15.300	-25.739	 40.57026	 35.12749	 -1.49621	  7.05981	 23.07349	 -1.34861	 45.07682	700.66998	 39.50	
 15.288	-32.146	 40.61538	 33.82020	 -0.58528	  5.11421	 25.52553	 -1.39631	 45.10904	700.71997	 39.50	
 15.293	-38.572	 40.61083	 32.26611	  0.50233	  3.29682	 27.78059	 -1.47487	 45.08141	700.67999	 39.50	
 15.299	-45.015	 40.64127	 30.51206	  1.81931	  1.62685	 29.79284	 -1.53924	 45.08305	700.71002	 39.50	
 15.305	-51.417	 40.61464	 28.52542	  3.28652	  0.23601	 31.58828	 -1.55629	 45.10640	700.78998	 39.50	
 15.309	-57.858	 40.60326	 26.32224	  5.02207	 -0.89534	 33.17740	 -1.59668	 45.11764	700.67999	 39.50	
 15.304	-64.289	 40.56497	 23.97984	  6.97118	 -1.72465	 34.58691	 -1.60041	 45.10617	700.71997	 39.50	
 15.297	-70.709	 40.57510	 21.55684	  9.05749	 -2.34037	 35.67435	 -1.65444	 45.06321	700.63000	 39.50	
 15.293	-77.103	 40.54140	 19.14553	 11.22372	 -2.83357	 36.44105	 -1.73931	 45.05852	700.78003	 39.50	
 15.293	-83.542	 40.48043	 16.61919	 13.53553	 -3.20587	 36.95725	 -1.81212	 45.09195	700.71002	 39.60	
 15.300	-90.000	 40.43300	 14.16551	 15.91244	 -3.37931	 37.12801	 -1.84381	 45.08990	700.73999	 39.60	
 15.293	-96.458	 40.37204	 11.72343	 18.21672	 -3.32740	 36.95403	 -1.83632	 45.12038	700.84998	 39.60	
 15.293	-102.897	 40.32799	  9.33663	 20.56700	 -2.99312	 36.42983	 -1.75044	 45.10640	700.84998	 39.60	
 15.297	-109.291	 40.27481	  7.08063	 22.93743	 -2.58833	 35.65197	 -1.70139	 45.11774	700.84003	 39.60	
 15.304	-115.711	 40.21355	  5.04087	 25.26592	 -2.02222	 34.51788	 -1.67308	 45.13801	700.78003	 39.60	
 15.309	-122.142	 40.12510	  3.06513	 27.51555	 -1.30114	 33.12793	 -1.70301	 45.09448	700.75000	 39.60	
 15.305	-128.583	 40.05449	  1.30950	 29.65899	 -0.27720	 31.49694	 -1.74996	 45.11648	700.78998	 39.60	
 15.299	-134.985	 40.02718	 -0.19838	 31.61547	  0.95392	 29.68726	 -1.74704	 45.11197	700.78003	 39.60	
 15.293	-141.428	 39.94017	 -1.56428	 33.34987	  2.38142	 27.63749	 -1.68695	 45.09699	700.73999	 39.60	
 15.288	-147.854	 39.85910	 -2.72212	 34.91706	  4.05392	 25.35997	 -1.73222	 45.14542	700.84998	 39.60	
 15.300	-154.261	 39.76348	 -3.66661	 36.21014	  5.87016	 22.94645	 -1.78206	 45.08122	700.84998	 39.70	
 15.307	-160.676	 39.69574	 -4.33681	 37.22558	  7.83202	 20.52638	 -1.81736	 45.11200	700.78003	 39.60	
 15.291	-167.167	 39.63198	 -4.80277	 37.91473	 10.01134	 18.23461	 -1.88457	 45.07001	700.84003	 39.60	
 15.298	-173.587	 39.56055	 -5.19653	 38.36018	 12.20240	 15.84308	 -1.93835	 45.09412	700.82001	 39.70	
 15.300	180.000	 39.47947	 -5.34310	 38.50778	 14.51738	 13.36472	 -1.96194	 45.09842	700.83002	 39.70	
 17.000	180.000	 38.06595	 -7.76615	 39.88363	 13.37059	 12.24025	 -2.09861	 45.08997	700.78003	 39.70	
 16.990	-174.179	 38.10543	 -7.67123	 39.75030	 11.02505	 14.74500	 -2.06672	 45.07879	700.76001	 39.70	
 17.009	-168.383	 38.19297	 -7.40156	 39.38223	  8.80752	 17.17939	 -2.05774	 45.12032	700.75000	 39.70	
 17.000	-162.596	 38.23937	 -6.96819	 38.69485	  6.69255	 19.53945	 -1.97326	 45.07670	700.65997	 39.70	
 16.990	-156.759	 38.33028	 -6.36498	 37.79165	  4.66616	 21.76612	 -1.92918	 45.08702	700.72998	 39.70	
 16.995	-150.919	 38.41237	 -5.58486	 36.63856	  2.83372	 24.32063	 -1.88850	 45.11962	700.78003	 39.70	
 16.988	-145.161	 38.50367	 -4.67187	 35.21945	  1.22257	 26.65103	 -1.88794	 45.11365	700.78003	 39.70	
 17.014	-139.343	 38.53985	 -3.45248	 33.50617	 -0.32192	 28.86567	 -1.90711	 45.08191	700.81000	 39.70	
 17.007	-133.546	 38.65776	 -2.07732	 31.73278	 -1.62328	 30.86925	 -1.91795	 45.10287	700.75000	 39.70	
 17.001	-127.699	 38.77651	 -0.52901	 29.73652	 -2.66390	 32.63922	 -1.90477	 45.10420	700.76001	 39.70	
 17.006	-121.937	 38.85283	  1.17455	 27.64753	 -3.50389	 34.28706	 -1.90964	 45.14151	700.84003	 39.70	
 17.002	-116.134	 38.91012	  3.08365	 25.37584	 -4.29193	 35.70374	 -1.86559	 45.09230	700.78998	 39.70	
 17.001	-110.310	 38.94861	  5.03140	 23.02282	 -4.95400	 36.84876	 -1.91777	 45.11705	700.81000	 39.70	
 16.988	-104.517	 39.02058	  7.18434	 20.67867	 -5.43951	 37.66873	 -2.00004	 45.07940	700.77002	 39.70	
 17.008	-98.662	 39.05700	  9.53945	 18.35147	 -5.73331	 38.32295	 -2.07499	 45.10276	700.79999	 39.70	
 16.996	-92.909	 39.12325	 11.91427	 16.01648	 -5.81199	 38.61471	 -2.13768	 45.07708	700.73999	 39.70	
 16.996	-87.091	 39.19084	 14.36717	 13.67776	 -5.77058	 38.63346	 -2.14070	 45.09482	700.62000	 39.70	
 17.012	-81.253	 39.23004	 16.84784	 11.27783	 -5.57725	 38.36903	 -2.11204	 45.09894	700.67999	 39.70	
 16.988	-75.483	 39.28858	 19.29776	  9.05589	 -5.11903	 37.72917	 -2.00731	 45.11074	700.70001	 39.70	
 17.001	-69.690	 39.32252	 21.75660	  6.91882	 -4.59462	 36.92813	 -1.94989	 45.10225	700.82001	 39.70	
 17.002	-63.866	 39.33081	 24.21732	  4.86274	 -3.92083	 35.79317	 -1.88848	 45.09008	700.76001	 39.70	
 17.006	-58.063	 39.33144	 26.55212	  3.04055	 -3.14235	 34.40504	 -1.86140	 45.10506	700.76001	 39.70	
 17.001	-52.301	 39.36727	 28.74660	  1.42015	 -2.13031	 32.80086	 -1.82492	 45.07796	700.84998	 39.70	
 17.007	-46.454	 39.37346	 30.82048	 -0.06496	 -0.91758	 30.97887	 -1.79321	 45.09869	700.66998	 39.70	
 17.014	-40.657	 39.36071	 32.68436	 -1.34396	  0.56815	 28.99981	 -1.75071	 45.07242	700.84998	 39.70	
 16.988	-34.839	 39.37938	 34.30340	 -2.36502	  2.25756	 26.83185	 -1.68812	 45.10824	700.82001	 39.70	
 16.995	-29.081	 39.36298	 35.67957	 -3.20691	  4.09632	 24.50817	 -1.61568	 45.06907	700.84003	 39.70	
 16.990	-23.241	 39.34102	 36.84404	 -3.94356	  6.05114	 22.05243	 -1.56192	 45.08819	700.82001	 39.70	
 17.000	-17.404	 39.31009	 37.77728	 -4.62519	  8.18095	 19.74774	 -1.56174	 45.09741	700.94000	 39.70	
 17.009	-11.617	 39.23781	 38.41236	 -5.17397	 10.47183	 17.33540	 -1.58889	 45.09308	700.92999	 39.70	
 16.990	 -5.821	 39.14429	 38.70366	 -5.43678	 12.81716	 14.89896	 -1.60446	 45.08960	700.96997	 39.70	
 17.000	  0.000	 39.08211	 38.79178	 -5.60818	 15.14109	 12.38228	 -1.65371	 45.08826	700.90997	 39.70	
 16.990	  5.821	 39.05270	 38.54555	 -5.60980	 17.50320	  9.91443	 -1.66887	 45.10833	700.89001	 39.70	
 17.009	 11.617	 38.97250	 38.03228	 -5.33282	 19.78524	  7.53258	 -1.67816	 45.08525	700.84998	 39.70	
 17.000	 17.404	 38.92094	 37.25592	 -4.85410	 22.15554	  5.31318	 -1.72047	 45.10985	700.90997	 39.70	
 16.990	 23.241	 38.84348	 36.14125	 -4.23293	 24.56830	  3.26905	 -1.73640	 45.08227	700.94000	 39.70	
 16.995	 29.081	 38.76946	 34.81290	 -3.45754	 26.88825	  1.44880	 -1.80305	 45.08798	700.88000	 39.70	
 16.988	 34.839	 38.69621	 33.26970	 -2.55919	 29.05371	 -0.23929	 -1.87178	 45.10313	700.87000	 39.70	
 17.014	 40.657	 38.58447	 31.52527	 -1.51195	 31.07839	 -1.83940	 -1.97554	 45.10406	700.87000	 39.70	
 17.007	 46.454	 38.57703	 29.55003	 -0.18379	 32.94490	 -3.12283	 -2.05491	 45.12445	700.82001	 39.70	
 17.001	 52.301	 38.49519	 27.42321	  1.20198	 34.67500	 -4.29192	 -2.07675	 45.11574	700.90002	 39.70	
 17.006	 58.063	 38.40765	 25.17917	  2.76449	 36.10510	 -5.24135	 -2.08287	 45.08943	700.76001	 39.70	
 17.002	 63.866	 38.32378	 22.77413	  4.53174	 37.34063	 -6.05781	 -2.08011	 45.10896	700.79999	 39.70	
 17.001	 69.690	 38.25327	 20.28383	  6.53691	 38.31104	 -6.70234	 -2.12151	 45.09387	700.78998	 39.70	
 16.988	 75.483	 38.20345	 17.86615	  8.69398	 39.05797	 -7.25008	 -2.11488	 45.11384	700.85999	 39.70	
 17.012	 81.253	 38.10977	 15.47226	 10.87325	 39.50074	 -7.57521	 -2.13846	 45.09262	700.83002	 39.70	
 16.996	 87.091	 38.07974	 13.00463	 13.24874	 39.66351	 -7.70015	 -2.16087	 45.11288	700.89001	 39.70	
 16.996	 92.909	 38.02393	 10.57918	 15.61293	 39.58602	 -7.74153	 -2.20680	 45.12079	700.85999	 39.70	
 17.008	 98.662	 37.92996	  8.19460	 17.91675	 39.21775	 -7.72564	 -2.18175	 45.08363	700.78003	 39.70	
 16.988	104.517	 37.93473	  5.81487	 20.32666	 38.59037	 -7.30089	 -2.12661	 45.12480	700.90997	 39.70	
 17.001	110.310	 37.92198	  3.74291	 22.63760	 37.69772	 -6.90322	 -2.04518	 45.12918	700.81000	 39.70	
 17.002	116.134	 37.91558	  1.74484	 25.07149	 36.54213	 -6.17302	 -2.02959	 45.13186	700.88000	 39.70	
 17.006	121.937	 37.88659	 -0.03942	 27.38642	 35.08850	 -5.19585	 -2.07832	 45.12198	700.84998	 39.70	
 17.001	127.699	 37.90375	 -1.54319	 29.55138	 33.40800	 -4.13174	 -2.15086	 45.12744	700.81000	 39.70	
 17.007	133.546	 37.85546	 -3.03427	 31.48222	 31.58874	 -3.07673	 -2.23928	 45.10559	700.81000	 39.70	
 17.014	139.343	 37.82125	 -4.24677	 33.32794	 29.60093	 -1.80044	 -2.30905	 45.09453	700.82001	 39.70	
 16.988	145.161	 37.85590	 -5.23116	 35.01896	 27.45523	 -0.21954	 -2.32233	 45.10757	700.72998	 39.70	
 16.995	150.919	 37.87150	 -5.92135	 36.47951	 25.20216	  1.43389	 -2.30495	 45.10926	700.84998	 39.70	
 16.990	156.759	 37.89960	 -6.47058	 37.69099	 22.81043	  3.23796	 -2.26194	 45.09667	700.78003	 39.70	
 17.000	162.596	 37.95461	 -7.02245	 38.65659	 20.43113	  5.21821	 -2.20231	 45.11523	700.75000	 39.70	
 17.009	168.383	 37.96353	 -7.48900	 39.32689	 18.11452	  7.44862	 -2.14833	 45.10748	700.79999	 39.70	
 16.990	174.179	 38.00714	 -7.74810	 39.72923	 15.72883	  9.78212	 -2.12593	 45.08760	700.78003	 39.70	
 18.709	174.675	 36.44586	-10.15843	 41.00381	 14.47108	  8.63800	 -2.12551	 45.09068	700.82001	 39.70	
 18.703	169.441	 36.41238	 -9.97772	 40.64637	 16.80305	  6.35696	 -2.17676	 45.13345	700.83002	 39.70	
 18.691	164.085	 36.44199	 -9.52578	 40.00741	 19.28082	  4.21766	 -2.22820	 45.14523	700.78003	 39.70	
 18.706	158.818	 36.34410	 -9.00079	 39.10505	 21.53595	  2.16225	 -2.26565	 45.10101	700.82001	 39.70	
 18.695	153.537	 36.32768	 -8.47408	 38.00996	 23.89961	  0.37147	 -2.31515	 45.11715	700.78998	 39.70	
 18.704	148.255	 36.26560	 -7.88997	 36.67226	 26.24807	 -1.37171	 -2.34063	 45.09262	700.76001	 39.70	
 18.698	142.952	 36.28745	 -6.98156	 35.12917	 28.52375	 -2.91936	 -2.34883	 45.13375	700.88000	 39.80	
 18.699	137.625	 36.29218	 -5.96301	 33.41032	 30.55607	 -4.25711	 -2.31938	 45.10541	700.79999	 39.80	
 18.705	132.343	 36.31653	 -4.73445	 31.53219	 32.50901	 -5.37988	 -2.26820	 45.12790	700.95001	 39.80	
 18.713	127.067	 36.32280	 -3.42611	 29.49956	 34.33731	 -6.54839	 -2.22768	 45.13359	700.87000	 39.80	
 18.700	121.794	 36.29451	 -2.03179	 27.32434	 35.93670	 -7.63163	 -2.10184	 45.10091	700.87000	 39.80	
 18.698	116.504	 36.31272	 -0.28710	 24.94875	 37.41920	 -8.67990	 -2.07795	 45.11691	700.84998	 39.80	
 18.707	111.165	 36.30601	  1.61617	 22.51392	 38.67737	 -9.47886	 -2.06419	 45.13048	700.91998	 39.80	
 18.690	105.863	 36.32054	  3.68745	 20.15282	 39.55270	 -9.95479	 -2.10972	 45.10890	700.87000	 39.80	
 18.696	100.583	 36.36895	  5.86263	 17.82442	 40.28121	-10.25854	 -2.14712	 45.11532	700.96002	 39.80	
 18.700	 95.309	 36.40814	  8.23773	 15.47708	 40.73743	-10.37558	 -2.22227	 45.13407	700.89001	 39.80	
 18.700	 90.000	 36.44673	 10.59070	 13.15854	 40.92295	-10.23634	 -2.26221	 45.09719	700.96002	 39.80	
 18.700	 84.691	 36.47168	 12.98466	 10.82459	 40.89625	-10.22693	 -2.26857	 45.09643	700.96997	 39.80	
 18.696	 79.417	 36.55942	 15.36884	  8.66135	 40.63509	-10.06543	 -2.34222	 45.10786	700.89001	 39.80	
 18.690	 74.137	 36.63356	 17.80603	  6.52437	 40.13329	 -9.70043	 -2.34738	 45.13969	700.90002	 39.80	
 18.707	 68.835	 36.67395	 20.23056	  4.46831	 39.34016	 -9.07538	 -2.31745	 45.11290	700.92999	 39.80	
 18.698	 63.496	 36.75127	 22.72634	  2.56293	 38.30103	 -8.39071	 -2.29053	 45.10055	700.95001	 39.90	
 18.700	 58.206	 36.81477	 25.14013	  0.79065	 37.06308	 -7.55832	 -2.25768	 45.10677	700.97998	 39.90	
 18.713	 52.933	 36.89186	 27.42231	 -0.73818	 35.62915	 -6.57952	 -2.23209	 45.12040	700.98999	 39.90	
 18.705	 47.657	 36.99097	 29.58687	 -2.03052	 33.99324	 -5.49092	 -2.13441	 45.12608	700.85999	 39.90	
 18.699	 42.375	 37.08213	 31.55280	 -3.13779	 32.15568	 -4.22406	 -2.08075	 45.09864	700.96002	 39.90	
 18.698	 37.048	 37.17342	 33.44290	 -4.24510	 30.18310	 -2.81857	 -2.01814	 45.10470	700.89001	 39.90	
 18.704	 31.745	 37.22819	 35.12864	 -5.30394	 28.05159	 -1.29981	 -1.91639	 45.11680	700.91998	 39.90	
 18.695	 26.463	 37.29469	 36.53229	 -6.23843	 25.77256	  0.39928	 -1.86212	 45.11577	700.79999	 39.90	
 18.706	 21.182	 37.37180	 37.76966	 -6.91620	 23.43333	  2.26007	 -1.81730	 45.11305	700.87000	 39.90	
 18.691	 15.915	 37.42223	 38.73042	 -7.41096	 21.03648	  4.22628	 -1.77216	 45.07914	700.84003	 39.90	
 18.703	 10.559	 37.48015	 39.51081	 -7.88034	 18.65463	  6.38467	 -1.73595	 45.08999	700.88000	 39.90	
 18.709	  5.325	 37.56446	 39.95880	 -8.05332	 16.38057	  8.70710	 -1.67955	 45.09512	700.90002	 39.90	
 18.700	  0.000	 37.62128	 40.15157	 -7.97457	 14.02250	 11.17771	 -1.65531	 45.08155	700.78998	 39.90	
 18.709	 -5.325	 37.68799	 40.11365	 -7.84532	 11.66506	 13.68298	 -1.66401	 45.08197	700.82001	 39.90	
 18.703	-10.559	 37.73695	 39.86909	 -7.63519	  9.35410	 16.08824	 -1.62903	 45.08355	700.82001	 39.90	
 18.691	-15.915	 37.79641	 39.26412	 -7.16144	  7.06278	 18.60477	 -1.62434	 45.08253	700.88000	 39.90	
 18.706	-21.182	 37.86556	 38.47378	 -6.48410	  4.99871	 20.91452	 -1.64801	 45.10089	700.84998	 39.90	
 18.695	-26.463	 37.94147	 37.44081	 -5.74117	  3.07425	 23.32685	 -1.65624	 45.11013	700.83002	 39.90	
 18.704	-31.745	 37.92102	 36.13372	 -5.05522	  1.27306	 25.69731	 -1.65404	 45.09019	700.81000	 39.90	
 18.698	-37.048	 37.91312	 34.62532	 -4.16039	 -0.38214	 27.96976	 -1.70982	 45.09735	700.89001	 39.90	
 18.699	-42.375	 37.94390	 32.90356	 -3.05659	 -1.84432	 30.07250	 -1.77720	 45.09912	700.96997	 39.90	
 18.705	-47.657	 37.94096	 30.97460	 -1.86055	 -3.20390	 32.06268	 -1.80666	 45.09987	700.78003	 39.90	
 18.713	-52.933	 37.91733	 28.92534	 -0.49405	 -4.32894	 33.86027	 -1.87415	 45.13012	700.90997	 39.90	
 18.700	-58.206	 37.92030	 26.73894	  1.10912	 -5.20643	 35.43513	 -1.91507	 45.10064	700.87000	 39.90	
 18.698	-63.496	 37.88527	 24.40701	  2.85464	 -6.10257	 36.78834	 -1.98198	 45.10199	700.83002	 39.90	
 18.707	-68.835	 37.85816	 21.95263	  4.74468	 -6.83798	 37.92179	 -2.04736	 45.10438	700.88000	 39.90	
 18.690	-74.137	 37.85028	 19.45797	  6.84799	 -7.40907	 38.82076	 -2.07994	 45.09212	700.96997	 39.90	
 18.696	-79.417	 37.76239	 16.95297	  9.06517	 -7.89260	 39.44876	 -2.14959	 45.06656	700.90997	 39.90	
 18.700	-84.691	 37.69404	 14.49041	 11.30424	 -8.16837	 39.83932	 -2.15830	 45.06959	700.90002	 39.90	
 18.700	-90.000	 37.65044	 12.03721	 13.65648	 -8.31765	 39.96782	 -2.17530	 45.07793	700.92999	 39.90	
 18.700	-95.309	 37.60062	  9.69547	 15.97231	 -8.30357	 39.85226	 -2.15203	 45.09083	700.19000	 39.90	
 18.696	-100.583	 37.53695	  7.36031	 18.33126	 -8.18430	 39.47492	 -2.04606	 45.10690	700.91998	 39.90	
 18.690	-105.863	 37.45413	  5.17071	 20.58177	 -7.95934	 38.78463	 -1.99497	 45.08617	700.95001	 39.90	
 18.707	-111.165	 37.40155	  3.03440	 22.95355	 -7.42444	 37.88375	 -1.89042	 45.09721	700.69000	 39.90	
 18.698	-116.504	 37.30640	  1.04572	 25.29668	 -6.81717	 36.69442	 -1.85538	 45.08196	700.97998	 39.90	
 18.700	-121.794	 37.25217	 -0.77770	 27.58912	 -6.03260	 35.24222	 -1.86569	 45.06586	700.83002	 39.90	
 18.713	-127.067	 37.22078	 -2.42610	 29.74654	 -5.14558	 33.67380	 -1.86420	 45.10319	700.89001	 40.00	
 18.705	-132.343	 37.12420	 -3.94459	 31.71625	 -4.11843	 31.89210	 -1.86564	 45.10158	700.98999	 39.90	
 18.699	-137.625	 37.03945	 -5.21145	 33.55247	 -2.85927	 29.91037	 -1.87394	 45.06123	700.90997	 40.00	
 18.698	-142.952	 36.98579	 -6.38042	 35.29798	 -1.51282	 27.81672	 -1.81913	 45.09198	700.88000	 40.00	
 18.704	-148.255	 36.90421	 -7.44852	 36.81352	 -0.03008	 25.51645	 -1.83468	 45.08340	700.84998	 40.00	
 18.695	-153.537	 36.82772	 -8.28538	 38.12362	  1.65464	 23.02105	 -1.86107	 45.07378	700.90002	 40.00	
 18.706	-158.818	 36.72599	 -9.10498	 39.21077	  3.47286	 20.66517	 -1.88507	 45.06521	701.00000	 40.00	
 18.691	-164.085	 36.66826	 -9.65551	 40.05083	  5.47321	 18.34375	 -1.92380	 45.06469	700.90002	 40.00	
 18.703	-169.441	 36.59760	-10.03058	 40.66615	  7.64348	 15.86401	 -1.96547	 45.06398	700.87000	 40.00	
 18.709	-174.675	 36.55250	-10.09729	 41.00414	  9.80271	 13.49598	 -2.00952	 45.07373	700.90002	 40.00	
 18.700	180.000	 36.51098	-10.15950	 41.13387	 12.11880	 11.04516	 -2.03888	 45.09501	701.01001	 40.00	
 20.400	180.000	 34.82817	-12.57038	 42.21352	 10.74271	  9.80282	 -1.95454	 45.10461	700.87000	 40.00	
 20.401	-175.153	 34.84489	-12.69406	 42.11065	  8.56243	 12.05523	 -1.92999	 45.10199	701.03003	 40.00	
 20.407	-170.264	 34.88667	-12.76758	 41.81823	  6.40662	 14.38312	 -1.89057	 45.09749	700.85999	 40.00	
 20.410	-165.423	 34.93845	-12.45509	 41.30295	  4.28427	 16.90572	 -1.82083	 45.10809	700.95001	 40.00	
 20.392	-160.496	 34.98849	-11.92670	 40.48568	  2.28751	 19.37170	 -1.81374	 45.07299	700.91998	 40.00	
 20.401	-155.705	 35.10510	-11.08520	 39.49770	  0.48538	 21.72885	 -1.74789	 45.09246	700.92999	 40.00	
 20.405	-150.835	 35.19427	-10.18245	 38.25248	 -1.22270	 24.12557	 -1.76169	 45.08450	700.90002	 40.00	
 20.397	-145.903	 35.28902	 -9.22124	 36.82434	 -2.73520	 26.59254	 -1.75915	 45.09512	700.73999	 40.00	
 20.392	-141.062	 35.39476	 -8.00144	 35.21564	 -4.05584	 28.83763	 -1.77121	 45.10669	700.66998	 40.00	
 20.396	-136.227	 35.43270	 -6.74756	 33.48705	 -5.37903	 30.89618	 -1.76928	 45.07779	700.38000	 40.00	
 20.408	-131.372	 35.47371	 -5.56809	 31.54504	 -6.61621	 32.85618	 -1.76566	 45.07906	700.32001	 40.00	
 20.410	-126.511	 35.53658	 -4.25633	 29.54178	 -7.66720	 34.64760	 -1.75951	 45.07870	700.28003	 40.00	
 20.400	-121.604	 35.59446	 -2.67264	 27.33393	 -8.57620	 36.24257	 -1.75997	 45.09218	700.96997	 40.00	
 20.403	-116.741	 35.66188	 -0.93531	 25.06420	 -9.26453	 37.57318	 -1.75896	 45.05309	700.34003	 40.00	
 20.413	-111.900	 35.74356	  0.95053	 22.78522	 -9.82561	 38.80777	 -1.80353	 45.12214	700.26001	 40.00	
 20.398	-107.004	 35.77222	  3.00318	 20.39137	-10.43579	 39.74343	 -1.88683	 45.08694	700.28998	 40.00	
 20.394	-102.132	 35.85202	  5.16123	 18.11967	-10.75433	 40.47480	 -1.92852	 45.10562	700.12000	 40.00	
 20.403	-97.332	 35.91806	  7.33395	 15.85211	-10.76490	 40.93671	 -1.99628	 45.08285	700.12000	 40.00	
 20.392	-92.440	 35.96909	  9.64393	 13.49712	-10.84297	 41.16806	 -2.05090	 45.07785	700.19000	 40.00	
 20.392	-87.560	 36.07226	 12.02684	 11.25430	-10.75471	 41.18693	 -2.15131	 45.10473	700.12000	 40.00	
 20.403	-82.668	 36.10729	 14.42138	  8.95940	-10.63934	 40.98316	 -2.13331	 45.11490	700.19000	 40.00	
 20.394	-77.868	 36.14812	 16.85995	  6.85115	-10.32935	 40.50203	 -2.16027	 45.09638	700.17999	 40.00	
 20.398	-72.996	 36.16763	 19.36140	  4.68895	 -9.89486	 39.82303	 -2.14193	 45.06535	700.16998	 40.00	
 20.413	-68.100	 36.20810	 21.89185	  2.66289	 -9.25623	 38.87746	 -2.06283	 45.09528	700.21002	 40.00	
 20.403	-63.259	 36.27370	 24.33722	  0.87746	 -8.48372	 37.70735	 -1.98020	 45.08240	700.15002	 40.00	
 20.400	-58.396	 36.28748	 26.70741	 -0.79016	 -7.43782	 36.34658	 -1.95212	 45.07380	700.22998	 40.00	
 20.410	-53.489	 36.31689	 28.93359	 -2.36080	 -6.35108	 34.70127	 -1.91439	 45.04495	700.22998	 40.00	
 20.408	-48.628	 36.31356	 30.96389	 -3.66144	 -5.33222	 32.93702	 -1.82814	 45.08195	700.33002	 40.00	
 20.396	-43.773	 36.31557	 32.87710	 -4.79594	 -4.20430	 31.05834	 -1.78579	 45.06911	700.26001	 40.00	
 20.392	-38.938	 36.33506	 34.67545	 -5.95351	 -2.87864	 28.98612	 -1.69138	 45.07949	700.31000	 40.00	
 20.397	-34.097	 36.27338	 36.30149	 -7.03450	 -1.46356	 26.76604	 -1.63797	 45.08229	700.25000	 40.00	
 20.405	-29.165	 36.26572	 37.72023	 -7.95419	  0.16352	 24.38879	 -1.62467	 45.06633	700.28003	 40.00	
 20.401	-24.295	 36.25718	 38.87579	 -8.57208	  2.01956	 21.97907	 -1.64787	 45.05119	700.28003	 40.00	
 20.392	-19.504	 36.22781	 39.82978	 -9.22968	  3.93484	 19.66012	 -1.67902	 45.05109	700.23999	 40.00	
 20.410	-14.577	 36.16109	 40.56435	 -9.76783	  6.01722	 17.23561	 -1.70671	 45.07020	700.23999	 40.00	
 20.407	 -9.736	 36.14183	 41.06801	-10.01059	  8.22210	 14.82302	 -1.67728	 45.06714	700.19000	 40.00	
 20.401	 -4.847	 36.03285	 41.29621	-10.24427	 10.50638	 12.32639	 -1.66924	 45.04077	700.28998	 40.00	
 20.400	  0.000	 35.98016	 41.32142	-10.37685	 12.79534	  9.92025	 -1.66861	 45.03675	700.31000	 40.00	
 20.401	  4.847	 35.89107	 41.14901	-10.58311	 15.04665	  7.51615	 -1.72347	 45.04750	700.34998	 39.90	
 20.407	  9.736	 35.82331	 40.69367	-10.37318	 17.40090	  5.29320	 -1.73798	 45.02369	700.23999	 39.90	
 20.410	 14.577	 35.75941	 40.05369	-10.00565	 19.76083	  3.19254	 -1.80847	 45.05671	700.28998	 39.90	
 20.392	 19.504	 35.70777	 39.11303	 -9.56204	 22.14107	  1.16290	 -1.87321	 45.05699	700.42999	 40.00	
 20.401	 24.295	 35.62118	 38.02121	 -9.08156	 24.42651	 -0.68207	 -1.88384	 45.06280	700.34998	 40.00	
 20.405	 29.165	 35.54661	 36.66978	 -8.26209	 26.75128	 -2.38480	 -1.94182	 45.03440	700.26001	 40.00	
 20.397	 34.097	 35.51561	 35.12386	 -7.25329	 28.98790	 -3.91063	 -2.02484	 45.05816	700.35999	 40.00	
 20.392	 38.938	 35.46361	 33.38579	 -6.18695	 31.03503	 -5.28483	 -2.07538	 45.06458	700.26001	 40.00	
 20.396	 43.773	 35.39194	 31.50846	 -5.08619	 32.98655	 -6.59931	 -2.11232	 45.07638	700.29999	 40.00	
 20.408	 48.628	 35.28912	 29.44577	 -3.91872	 34.82567	 -7.84409	 -2.15941	 45.07884	700.39001	 40.00	
 20.410	 53.489	 35.19868	 27.27026	 -2.61786	 36.47421	 -8.98442	 -2.19622	 45.08074	700.25000	 40.00	
 20.400	 58.396	 35.12794	 24.90550	 -1.05172	 37.94495	 -9.92212	 -2.22941	 45.08053	700.23999	 40.00	
 20.403	 63.259	 35.08002	 22.55128	  0.63594	 39.15470	-10.73640	 -2.27625	 45.09391	700.40002	 40.00	
 20.413	 68.100	 35.00794	 20.07959	  2.41666	 40.19865	-11.47359	 -2.31277	 45.10103	700.26001	 40.00	
 20.398	 72.996	 34.93829	 17.57590	  4.42393	 41.00177	-12.10473	 -2.36615	 45.07842	700.22998	 40.00	
 20.394	 77.868	 34.85178	 15.07960	  6.39889	 41.59412	-12.64055	 -2.41774	 45.09502	700.27002	 40.00	
 20.403	 82.668	 34.79559	 12.70131	  8.46137	 41.94054	-12.84627	 -2.36068	 45.08762	700.34003	 40.00	
 20.392	 87.560	 34.72457	 10.43783	 10.55928	 42.01701	-12.89724	 -2.13055	 45.05080	700.34003	 40.00	
 20.392	 92.440	 34.70481	  8.15351	 12.86463	 41.96409	-12.88856	 -2.08528	 45.07642	700.39001	 40.00	
 20.403	 97.332	 34.61721	  5.82248	 15.11311	 41.65798	-13.09782	 -1.99821	 45.06113	700.32001	 40.00	
 20.394	102.132	 34.58499	  3.58322	 17.50221	 41.13632	-12.88651	 -1.96161	 45.07015	700.23999	 40.00	
 20.398	107.004	 34.56390	  1.44611	 19.91762	 40.39377	-12.51131	 -1.94061	 45.07309	700.27002	 40.00	
 20.413	111.900	 34.57210	 -0.52438	 22.31196	 39.40313	-11.89627	 -1.92075	 45.08202	700.39001	 40.00	
 20.403	116.741	 34.57455	 -2.32467	 24.73025	 38.15445	-11.09465	 -1.92497	 45.08125	700.40002	 40.00	
 20.400	121.604	 34.58412	 -3.90805	 27.06252	 36.73494	-10.15688	 -1.96336	 45.10192	700.44000	 40.10	
 20.410	126.511	 34.56863	 -5.33672	 29.31196	 35.08234	 -9.05168	 -1.98375	 45.06824	700.41998	 40.00	
 20.408	131.372	 34.57808	 -6.56097	 31.39406	 33.25742	 -7.84816	 -2.04525	 45.06681	700.40997	 40.10	
 20.396	136.227	 34.60360	 -7.66023	 33.32217	 31.33953	 -6.71728	 -2.06868	 45.07099	700.28003	 40.10	
 20.392	141.062	 34.61325	 -8.74512	 35.08650	 29.34957	 -5.49968	 -2.20547	 45.08329	700.28998	 40.00	
 20.397	145.903	 34.58078	 -9.77969	 36.69172	 27.14796	 -4.05322	 -2.19802	 45.06472	700.39001	 40.10	
 20.405	150.835	 34.61418	-10.50636	 38.14512	 24.86814	 -2.49556	 -2.16743	 45.10065	700.21997	 40.10	
 20.401	155.705	 34.61467	-11.10586	 39.36006	 22.46137	 -0.80525	 -2.15203	 45.08426	700.27002	 40.10	
 20.392	160.496	 34.62848	-11.65641	 40.35877	 20.16925	  1.03315	 -2.14938	 45.06446	700.29999	 40.10	
 20.410	165.423	 34.65543	-12.39112	 41.20683	 17.75430	  3.19248	 -2.11653	 45.08097	700.39001	 40.10	
 20.407	170.264	 34.69558	-12.73319	 41.77859	 15.31048	  5.28592	 -2.06395	 45.10455	700.40997	 40.10	
 20.401	175.153	 34.73398	-12.81070	 42.09716	 12.92144	  7.38971	 -2.01573	 45.08113	700.37000	 40.10	
  0.141	 45.000	 45.23578	 18.40112	 20.32349	 20.10353	 17.95987	  1.13498	 45.11974	700.45001	 40.10	
  4.001	128.691	 44.92363	 14.18946	 23.68956	 24.17534	 13.47834	  0.78847	 45.10417	700.40997	 40.00	
  4.002	 76.995	 44.98809	 19.04778	 18.75503	 25.53718	 12.35936	  0.91066	 45.12188	700.40002	 40.10	
  4.002	 25.892	 45.08214	 23.32440	 15.16624	 22.48042	 15.33287	  1.01229	 45.10693	700.32001	 40.10	
  4.002	-25.892	 45.14495	 23.49089	 15.21793	 17.37490	 20.27164	  1.01224	 45.10701	700.33002	 40.10	
  4.002	-76.995	 45.14239	 19.41641	 18.85644	 14.35781	 23.72443	  0.98310	 45.12966	700.35999	 40.10	
  4.001	-128.691	 45.04316	 14.44248	 23.79982	 15.23624	 22.41588	  0.87821	 45.09146	700.33002	 40.00	
  4.000	180.000	 44.94099	 12.21753	 26.05143	 19.36757	 17.80342	  0.77419	 45.09130	700.35999	 40.00	
  8.000	180.000	 43.82727	  6.03250	 30.98935	 18.20489	 16.80137	 -0.14741	 45.08137	700.39001	 40.10	
  7.991	-152.370	 43.99083	  7.37903	 29.62183	 13.29187	 22.18723	  0.03874	 45.10059	700.40997	 40.10	
  7.997	-124.550	 44.09291	 10.81691	 25.79296	  9.62454	 26.79984	  0.12612	 45.05177	700.40002	 40.10	
  8.006	-96.837	 44.25449	 15.83980	 20.47076	  8.08667	 28.99770	  0.33113	 45.09738	700.42999	 40.10	
  7.988	-69.228	 44.31728	 21.42707	 15.34144	  8.82825	 28.30218	  0.40681	 45.05803	700.45001	 40.10	
  7.997	-41.563	 44.39260	 26.28912	 11.15096	 11.79598	 24.90739	  0.25451	 45.09145	700.33002	 40.10	
  8.008	-13.821	 44.33946	 29.01523	  8.75785	 16.47396	 19.43778	  0.31567	 45.10032	700.38000	 40.10	
  8.008	 13.821	 44.20968	 28.78735	  8.70229	 21.88617	 14.10927	  0.23554	 45.07940	700.35999	 40.10	
  7.997	 41.563	 44.06832	 25.80092	 10.98319	 26.95320	  9.46541	  0.23865	 45.08593	700.39001	 40.10	
  7.988	 69.228	 43.92062	 20.71850	 15.09365	 30.03858	  6.58737	  0.14525	 45.09708	700.37000	 40.10	
  8.006	 96.837	 43.77097	 15.14276	 20.23182	 30.46603	  6.06219	 -0.09304	 45.06576	700.37000	 40.10	
  7.997	124.550	 43.71818	 10.21465	 25.62463	 28.28021	  7.72947	 -0.05672	 45.07354	700.34998	 40.10	
  7.991	152.370	 43.72460	  7.05601	 29.52982	 23.73154	 11.59369	 -0.21208	 45.07673	700.42999	 40.10	
 12.009	161.059	 41.70304	  0.19224	 34.39486	 21.96236	  9.70332	 -1.32474	 45.09422	700.37000	 40.10	
 12.013	142.081	 41.64029	  2.12425	 31.42919	 27.43341	  5.00846	 -1.41843	 45.10077	700.39001	 40.10	
 12.006	123.113	 41.66949	  5.76327	 26.90401	 31.62856	  1.70276	 -1.25519	 45.06030	700.40997	 40.10	
 12.007	104.200	 41.71853	 10.64903	 21.39564	 34.38025	  0.00497	 -1.21207	 45.05640	700.39001	 40.10	
 11.989	 85.301	 41.82961	 16.17072	 16.05413	 35.10813	 -0.34226	 -1.12020	 45.08324	700.44000	 40.10	
 12.013	 66.294	 41.97400	 21.90730	 10.82567	 33.83319	  0.58173	 -0.93558	 45.12855	700.37000	 40.10	
 12.012	 47.388	 42.08658	 27.22480	  6.55997	 30.58750	  3.10511	 -0.88189	 45.07162	700.45001	 40.10	
 11.990	 28.440	 42.30759	 31.23616	  3.69335	 26.07164	  7.29675	 -0.68218	 45.09542	700.44000	 40.10	
 11.991	  9.464	 42.47177	 33.51886	  2.15262	 20.41388	 12.51092	 -0.76819	 45.08854	700.35999	 40.10	
 11.991	 -9.464	 42.58900	 33.76015	  2.13997	 15.02647	 18.10686	 -0.75751	 45.08032	700.39001	 40.10	
 11.990	-28.440	 42.68016	 31.85243	  3.83516	  9.90658	 23.68546	 -0.73670	 45.09450	700.51001	 40.10	
 12.012	-47.388	 42.67588	 28.09749	  6.72911	  5.71211	 28.66726	 -0.81388	 45.09519	700.35999	 40.10	
 12.013	-66.294	 42.60712	 22.94797	 11.05349	  2.97815	 32.01871	 -0.74330	 45.04090	700.46997	 40.10	
 11.989	-85.301	 42.58102	 17.17075	 16.33351	  1.78258	 33.65490	 -0.90060	 45.07517	700.35999	 40.10	
 12.007	-104.200	 42.42667	 11.60862	 21.67605	  1.93011	 33.09049	 -0.86120	 45.05867	700.46002	 40.10	
 12.006	-123.113	 42.26765	  6.64257	 27.10724	  3.60529	 30.48205	 -0.96215	 45.05592	700.34998	 40.10	
 12.013	-142.081	 42.10478	  2.83890	 31.55702	  6.77283	 26.24082	 -1.00709	 45.06022	700.42999	 40.10	
 12.009	-161.059	 41.92957	  0.59037	 34.43388	 11.24179	 20.61235	 -1.15949	 45.05381	700.42999	 40.10	
 16.000	180.000	 38.89852	 -6.34251	 39.08120	 14.04467	 12.92689	 -2.00264	 45.06118	700.44000	 40.10	
 15.990	-165.604	 39.04565	 -5.74282	 38.30884	  8.78610	 18.58892	 -1.91248	 45.03493	700.42999	 40.10	
 16.002	-151.165	 39.20477	 -4.24688	 36.06350	  4.10060	 24.15091	 -1.78765	 45.05368	700.34998	 40.10	
 16.002	-136.836	 39.41409	 -1.54685	 32.36718	  0.40588	 29.37964	 -1.78659	 45.07428	700.31000	 40.10	
 15.995	-122.439	 39.57862	  2.17480	 27.67912	 -2.14770	 33.44831	 -1.78530	 45.01814	700.34003	 40.10	
 15.993	-107.966	 39.73050	  6.86038	 22.29629	 -3.66468	 36.36229	 -1.77535	 45.04771	700.41998	 40.10	
 16.005	-93.629	 39.85860	 12.28455	 16.85766	 -4.38784	 37.70609	 -1.92837	 45.05311	700.40002	 40.10	
 15.992	-79.234	 39.96178	 18.07131	 11.34918	 -3.98813	 37.26270	 -1.86087	 45.01979	700.34998	 40.10	
 16.009	-64.774	 40.05000	 23.83048	  6.32968	 -2.71010	 35.19180	 -1.71013	 45.04537	700.34003	 40.10	
 15.997	-50.364	 40.10830	 29.09006	  2.15882	 -0.49541	 31.67647	 -1.64668	 45.05037	700.29999	 40.10	
 15.997	-36.045	 40.08533	 33.35461	 -0.86326	  3.09450	 27.10105	 -1.53443	 45.06538	700.37000	 40.10	
 16.000	-21.597	 40.05611	 36.33317	 -2.82841	  7.66353	 21.48040	 -1.40842	 45.05868	700.35999	 40.10	
 16.003	 -7.169	 39.89749	 37.76070	 -3.95650	 13.01064	 15.91956	 -1.46065	 45.03542	700.34003	 40.10	
 16.003	  7.169	 39.77234	 37.55264	 -4.10956	 18.44785	 10.16427	 -1.50550	 45.03667	700.28003	 40.10	
 16.000	 21.597	 39.61225	 35.68388	 -3.00859	 23.98527	  4.86261	 -1.53103	 45.01405	700.20001	 40.20	
 15.997	 36.045	 39.47083	 32.34757	 -1.02181	 29.24186	  0.56654	 -1.68851	 45.05567	700.31000	 40.20	
 15.997	 50.364	 39.30641	 27.85060	  1.98423	 33.58626	 -2.64525	 -1.85125	 45.02333	700.35999	 40.20	
 16.009	 64.774	 39.15866	 22.44023	  5.99293	 36.83134	 -4.79745	 -1.87108	 45.06359	700.27002	 40.20	
 15.992	 79.234	 39.01935	 16.70432	 11.04838	 38.52736	 -5.96848	 -1.93157	 45.03952	700.34998	 40.20	
 16.005	 93.629	 38.86626	 11.03628	 16.43899	 38.71933	 -6.27615	 -2.03629	 45.05833	700.29999	 40.20	
 15.993	107.966	 38.77868	  5.55111	 21.96841	 37.30322	 -5.45939	 -1.95039	 45.05193	700.44000	 40.20	
 15.995	122.439	 38.76298	  1.09039	 27.46174	 34.35658	 -3.71353	 -1.94511	 45.06332	700.40002	 40.20	
 16.002	136.836	 38.69862	 -2.42533	 32.12844	 30.21644	 -1.12561	 -2.16143	 45.04620	700.41998	 40.20	
 16.002	151.165	 38.71320	 -4.62455	 35.91198	 25.09921	  2.60592	 -2.19535	 45.04846	700.32001	 40.20	
 15.990	165.604	 38.81871	 -5.83964	 38.24601	 19.56446	  7.31566	 -2.03179	 45.05313	700.32001	 40.20	
 20.003	168.362	 35.03807	-11.96804	 41.29440	 16.45213	  4.84313	 -2.10224	 45.02917	700.34998	 40.20	
 20.008	156.764	 34.97544	-10.68266	 39.37274	 22.02262	  0.01098	 -2.21187	 45.04408	700.32001	 40.20	
 20.000	145.147	 34.92511	 -9.11313	 36.27262	 27.52401	 -3.82279	 -2.23955	 45.02944	700.32001	 40.20	
 19.995	133.545	 34.96970	 -6.58449	 32.17287	 32.31364	 -6.79122	 -2.15077	 45.04153	700.40997	 40.20	
 20.009	121.926	 34.93731	 -3.57128	 27.22113	 36.44632	 -9.52138	 -1.99372	 45.03358	700.34998	 40.20	
 20.005	110.327	 34.95538	  0.54929	 21.65664	 39.48492	-11.48156	 -1.98721	 45.03468	700.33002	 40.20	
 19.989	 98.733	 35.01976	  5.51397	 16.10186	 41.25051	-12.40036	 -2.05638	 45.04589	700.37000	 40.20	
 19.999	 87.075	 35.14720	 10.98337	 10.69527	 41.79044	-12.27262	 -2.16545	 45.07224	700.45001	 40.20	
 19.992	 75.457	 35.28547	 16.51285	  5.81835	 41.06281	-11.76478	 -2.39507	 45.05202	700.40997	 40.20	
 20.009	 63.844	 35.41767	 22.30293	  1.23923	 39.08361	-10.30922	 -2.30187	 45.05888	700.35999	 40.10	
 19.989	 52.269	 35.64326	 27.81371	 -2.45265	 35.92082	 -8.11672	 -2.18700	 45.06244	700.35999	 40.10	
 19.999	 40.602	 35.83411	 32.65306	 -5.25872	 31.67835	 -5.25976	 -2.13174	 45.08998	700.31000	 40.10	
 20.004	 29.051	 35.95234	 36.51380	 -7.68071	 26.75526	 -1.90623	 -1.94983	 45.04226	700.44000	 40.20	
 20.005	 17.433	 36.15705	 39.30860	 -9.15169	 21.30973	  2.40283	 -1.87179	 45.07899	700.39001	 40.10	
 20.006	  5.780	 36.30709	 40.84599	 -9.97287	 15.75243	  7.45370	 -1.72082	 45.09005	700.40997	 40.10	
 20.006	 -5.780	 36.43950	 41.01032	 -9.65846	 10.39300	 13.09440	 -1.67268	 45.05204	700.34998	 40.10	
 20.005	-17.433	 36.57431	 39.90768	 -8.86343	  5.15620	 18.85422	 -1.69885	 45.05494	700.38000	 40.20	
 20.004	-29.051	 36.66751	 37.54012	 -7.33195	  0.71013	 24.40234	 -1.66473	 45.07924	700.42999	 40.20	
 19.999	-40.602	 36.70568	 33.95713	 -5.06851	 -2.92900	 29.66466	 -1.78582	 45.10448	700.31000	 40.20	
 19.989	-52.269	 36.72097	 29.42064	 -2.20000	 -5.58352	 34.13337	 -1.89671	 45.07883	700.40002	 40.20	
 20.009	-63.844	 36.64533	 24.08355	  1.52186	 -8.03567	 37.67103	 -2.05042	 45.08604	700.32001	 40.20	
 19.992	-75.457	 36.57008	 18.28411	  6.16262	 -9.50500	 39.91845	 -2.16949	 45.08267	700.46002	 40.20	
 19.999	-87.075	 36.42961	 12.52710	 11.33271	-10.16654	 40.88510	 -2.16037	 45.05209	700.38000	 40.20	
 19.989	-98.733	 36.30094	  7.06687	 16.76124	-10.12960	 40.54999	 -2.03240	 45.08552	700.41998	 40.20	
 20.005	-110.327	 36.13836	  2.04903	 22.13541	 -9.44121	 38.87400	 -1.87709	 45.07919	700.34003	 40.20	
 20.009	-121.926	 35.98677	 -2.32779	 27.53474	 -7.93525	 35.91447	 -1.81035	 45.07429	700.31000	 40.20	
 19.995	-133.545	 35.87790	 -5.66654	 32.38737	 -5.53510	 31.89176	 -1.80460	 45.09636	700.35999	 40.20	
 20.000	-145.147	 35.67323	 -8.50581	 36.42027	 -2.48873	 26.95497	 -1.79577	 45.06757	700.38000	 40.20	
 20.008	-156.764	 35.46450	-10.69920	 39.52427	  1.29116	 21.32717	 -1.83661	 45.09444	700.37000	 40.30	
 20.003	-168.362	 35.29463	-12.03567	 41.37713	  5.92284	 15.64155	 -1.93737	 45.08367	700.40002	 40.30	
 20.000	180.000	 35.24347	-11.96952	 41.98592	 11.08912	 10.11436	 -2.00226	 45.11221	700.45001	 40.20	
