FileType=PCF
NHL=14
Date=05/30/19	16:48:50
Facility=APL
Serial=16071-13
Customer=NASA
NP=6
Mach=0.380000
Calibration=1:1
CalPts=490
TstPts=95
PortNumbering=AP Standard
Units=Torr C m/s kg/m^3 deg mm 
Theta[deg]	Phi[deg]	P1[Torr]	P2[Torr]	P3[Torr]	P4[Torr]	P5[Torr]	P6[Torr]	Pt[Torr]	Ps[Abs,Torr]	Ts[C]	
  0.000	  0.000	 73.65894	 29.92332	 34.08942	 32.96658	 29.91581	  1.77889	 73.49591	700.47998	 41.80	
  1.691	128.401	 73.57941	 27.24977	 36.47448	 36.03441	 26.72020	  1.63393	 73.48603	700.59003	 41.90	
  1.692	 77.194	 73.64834	 30.59622	 33.02140	 37.05690	 25.93374	  1.73597	 73.53087	700.46997	 42.00	
  1.699	 26.182	 73.66609	 33.50800	 30.32672	 34.97173	 28.04663	  1.80965	 73.49892	700.52002	 42.00	
  1.699	-26.182	 73.70361	 33.64425	 30.36393	 31.20802	 31.63096	  1.81815	 73.53979	700.47998	 42.10	
  1.692	-77.194	 73.67329	 30.82722	 33.11709	 28.97864	 34.03829	  1.77060	 73.53505	700.57001	 42.10	
  1.691	-128.401	 73.69130	 27.44463	 36.58687	 29.63014	 33.10022	  1.67240	 73.50881	700.47998	 42.20	
  1.700	180.000	 73.64288	 25.84651	 38.15954	 32.69617	 29.84984	  1.64976	 73.54117	700.54999	 42.20	
  3.400	180.000	 73.46103	 21.75588	 41.84738	 32.21669	 29.57242	  1.37693	 73.59622	700.53003	 42.30	
  3.388	-152.325	 73.51537	 22.73400	 40.92546	 28.60259	 33.45028	  1.43494	 73.53616	700.56000	 42.30	
  3.397	-124.529	 73.55586	 25.21251	 38.44463	 25.95453	 36.62182	  1.54365	 73.52821	700.53998	 42.30	
  3.399	-96.763	 73.65410	 28.79455	 34.77270	 24.76633	 38.18570	  1.61767	 73.56440	700.59998	 42.40	
  3.394	-69.283	 73.75011	 32.72591	 30.91322	 25.34990	 37.72976	  1.67534	 73.61275	700.59003	 42.40	
  3.400	-41.398	 73.74706	 36.05924	 27.78736	 27.71876	 35.26250	  1.71644	 73.62833	700.59003	 42.50	
  3.401	-14.021	 73.72393	 37.82623	 26.07351	 31.01502	 31.52420	  1.76437	 73.58345	700.56000	 42.50	
  3.401	 14.021	 73.67797	 37.70487	 26.08963	 35.14018	 27.55219	  1.68592	 73.63152	700.57001	 42.60	
  3.400	 41.398	 73.64076	 35.69463	 27.75209	 38.53791	 24.27901	  1.69482	 73.60920	700.51001	 42.60	
  3.394	 69.283	 73.56907	 32.23652	 30.75858	 40.70157	 22.13044	  1.58534	 73.67113	700.62000	 42.70	
  3.399	 96.763	 73.55878	 28.37683	 34.62873	 40.89931	 21.78218	  1.53497	 73.66818	700.56000	 42.70	
  3.397	124.529	 73.47688	 24.91299	 38.29584	 39.33712	 23.04498	  1.44414	 73.65852	700.59998	 42.80	
  3.388	152.325	 73.52009	 22.56485	 40.97611	 36.22743	 25.95850	  1.37143	 73.66976	700.53003	 42.80	
  5.099	161.165	 72.93979	 18.05427	 44.76809	 35.68485	 25.24529	  0.98240	 73.62893	700.53998	 42.80	
  5.109	142.013	 72.94425	 19.78138	 42.82376	 39.42877	 21.99709	  0.94098	 73.65053	700.57001	 42.90	
  5.095	123.033	 72.99996	 22.51073	 39.76347	 42.30940	 19.42890	  1.07134	 73.72534	700.58002	 42.90	
  5.105	104.191	 73.03468	 25.88007	 36.06339	 44.14089	 17.87933	  1.08821	 73.74860	700.56000	 43.00	
  5.093	 85.207	 73.08291	 29.68378	 32.05996	 44.66830	 17.59447	  1.20487	 73.67227	700.59003	 43.00	
  5.104	 66.290	 73.21460	 33.78942	 28.36182	 43.92259	 18.42977	  1.30487	 73.71396	700.60999	 43.00	
  5.094	 47.331	 73.32591	 37.47988	 25.23732	 41.81725	 20.47702	  1.39258	 73.63822	700.59003	 43.10	
  5.089	 28.397	 73.46623	 40.12923	 23.04255	 38.71227	 23.49630	  1.45419	 73.70643	700.57001	 43.10	
  5.096	  9.576	 73.53385	 41.64442	 21.91713	 34.91261	 27.09200	  1.44806	 73.79403	700.54999	 43.10	
  5.096	 -9.576	 73.52716	 41.69190	 21.89720	 30.69866	 31.14612	  1.42853	 73.68774	700.56000	 43.20	
  5.089	-28.397	 73.61138	 40.42529	 23.15086	 27.04957	 35.23792	  1.47953	 73.69460	700.62000	 43.20	
  5.094	-47.331	 73.55016	 37.97095	 25.33690	 23.86055	 38.66330	  1.39158	 73.70500	700.54999	 43.20	
  5.104	-66.290	 73.52495	 34.53098	 28.50858	 21.65065	 40.99529	  1.43511	 73.66528	700.60999	 43.30	
  5.093	-85.207	 73.51076	 30.55720	 32.18298	 20.68040	 42.02612	  1.35418	 73.66568	700.51001	 43.30	
  5.105	-104.191	 73.45127	 26.61976	 36.30171	 20.84750	 41.68058	  1.28446	 73.72215	700.50000	 43.40	
  5.095	-123.033	 73.34455	 23.00177	 39.98012	 22.22174	 39.89177	  1.21163	 73.63056	700.59998	 43.40	
  5.109	-142.013	 73.29345	 20.08139	 43.00802	 24.57305	 37.11166	  1.11684	 73.74074	700.59003	 43.50	
  5.099	-161.165	 73.21039	 18.25877	 44.92974	 27.90687	 33.11978	  1.03876	 73.70914	700.51001	 43.50	
  5.100	180.000	 73.14234	 17.53422	 45.55449	 31.61224	 29.18384	  0.98815	 73.76575	700.53003	 43.50	
  6.800	180.000	 72.39524	 13.30385	 48.82611	 30.91218	 28.46711	  0.46275	 73.73935	700.40002	 43.60	
  6.796	-166.229	 72.46977	 13.80559	 48.44576	 27.23768	 32.28352	  0.56160	 73.71705	700.50000	 43.60	
  6.808	-152.311	 72.52198	 15.09848	 47.16335	 23.81892	 36.30273	  0.64670	 73.69032	700.59998	 43.60	
  6.795	-138.383	 72.66727	 17.22599	 44.87395	 21.05629	 39.73090	  0.70214	 73.76534	700.66998	 43.60	
  6.792	-124.591	 72.78145	 20.00703	 41.96999	 18.73298	 42.51748	  0.67584	 73.73428	700.64001	 43.70	
  6.787	-110.754	 72.87830	 23.41927	 38.42459	 17.26504	 44.47852	  0.85877	 73.75119	700.71002	 43.70	
  6.800	-96.985	 72.96056	 27.03657	 34.57933	 16.47466	 45.55360	  0.91984	 73.79307	700.67999	 43.80	
  6.800	-83.015	 73.06973	 30.88969	 30.71051	 16.53020	 45.59918	  0.90394	 73.76012	700.53998	 43.80	
  6.787	-69.246	 73.13010	 34.89748	 27.10282	 17.53338	 44.61465	  0.98357	 73.75649	700.57001	 43.80	
  6.792	-55.409	 73.10614	 38.46516	 23.83668	 19.29451	 42.69346	  0.98163	 73.77700	700.70001	 43.80	
  6.795	-41.617	 73.15928	 41.46436	 21.25022	 21.80202	 39.94777	  1.01903	 73.80486	700.59998	 43.90	
  6.808	-27.689	 73.17004	 43.76231	 19.26014	 24.97555	 36.40472	  1.03378	 73.77496	700.67999	 43.90	
  6.796	-13.771	 73.13850	 45.10698	 18.00783	 28.51280	 32.35815	  1.02084	 73.76009	700.57001	 43.90	
  6.800	  0.000	 73.06970	 45.57813	 17.51418	 32.28302	 28.44523	  1.03290	 73.77253	700.72998	 43.90	
  6.796	 13.771	 73.00153	 44.97508	 17.90497	 36.36530	 24.64934	  1.02158	 73.79528	700.65997	 44.00	
  6.808	 27.689	 72.91525	 43.37305	 19.10826	 40.02665	 21.21677	  1.06408	 73.78914	700.58002	 44.00	
  6.795	 41.617	 72.81574	 40.85605	 21.10804	 43.20002	 18.19682	  0.98920	 73.79265	700.67999	 44.00	
  6.792	 55.409	 72.71922	 37.69153	 23.71641	 45.79436	 15.77221	  0.92173	 73.84876	700.65997	 44.00	
  6.787	 69.246	 72.55897	 33.91022	 26.88691	 47.38168	 14.19884	  0.86560	 73.77487	700.67999	 44.10	
  6.800	 83.015	 72.45206	 29.87898	 30.49129	 48.06866	 13.46185	  0.75517	 73.75259	700.64001	 44.10	
  6.800	 96.985	 72.44960	 25.96691	 34.37525	 47.97984	 13.46703	  0.62176	 73.82980	700.63000	 44.10	
  6.787	110.754	 72.31654	 22.39515	 38.16556	 46.89407	 14.26359	  0.59608	 73.73743	700.67999	 44.20	
  6.792	124.591	 72.31440	 19.31964	 41.65537	 44.88358	 15.94387	  0.49831	 73.80174	700.70001	 44.20	
  6.795	138.383	 72.33125	 16.77415	 44.66459	 42.13040	 18.29640	  0.39462	 73.81200	700.59998	 44.20	
  6.808	152.311	 72.37745	 14.82999	 47.04744	 38.73629	 21.30806	  0.41038	 73.83629	700.52002	 44.20	
  6.796	166.229	 72.39440	 13.64452	 48.40505	 34.93214	 24.65068	  0.43771	 73.83384	700.59003	 44.30	
  8.491	168.704	 71.36565	  9.30443	 51.74377	 33.88894	 23.68321	 -0.26245	 73.82924	700.69000	 44.30	
  8.502	157.493	 71.29366	 10.17373	 50.46889	 37.87834	 20.13651	 -0.40122	 73.81535	700.63000	 44.30	
  8.494	146.194	 71.25594	 11.74884	 48.53035	 41.52225	 16.93544	 -0.29472	 73.81435	700.78003	 44.30	
  8.495	135.039	 71.30155	 13.86265	 46.01144	 44.85522	 14.21062	 -0.14907	 73.86042	700.59003	 44.40	
  8.487	123.723	 71.31198	 16.40571	 42.84274	 47.47385	 12.22966	 -0.06121	 73.83007	700.66998	 44.40	
  8.492	112.575	 71.39414	 19.62037	 39.34234	 49.48766	 10.45256	  0.00991	 73.86804	700.65997	 44.40	
  8.510	101.220	 71.37726	 23.20547	 35.35712	 50.83682	  9.40138	  0.05865	 73.78780	700.71997	 44.40	
  8.500	 90.000	 71.45262	 26.99068	 31.53693	 51.41807	  9.06548	  0.12775	 73.78493	700.64001	 44.40	
  8.510	 78.780	 71.55978	 30.96964	 27.72839	 51.28683	  9.31584	  0.23917	 73.82514	700.62000	 44.40	
  8.492	 67.425	 71.68872	 35.07538	 24.21655	 50.22215	 10.27846	  0.12982	 73.84123	700.59003	 44.50	
  8.487	 56.277	 71.74997	 38.73660	 21.07463	 48.47181	 11.82792	  0.24215	 73.78658	700.65997	 44.50	
  8.495	 44.961	 71.92237	 42.19101	 18.29808	 46.13922	 14.06586	  0.17735	 73.84995	700.58002	 44.50	
  8.494	 33.806	 71.98062	 44.98001	 16.11618	 43.05005	 16.87284	  0.52707	 73.80303	700.64001	 44.50	
  8.502	 22.507	 72.13852	 47.17148	 14.49068	 39.59079	 20.21005	  0.53766	 73.85414	700.63000	 44.50	
  8.491	 11.296	 72.19373	 48.49565	 13.54648	 35.69806	 23.81840	  0.53073	 73.80928	700.59998	 44.50	
  8.500	  0.000	 72.28541	 49.07044	 13.18941	 31.65673	 27.61973	  0.49018	 73.82491	700.56000	 44.60	
  8.491	-11.296	 72.34012	 48.74523	 13.59224	 27.79032	 31.57387	  0.49893	 73.79343	700.63000	 44.60	
  8.502	-22.507	 72.41865	 47.65882	 14.62461	 24.22027	 35.62652	  0.47937	 73.84266	700.50000	 44.60	
  8.494	-33.806	 72.46041	 45.76854	 16.25105	 20.91499	 39.46042	  0.47312	 73.84825	700.54999	 44.60	
  8.495	-44.961	 72.46238	 43.17613	 18.51266	 18.03588	 42.71258	  0.23616	 73.82891	700.59998	 44.60	
  8.487	-56.277	 72.47410	 39.96141	 21.37435	 15.67695	 45.40564	  0.49911	 73.84738	700.54999	 44.60	
  8.492	-67.425	 72.46015	 36.38169	 24.54189	 13.99574	 47.35974	  0.51994	 73.85857	700.51001	 44.70	
  8.510	-78.780	 72.39898	 32.32444	 28.09519	 12.83689	 48.52302	  0.45650	 73.88568	700.59998	 44.70	
  8.500	-90.000	 72.34035	 28.34535	 31.88748	 12.50074	 48.82677	  0.38226	 73.87447	700.57001	 44.70	
  8.510	-101.220	 72.17373	 24.41915	 35.73669	 12.64114	 48.42568	  0.37193	 73.83176	700.48999	 44.70	
  8.492	-112.575	 72.10209	 20.73294	 39.69735	 13.55900	 47.28666	  0.33120	 73.84721	700.58002	 44.70	
  8.487	-123.723	 72.03172	 17.45403	 43.22592	 15.06618	 45.26409	  0.04496	 73.86060	700.65002	 44.70	
  8.495	-135.039	 71.89240	 14.59174	 46.33604	 17.10726	 42.56229	  0.19216	 73.86530	700.63000	 44.70	
  8.494	-146.194	 71.76627	 12.28763	 48.72581	 19.77936	 39.25342	  0.13491	 73.82336	700.53998	 44.80	
  8.502	-157.493	 71.66408	 10.51638	 50.63230	 22.90768	 35.38538	 -0.04415	 73.83859	700.48999	 44.80	
  8.491	-168.704	 71.51723	  9.49919	 51.81297	 26.33130	 31.37084	 -0.08052	 73.82061	700.58002	 44.80	
  8.500	180.000	 71.46120	  8.97807	 52.28048	 30.13903	 27.43900	 -0.13708	 73.86304	700.47998	 44.80	
 10.200	180.000	 70.14081	  4.58557	 55.42538	 28.86280	 26.40170	 -0.89493	 73.87753	700.62000	 44.80	
 10.191	-170.497	 70.30380	  5.10674	 55.04562	 25.15610	 30.33126	 -1.05141	 73.85487	700.63000	 44.80	
 10.210	-161.034	 70.44533	  5.99025	 54.10071	 21.61706	 34.30290	 -1.08520	 73.91718	700.72998	 44.80	
 10.194	-151.526	 70.52165	  7.41574	 52.29974	 18.34795	 38.39990	 -0.90734	 73.85468	700.66998	 44.90	
 10.190	-142.105	 70.65843	  9.38573	 50.02559	 15.52956	 42.02740	 -0.62964	 73.88485	700.56000	 44.90	
 10.215	-132.646	 70.76406	 11.77225	 47.43007	 13.03709	 45.20564	 -0.61271	 73.89020	700.71002	 44.90	
 10.203	-123.092	 70.88902	 14.66192	 44.21573	 11.03483	 47.87248	 -0.70792	 73.87300	700.72998	 44.90	
 10.192	-113.678	 70.99954	 18.00741	 40.64696	  9.72386	 49.77128	 -0.64413	 73.87196	700.67999	 44.90	
 10.208	-104.249	 71.07237	 21.59845	 36.73127	  8.64334	 51.28765	 -0.30502	 73.83112	700.63000	 44.90	
 10.210	-94.801	 71.20501	 25.54011	 32.77897	  8.28478	 52.12830	 -0.23280	 73.85298	700.65997	 45.00	
 10.210	-85.199	 71.33325	 29.49079	 28.92199	  8.46437	 52.21358	 -0.21633	 73.90192	700.76001	 45.00	
 10.208	-75.751	 71.39216	 33.52699	 25.16107	  9.06783	 51.46576	 -0.15341	 73.88612	700.72998	 45.00	
 10.192	-66.322	 71.41564	 37.50620	 21.74310	 10.07092	 49.95962	 -0.10906	 73.85164	700.79999	 45.00	
 10.203	-56.908	 71.49657	 41.16987	 18.59917	 11.80323	 48.04713	 -0.10499	 73.89040	700.70001	 45.00	
 10.215	-47.354	 71.46552	 44.49598	 15.69314	 14.04100	 45.41232	 -0.36164	 73.85437	700.69000	 45.10	
 10.190	-37.895	 71.53540	 47.34062	 13.37243	 16.82366	 42.26998	 -0.34389	 73.91071	700.73999	 45.10	
 10.194	-28.474	 71.50652	 49.56533	 11.50187	 19.96895	 38.63927	 -0.20015	 73.90174	700.78003	 45.10	
 10.210	-18.966	 71.44727	 51.28501	 10.19840	 23.43336	 34.47050	 -0.33455	 73.91847	700.71002	 45.10	
 10.191	 -9.503	 71.37548	 52.17568	  9.35476	 27.09152	 30.59384	 -0.17671	 73.89952	700.79999	 45.10	
 10.200	  0.000	 71.24004	 52.44833	  8.91123	 30.97369	 26.60366	 -0.16607	 73.86818	700.79999	 45.10	
 10.191	  9.503	 71.14804	 51.91679	  9.16521	 34.90234	 22.68986	 -0.17354	 73.84673	700.77002	 45.10	
 10.210	 18.966	 71.02665	 50.71397	  9.93232	 38.92117	 18.92397	 -0.19868	 73.88506	700.75000	 45.20	
 10.194	 28.474	 70.99714	 48.80929	 11.33960	 42.66678	 15.50345	 -0.29365	 73.94263	700.78998	 45.20	
 10.190	 37.895	 70.77452	 46.27871	 13.03542	 45.94704	 12.53681	 -0.18772	 73.91568	700.78003	 45.20	
 10.215	 47.354	 70.67376	 43.23783	 15.39015	 48.74385	  9.81100	 -0.68084	 73.88635	700.85999	 45.20	
 10.203	 56.908	 70.53500	 39.74417	 18.17316	 51.19418	  7.78170	 -0.70446	 73.87138	700.81000	 45.20	
 10.192	 66.322	 70.41142	 35.96780	 21.29370	 53.03556	  6.30411	 -0.70293	 73.89582	700.70001	 45.20	
 10.208	 75.751	 70.34129	 32.03000	 24.68999	 54.27437	  5.25597	 -0.87199	 73.87608	700.67999	 45.30	
 10.210	 85.199	 70.25529	 27.97184	 28.44585	 54.79349	  4.65047	 -0.53210	 73.88300	700.79999	 45.30	
 10.210	 94.801	 70.15327	 23.88806	 32.33802	 54.55199	  4.64088	 -0.81186	 73.84100	700.73999	 45.30	
 10.208	104.249	 70.05653	 20.09588	 36.21824	 53.79475	  5.13105	 -1.16516	 73.94550	700.72998	 45.30	
 10.192	113.678	 70.06225	 16.56331	 40.19718	 52.22246	  6.23978	 -1.17079	 73.83821	700.76001	 45.30	
 10.203	123.092	 70.02757	 13.59681	 43.81570	 50.03586	  7.78497	 -1.14234	 73.89816	700.78003	 45.30	
 10.215	132.646	 69.92976	 10.83917	 47.05777	 47.47856	  9.74416	 -1.17874	 73.86586	700.82001	 45.30	
 10.190	142.105	 69.94834	  8.58380	 49.77563	 44.36703	 12.42669	 -1.39467	 73.90793	700.79999	 45.30	
 10.194	151.526	 69.98648	  6.74965	 52.14479	 40.85353	 15.30245	 -1.41270	 73.90905	700.71002	 45.30	
 10.210	161.034	 70.03454	  5.51961	 53.93690	 37.02833	 18.67470	 -1.33902	 73.95215	700.76001	 45.40	
 10.191	170.497	 70.10555	  4.82065	 54.99751	 33.03750	 22.35687	 -1.27393	 73.90885	700.69000	 45.40	
 11.899	171.783	 68.57297	  0.50767	 57.88885	 31.64179	 21.17132	 -1.99333	 73.89230	700.70001	 45.40	
 11.890	163.610	 68.55562	  1.21213	 56.91418	 35.50822	 17.49791	 -2.05996	 73.93422	700.71002	 45.40	
 11.889	155.445	 68.46519	  2.11413	 55.41819	 39.45146	 14.37207	 -2.15858	 73.88342	700.77002	 45.40	
 11.909	147.299	 68.36314	  3.41286	 53.39964	 43.17767	 10.82350	 -2.24574	 73.89727	700.87000	 45.40	
 11.902	139.148	 68.43208	  5.16123	 50.74362	 46.62950	  8.10311	 -2.18806	 73.82391	700.77002	 45.40	
 11.894	130.867	 68.48357	  7.66959	 47.85126	 49.60442	  5.71581	 -1.98977	 73.86987	700.75000	 45.40	
 11.897	122.732	 68.49661	 10.59399	 44.53381	 52.31552	  3.77561	 -1.89800	 73.92323	700.71997	 45.50	
 11.903	114.597	 68.52728	 13.65330	 40.92159	 54.59957	  2.23270	 -1.84615	 73.93047	700.78998	 45.50	
 11.893	106.346	 68.54747	 16.96034	 36.85347	 56.22721	  1.15775	 -1.89133	 73.82553	700.65997	 45.50	
 11.892	 98.155	 68.64383	 20.70886	 33.04874	 57.30399	  0.48323	 -1.91202	 73.92024	700.65002	 45.50	
 11.900	 90.000	 68.68255	 24.65379	 29.05388	 57.73976	  0.32561	 -1.84524	 73.90808	700.78998	 45.50	
 11.892	 81.845	 68.77464	 28.74838	 25.23570	 57.59065	  0.54717	 -1.68689	 73.88800	700.67999	 45.50	
 11.893	 73.654	 68.94112	 32.66293	 21.68347	 56.92007	  1.27223	 -1.60344	 73.87334	700.75000	 45.50	
 11.903	 65.403	 68.97316	 36.72480	 18.20860	 55.62027	  2.31419	 -1.47256	 73.90844	700.73999	 45.60	
 11.897	 57.268	 69.13927	 40.61010	 15.20858	 53.71746	  3.76712	 -1.48768	 73.91280	700.76001	 45.60	
 11.894	 49.133	 69.28575	 44.12780	 12.54644	 51.23336	  5.70096	 -1.48241	 73.93107	700.79999	 45.60	
 11.902	 40.852	 69.35455	 47.27045	 10.01641	 48.39573	  8.16808	 -1.37027	 73.94858	700.71002	 45.60	
 11.909	 32.701	 69.44466	 49.88614	  8.06034	 45.30495	 11.06330	 -1.14953	 73.91090	700.78003	 45.60	
 11.889	 24.555	 69.68494	 52.21718	  6.61998	 41.78011	 14.41585	 -0.93922	 73.92688	700.77002	 45.60	
 11.890	 16.390	 69.83776	 53.94657	  5.57230	 37.95415	 17.71025	 -1.14775	 74.00511	700.71997	 45.60	
 11.899	  8.217	 69.80460	 54.99940	  4.85701	 33.83112	 21.49465	 -0.98026	 73.86437	700.69000	 45.60	
 11.900	  0.000	 69.96440	 55.55936	  4.58116	 30.00862	 25.49366	 -1.05918	 73.85384	700.72998	 45.60	
 11.899	 -8.217	 70.03342	 55.29795	  4.91723	 26.13505	 29.45210	 -1.01668	 73.85957	700.75000	 45.60	
 11.890	-16.390	 70.13888	 54.43536	  5.79409	 22.47132	 33.39546	 -1.06544	 73.90151	700.73999	 45.70	
 11.889	-24.555	 70.19984	 53.08421	  6.94565	 18.87198	 37.54802	 -1.03652	 73.90729	700.84003	 45.70	
 11.909	-32.701	 70.19247	 51.09747	  8.42052	 15.55583	 41.38478	 -1.15490	 73.90094	700.72998	 45.70	
 11.902	-40.852	 70.24835	 48.57014	 10.45719	 12.63302	 44.83894	 -1.23052	 73.90962	700.76001	 45.70	
 11.894	-49.133	 70.27190	 45.57724	 12.88817	 10.24404	 47.95155	 -0.99505	 73.95726	700.76001	 45.70	
 11.897	-57.268	 70.23769	 42.20544	 15.59467	  8.00067	 50.43102	 -0.89648	 73.93446	700.71002	 45.70	
 11.903	-65.403	 70.16156	 38.47080	 18.80927	  6.23454	 52.55597	 -0.91104	 73.93311	700.72998	 45.70	
 11.893	-73.654	 70.12779	 34.43951	 22.27755	  5.01871	 54.14159	 -0.97967	 73.87305	700.72998	 45.80	
 11.892	-81.845	 70.02158	 30.47880	 25.94710	  4.20958	 55.09393	 -0.99033	 73.91119	700.75000	 45.80	
 11.900	-90.000	 69.96770	 26.45122	 29.73723	  3.77028	 55.40203	 -1.00113	 73.91319	700.78003	 45.80	
 11.892	-98.155	 69.87786	 22.51853	 33.59756	  3.91454	 55.08566	 -1.37777	 73.94442	700.71997	 45.80	
 11.893	-106.346	 69.77116	 18.63788	 37.51473	  4.55650	 53.98032	 -1.34435	 73.93372	700.65002	 45.80	
 11.903	-114.597	 69.62038	 15.00734	 41.48938	  5.47881	 52.36939	 -1.42049	 73.88985	700.71002	 45.80	
 11.897	-122.732	 69.51209	 11.83309	 44.99317	  6.88326	 50.10196	 -1.51928	 73.86448	700.69000	 45.80	
 11.894	-130.867	 69.40874	  8.86709	 48.25682	  8.98631	 47.66359	 -1.56226	 73.92443	700.65002	 45.80	
 11.902	-139.148	 69.27974	  6.26085	 51.14753	 11.44003	 44.59172	 -1.53822	 73.92577	700.72998	 45.80	
 11.909	-147.299	 69.09430	  4.20267	 53.64354	 13.85773	 41.08849	 -1.57826	 73.88673	700.73999	 45.90	
 11.889	-155.445	 69.00396	  2.72033	 55.66853	 16.85917	 37.19397	 -1.74573	 73.91624	700.84998	 45.90	
 11.890	-163.610	 68.93568	  1.52605	 57.09452	 20.23191	 33.11447	 -1.89047	 73.88705	700.83002	 45.90	
 11.899	-171.783	 68.73816	  0.67972	 57.98645	 23.77166	 29.16235	 -1.97159	 73.90694	700.75000	 45.90	
 11.900	180.000	 68.69495	  0.35233	 58.26808	 27.59941	 25.19032	 -1.95511	 73.90410	700.78998	 45.90	
 13.600	180.000	 66.83006	 -4.01126	 60.92052	 26.08322	 23.78261	 -2.64423	 73.90369	700.71997	 45.90	
 13.608	-172.853	 66.92311	 -3.80621	 60.66360	 22.29105	 27.68086	 -2.64148	 73.83906	700.77002	 45.90	
 13.611	-165.583	 67.04600	 -3.18232	 59.91792	 18.58351	 31.75572	 -2.53425	 73.92712	700.83002	 45.90	
 13.601	-158.353	 67.16294	 -2.01516	 58.56910	 15.29059	 35.64894	 -2.41114	 73.89738	700.89001	 45.90	
 13.609	-151.210	 67.34570	 -0.62487	 56.87531	 12.45374	 39.80011	 -2.24953	 73.87599	700.77002	 45.90	
 13.611	-143.999	 67.46978	  1.13202	 54.57307	  9.43376	 43.53463	 -2.15048	 73.88827	700.67999	 45.90	
 13.601	-136.825	 67.61488	  3.26067	 51.84354	  6.80675	 46.92409	 -2.19623	 73.87506	700.75000	 45.90	
 13.596	-129.640	 67.78352	  5.80997	 48.90334	  4.64116	 49.80649	 -2.19668	 73.88418	700.82001	 45.90	
 13.611	-122.431	 67.88940	  8.78244	 45.59661	  2.78118	 52.50081	 -2.17017	 73.88860	700.70001	 45.90	
 13.604	-115.211	 67.98839	 12.05258	 41.96492	  1.31852	 54.72281	 -2.08519	 73.86760	700.75000	 45.90	
 13.595	-108.042	 68.14706	 15.55064	 38.00441	  0.35834	 56.44550	 -2.05015	 73.95271	700.76001	 45.90	
 13.607	-100.793	 68.23225	 19.24938	 34.07599	 -0.32645	 57.61933	 -2.05610	 73.94906	700.76001	 45.90	
 13.601	-93.617	 68.33350	 23.17841	 30.25361	 -0.54845	 58.18446	 -2.11560	 73.87513	700.83002	 45.90	
 13.601	-86.383	 68.47925	 27.23344	 26.41973	 -0.35106	 58.26438	 -2.08073	 73.93475	700.84003	 45.90	
 13.607	-79.207	 68.56517	 31.27707	 22.69021	  0.13942	 57.71546	 -2.03059	 73.97855	700.77002	 46.00	
 13.595	-71.958	 68.62454	 35.26126	 19.05114	  0.99299	 56.64976	 -1.95749	 73.92141	700.78003	 46.00	
 13.604	-64.789	 68.62838	 39.26322	 15.69754	  2.16511	 54.99625	 -1.87867	 73.91322	700.79999	 46.00	
 13.611	-57.569	 68.67587	 42.99503	 12.72473	  3.70569	 52.78474	 -1.96562	 73.93844	700.89001	 46.00	
 13.596	-50.360	 68.78897	 46.41405	  9.85205	  5.79434	 50.05960	 -1.95813	 73.90121	700.81000	 46.00	
 13.601	-43.175	 68.76542	 49.46254	  7.31779	  8.43905	 47.25912	 -1.95543	 73.89831	700.87000	 46.00	
 13.611	-36.001	 68.71130	 52.23110	  5.21253	 11.36299	 43.90138	 -1.80773	 73.90176	700.87000	 46.00	
 13.609	-28.790	 68.74172	 54.57669	  3.54639	 14.17833	 40.18312	 -1.76082	 73.87586	700.85999	 46.00	
 13.601	-21.647	 68.72308	 56.38181	  2.25166	 17.55924	 36.03774	 -1.69564	 73.97710	700.83002	 46.00	
 13.611	-14.417	 68.62369	 57.61724	  1.13970	 21.13379	 32.07201	 -1.77494	 73.97121	700.82001	 46.00	
 13.608	 -7.147	 68.47732	 58.29193	  0.48912	 24.88684	 28.06629	 -1.79814	 73.89331	700.78998	 46.00	
 13.600	  0.000	 68.36288	 58.43159	  0.25985	 28.71952	 24.08768	 -1.81667	 73.90193	700.76001	 46.00	
 13.608	  7.147	 68.28414	 58.01652	  0.39025	 32.62612	 20.06478	 -1.82476	 73.91592	700.71002	 46.00	
 13.611	 14.417	 68.14455	 57.01973	  0.97644	 36.52832	 16.26841	 -1.76606	 73.89451	700.84998	 46.00	
 13.601	 21.647	 67.96342	 55.47610	  1.77696	 40.50730	 13.06347	 -1.71707	 73.88521	700.90002	 46.00	
 13.609	 28.790	 67.86135	 53.50414	  3.00763	 44.15473	  9.65412	 -1.77870	 73.94184	700.91998	 46.00	
 13.611	 36.001	 67.72654	 50.88796	  4.76646	 47.58410	  6.44273	 -1.93815	 73.93130	700.81000	 46.00	
 13.601	 43.175	 67.61852	 48.04881	  6.81059	 50.58992	  3.82717	 -2.06737	 73.90516	700.82001	 46.00	
 13.596	 50.360	 67.46385	 44.80080	  9.21516	 53.43470	  1.58356	 -2.20248	 73.90097	700.85999	 46.00	
 13.611	 57.569	 67.30010	 41.26570	 12.00625	 55.85936	 -0.28666	 -2.23296	 73.91065	700.84003	 46.00	
 13.604	 64.789	 67.19355	 37.35973	 15.13059	 57.79966	 -1.75126	 -2.23250	 73.91911	700.73999	 46.10	
 13.595	 71.958	 67.13383	 33.29166	 18.39488	 59.24455	 -2.82457	 -2.29015	 73.94245	700.65997	 46.10	
 13.607	 79.207	 67.01281	 29.28294	 21.96568	 60.09464	 -3.53745	 -2.41640	 73.93873	700.67999	 46.10	
 13.601	 86.383	 66.89738	 25.23791	 25.70429	 60.38922	 -3.86144	 -2.51402	 73.91400	700.75000	 46.10	
 13.601	 93.617	 66.76591	 21.19748	 29.46772	 60.24232	 -3.98846	 -2.59103	 73.88406	700.78998	 46.10	
 13.607	100.793	 66.64876	 17.37956	 33.34911	 59.59637	 -3.52825	 -2.54727	 73.87619	700.73999	 46.10	
 13.595	108.042	 66.62154	 13.86702	 37.26683	 58.35095	 -2.77195	 -2.47444	 73.89044	700.70001	 46.10	
 13.604	115.211	 66.57419	 10.57295	 41.21475	 56.64645	 -1.72237	 -2.47356	 73.87016	700.71997	 46.10	
 13.611	122.431	 66.54316	  7.22850	 44.92908	 54.42164	 -0.24474	 -2.53099	 73.84608	700.81000	 46.10	
 13.596	129.640	 66.55920	  4.47113	 48.39619	 51.64878	  1.69626	 -2.70792	 73.87225	700.77002	 46.10	
 13.601	136.825	 66.49150	  2.11254	 51.35793	 48.66566	  3.93199	 -2.84316	 73.83065	700.78003	 46.10	
 13.611	143.999	 66.48771	  0.15487	 54.16977	 45.36506	  6.50362	 -2.92635	 73.84071	700.78003	 46.10	
 13.609	151.210	 66.51027	 -1.30713	 56.53750	 41.75304	  9.40968	 -2.87259	 73.83660	700.82001	 46.10	
 13.601	158.353	 66.57447	 -2.40072	 58.36021	 37.88626	 12.67528	 -2.79408	 73.85366	700.82001	 46.10	
 13.611	165.583	 66.63621	 -3.32542	 59.70113	 33.87469	 16.24406	 -2.69849	 73.80737	700.90997	 46.20	
 13.608	172.853	 66.65694	 -3.88168	 60.51160	 29.97773	 19.71664	 -2.63760	 73.80900	700.83002	 46.20	
 15.298	173.587	 64.57668	 -8.29569	 62.96900	 28.19341	 18.24765	 -3.09943	 73.81322	700.87000	 46.20	
 15.291	167.167	 64.54742	 -7.98262	 62.26510	 32.07621	 14.89342	 -3.16214	 73.85758	700.71997	 46.20	
 15.307	160.676	 64.42587	 -7.10962	 60.99873	 35.93814	 11.11000	 -3.25019	 73.81069	700.82001	 46.20	
 15.300	154.261	 64.36053	 -6.01749	 59.32000	 39.98327	  7.87650	 -3.36918	 73.78403	700.89001	 46.20	
 15.288	147.854	 64.41668	 -4.62618	 57.21647	 43.79922	  4.99532	 -3.43590	 73.77986	700.78003	 46.20	
 15.293	141.428	 64.37439	 -3.05174	 54.65294	 47.35154	  2.33480	 -3.42570	 73.81964	700.87000	 46.20	
 15.299	134.985	 64.39532	 -1.05841	 51.76216	 50.49958	 -0.05870	 -3.36560	 73.82619	700.87000	 46.20	
 15.305	128.583	 64.36344	  1.27460	 48.68995	 53.50928	 -2.13585	 -3.18306	 73.82275	700.84998	 46.20	
 15.309	122.142	 64.39758	  4.08057	 45.18868	 56.22589	 -3.90742	 -2.99047	 73.79388	700.78998	 46.20	
 15.304	115.711	 64.42783	  7.14388	 41.45329	 58.42737	 -5.35603	 -2.91193	 73.79076	700.73999	 46.20	
 15.297	109.291	 64.43870	 10.55878	 37.46294	 60.15710	 -6.48836	 -2.88835	 73.81319	700.83002	 46.20	
 15.293	102.897	 64.50670	 14.07498	 33.62244	 61.48444	 -7.29168	 -2.90987	 73.78474	700.85999	 46.20	
 15.293	 96.458	 64.59073	 17.73990	 29.67877	 62.41372	 -7.79001	 -3.00732	 73.84068	700.87000	 46.20	
 15.300	 90.000	 64.66216	 21.58443	 25.90593	 62.81133	 -7.76074	 -3.06676	 73.84511	700.78998	 46.20	
 15.293	 83.542	 64.77220	 25.51709	 22.24823	 62.75205	 -7.60848	 -3.05020	 73.85020	700.91998	 46.30	
 15.293	 77.103	 64.78182	 29.57165	 18.53359	 62.14561	 -7.25648	 -2.95155	 73.77950	700.81000	 46.30	
 15.297	 70.709	 64.97161	 33.53784	 15.34235	 61.14782	 -6.49065	 -2.89193	 73.83483	700.78998	 46.30	
 15.304	 64.289	 65.07016	 37.55185	 12.04369	 59.73822	 -5.52717	 -2.81617	 73.82342	700.75000	 46.30	
 15.309	 57.858	 65.17907	 41.48411	  8.92798	 57.82672	 -4.08530	 -2.84234	 73.81686	700.79999	 46.30	
 15.305	 51.417	 65.34008	 45.14285	  6.14756	 55.49811	 -2.26510	 -2.79882	 73.83868	700.81000	 46.30	
 15.299	 45.015	 65.48328	 48.40298	  3.78685	 52.72359	 -0.16579	 -2.72401	 73.86881	700.72998	 46.30	
 15.293	 38.572	 65.58629	 51.49610	  1.59673	 49.61615	  2.28345	 -2.55697	 73.85098	700.69000	 46.30	
 15.288	 32.146	 65.75668	 54.24611	 -0.14360	 46.37453	  5.07445	 -2.39008	 73.86343	700.82001	 46.30	
 15.300	 25.739	 65.93080	 56.55240	 -1.58280	 42.87829	  8.15311	 -2.26958	 73.89468	700.81000	 46.30	
 15.307	 19.324	 66.07048	 58.39289	 -2.73255	 38.99836	 11.51872	 -2.25719	 73.91131	700.75000	 46.30	
 15.291	 12.833	 66.16404	 59.69015	 -3.48277	 34.92534	 15.15853	 -2.30203	 73.84561	700.84998	 46.30	
 15.298	  6.413	 66.30708	 60.60521	 -3.89830	 31.12367	 18.47370	 -2.29062	 73.86316	700.72998	 46.30	
 15.300	  0.000	 66.43820	 60.98191	 -3.96165	 27.29424	 22.46794	 -2.29514	 73.85361	700.78003	 46.30	
 15.298	 -6.413	 66.55927	 60.92913	 -3.73852	 23.50560	 26.46520	 -2.27711	 73.89496	700.78003	 46.30	
 15.291	-12.833	 66.67106	 60.29171	 -3.21610	 19.81673	 30.40197	 -2.19163	 73.86937	700.75000	 46.40	
 15.307	-19.324	 66.73504	 59.21034	 -2.33601	 16.14509	 34.38319	 -2.14368	 73.84634	700.76001	 46.40	
 15.300	-25.739	 66.81613	 57.64850	 -1.23135	 13.05693	 38.43024	 -2.14161	 73.89162	700.71002	 46.40	
 15.288	-32.146	 66.84944	 55.60888	  0.26778	  9.93141	 42.36279	 -2.18749	 73.86637	700.71997	 46.40	
 15.293	-38.572	 66.87179	 53.16529	  2.08160	  6.87453	 45.95829	 -2.32178	 73.88525	700.71002	 46.40	
 15.299	-45.015	 66.96391	 50.25660	  4.28291	  4.24335	 49.17484	 -2.39324	 73.89253	700.71997	 46.40	
 15.305	-51.417	 66.95105	 47.12612	  6.66016	  1.99012	 51.94484	 -2.42975	 73.88509	700.70001	 46.40	
 15.309	-57.858	 66.94609	 43.69535	  9.49724	  0.11219	 54.73608	 -2.45505	 73.95882	700.72998	 46.40	
 15.304	-64.289	 66.86787	 39.89226	 12.70385	 -1.31420	 56.88409	 -2.49065	 73.90779	700.79999	 46.40	
 15.297	-70.709	 66.88066	 35.93773	 16.03003	 -2.28499	 58.48340	 -2.51749	 73.89964	700.78003	 46.40	
 15.293	-77.103	 66.84259	 31.96835	 19.38581	 -3.06776	 59.67466	 -2.66443	 73.90897	700.78003	 46.40	
 15.293	-83.542	 66.77377	 27.94429	 23.14167	 -3.64231	 60.34983	 -2.79436	 73.89082	700.82001	 46.40	
 15.300	-90.000	 66.68749	 23.90249	 26.96649	 -3.92544	 60.58595	 -2.83915	 73.90874	700.77002	 46.40	
 15.293	-96.458	 66.58192	 19.98065	 30.72946	 -4.00064	 60.30877	 -2.70220	 73.88996	700.75000	 46.40	
 15.293	-102.897	 66.44765	 16.16047	 34.55763	 -3.73596	 59.56491	 -2.55083	 73.89647	700.78003	 46.40	
 15.297	-109.291	 66.33952	 12.63094	 38.37959	 -3.04716	 58.31257	 -2.47658	 73.90801	700.79999	 46.40	
 15.304	-115.711	 66.24352	  9.18300	 42.34298	 -2.06416	 56.60882	 -2.51567	 73.93709	700.75000	 46.40	
 15.309	-122.142	 66.06632	  5.87568	 45.97471	 -0.64679	 54.29353	 -2.64367	 73.86198	700.75000	 46.40	
 15.305	-128.583	 65.98093	  2.95026	 49.41525	  1.01929	 51.54268	 -2.72608	 73.93519	700.81000	 46.40	
 15.299	-134.985	 65.79339	  0.45017	 52.33180	  3.03859	 48.71506	 -2.69367	 73.87493	700.89001	 46.40	
 15.293	-141.428	 65.66900	 -1.70083	 55.19898	  5.38073	 45.41404	 -2.62391	 73.87168	700.82001	 46.40	
 15.288	-147.854	 65.53007	 -3.58971	 57.65062	  8.06004	 41.80136	 -2.63499	 73.85667	700.78998	 46.40	
 15.300	-154.261	 65.39648	 -5.27406	 59.76728	 11.13042	 37.73237	 -2.73426	 73.93491	700.78998	 46.40	
 15.307	-160.676	 65.19385	 -6.72065	 61.30251	 14.37564	 33.74742	 -2.85850	 73.90861	700.78998	 46.40	
 15.291	-167.167	 65.06883	 -7.55972	 62.42540	 17.55130	 29.69494	 -2.95521	 73.89147	700.78003	 46.40	
 15.298	-173.587	 64.95104	 -8.08342	 63.13113	 21.15384	 25.72435	 -3.05811	 73.93649	700.79999	 46.40	
 15.300	180.000	 64.82293	 -8.21905	 63.28814	 24.89037	 21.79312	 -3.06702	 73.91810	700.82001	 46.40	
 17.000	180.000	 62.56617	-12.54116	 65.50259	 23.05227	 19.94176	 -3.29558	 73.92058	700.88000	 46.40	
 16.990	-174.179	 62.69352	-12.53118	 65.36131	 19.36566	 23.83695	 -3.21950	 73.94200	700.92999	 46.50	
 17.009	-168.383	 62.79172	-12.10590	 64.78972	 16.01592	 27.87322	 -3.15025	 73.91378	700.82001	 46.50	
 17.000	-162.596	 62.88414	-11.25867	 63.73898	 12.50997	 31.93242	 -3.05979	 73.88924	700.79999	 46.50	
 16.990	-156.759	 63.10264	 -9.97761	 62.28789	  9.32437	 35.93164	 -2.98617	 73.93285	700.83002	 46.50	
 16.995	-150.919	 63.23389	 -8.57801	 60.41440	  6.30338	 40.01417	 -2.90301	 73.92216	700.78998	 46.50	
 16.988	-145.161	 63.43800	 -6.80940	 58.24286	  3.65132	 43.91376	 -2.90027	 73.94397	700.84003	 46.50	
 17.014	-139.343	 63.56461	 -4.87333	 55.62999	  1.17749	 47.49666	 -2.94024	 73.95798	700.84003	 46.50	
 17.007	-133.546	 63.67551	 -2.57821	 52.57103	 -0.95454	 50.57905	 -2.98786	 73.91044	700.83002	 46.50	
 17.001	-127.699	 63.86692	  0.04382	 49.54998	 -2.74668	 53.54575	 -2.96589	 73.94969	700.90002	 46.50	
 17.006	-121.937	 63.98680	  2.84359	 46.14344	 -4.39261	 56.22969	 -2.87838	 73.93362	700.96002	 46.50	
 17.002	-116.134	 64.09470	  5.97304	 42.40409	 -5.86505	 58.49682	 -2.81555	 73.91611	700.90997	 46.50	
 17.001	-110.310	 64.18339	  9.37407	 38.43609	 -6.96443	 60.25105	 -2.78771	 73.89832	700.85999	 46.50	
 16.988	-104.517	 64.36565	 12.96459	 34.69460	 -7.70337	 61.57534	 -2.86080	 73.93242	700.73999	 46.50	
 17.008	-98.662	 64.42643	 16.64635	 30.74481	 -8.19878	 62.59042	 -3.04021	 73.92780	700.81000	 46.50	
 16.996	-92.909	 64.53034	 20.31892	 27.13671	 -8.12787	 63.01225	 -3.28983	 73.92314	700.84003	 46.50	
 16.996	-87.091	 64.64395	 24.15085	 23.43373	 -8.08454	 63.09508	 -3.40630	 73.93527	700.87000	 46.50	
 17.012	-81.253	 64.71709	 28.22748	 19.61959	 -7.79881	 62.67007	 -3.33511	 73.92034	700.76001	 46.50	
 16.988	-75.483	 64.81527	 32.29535	 16.28499	 -7.00013	 61.70042	 -3.18477	 73.93702	700.81000	 46.50	
 17.001	-69.690	 64.83215	 36.26304	 12.79291	 -6.06416	 60.41471	 -3.01972	 73.94398	700.78003	 46.50	
 17.002	-63.866	 64.87826	 40.32868	  9.39727	 -4.80600	 58.62106	 -2.90537	 73.91362	700.82001	 46.50	
 17.006	-58.063	 65.06654	 44.21972	  6.42898	 -3.02405	 56.27545	 -2.83938	 73.95930	700.72998	 46.60	
 17.001	-52.301	 65.11090	 47.68725	  3.76732	 -1.27664	 53.65329	 -2.75838	 73.98299	700.78998	 46.50	
 17.007	-46.454	 65.04391	 50.94700	  1.27037	  0.80455	 50.60968	 -2.66580	 73.91268	700.73999	 46.50	
 17.014	-40.657	 65.01273	 53.98986	 -0.84580	  3.27203	 47.49680	 -2.57203	 73.91489	700.78003	 46.50	
 16.988	-34.839	 64.98579	 56.55687	 -2.66832	  6.02818	 43.91491	 -2.45813	 73.88470	700.78003	 46.50	
 16.995	-29.081	 64.98039	 58.78704	 -4.32547	  9.02806	 40.05214	 -2.35599	 73.93576	700.85999	 46.50	
 16.990	-23.241	 64.85801	 60.59857	 -5.69307	 12.30748	 35.90097	 -2.37388	 73.89391	700.82001	 46.50	
 17.000	-17.404	 64.76713	 62.07702	 -6.73228	 15.53909	 31.97834	 -2.41090	 73.94444	700.83002	 46.50	
 17.009	-11.617	 64.59662	 63.00114	 -7.56400	 18.94475	 27.96404	 -2.47515	 73.93919	700.89001	 46.50	
 16.990	 -5.821	 64.44971	 63.47664	 -7.90115	 22.64142	 23.94677	 -2.56969	 73.93388	700.90997	 46.50	
 17.000	  0.000	 64.26130	 63.50004	 -8.13390	 26.30866	 19.99060	 -2.52763	 73.90765	700.94000	 46.50	
 16.990	  5.821	 64.14216	 63.11717	 -8.23960	 30.08522	 16.58041	 -2.52586	 73.95020	700.87000	 46.50	
 17.009	 11.617	 63.96017	 62.26688	 -7.87696	 33.92163	 12.83063	 -2.58844	 73.92231	700.78003	 46.50	
 17.000	 17.404	 63.79483	 60.94126	 -7.20284	 37.70531	  9.27155	 -2.56572	 73.91920	700.84003	 46.50	
 16.990	 23.241	 63.65782	 59.22074	 -6.17097	 41.71186	  5.95671	 -2.56179	 73.91908	700.88000	 46.50	
 16.995	 29.081	 63.50256	 57.14301	 -4.96573	 45.49118	  2.77820	 -2.70375	 74.00885	700.78003	 46.50	
 16.988	 34.839	 63.30971	 54.59007	 -3.45704	 48.82455	 -0.04959	 -2.84772	 73.94207	700.72998	 46.50	
 17.014	 40.657	 63.08220	 51.65415	 -1.66869	 51.97624	 -2.71949	 -3.02740	 73.91948	700.77002	 46.50	
 17.007	 46.454	 62.96629	 48.50864	  0.45554	 55.06315	 -4.98916	 -3.24237	 73.95348	700.84003	 46.60	
 17.001	 52.301	 62.81760	 45.02576	  2.87399	 57.75403	 -6.99797	 -3.31396	 73.96223	700.89001	 46.60	
 17.006	 58.063	 62.62766	 41.30164	  5.46010	 60.00388	 -8.80404	 -3.34666	 73.93380	700.71997	 46.60	
 17.002	 63.866	 62.52399	 37.35334	  8.40258	 61.97480	-10.26948	 -3.35981	 73.99295	700.84003	 46.60	
 17.001	 69.690	 62.39986	 33.33147	 11.63445	 63.53637	-11.43590	 -3.35585	 73.97445	700.91998	 46.60	
 16.988	 75.483	 62.27335	 29.32448	 15.04447	 64.65578	-12.30380	 -3.46848	 73.95496	700.77002	 46.60	
 17.012	 81.253	 62.10656	 25.21358	 18.45521	 65.35282	-12.93746	 -3.56744	 73.93672	700.79999	 46.60	
 16.996	 87.091	 62.08671	 21.21247	 22.08785	 65.58340	-12.98789	 -3.54114	 73.95076	700.78003	 46.60	
 16.996	 92.909	 61.99824	 17.70621	 25.47255	 65.47598	-13.25789	 -3.28754	 73.96040	700.82001	 46.60	
 17.008	 98.662	 61.85774	 14.08035	 29.25917	 64.90019	-13.19116	 -3.24158	 73.92402	700.78003	 46.60	
 16.988	104.517	 61.90359	 10.46107	 33.29338	 63.87912	-12.48953	 -3.19681	 73.96523	700.83002	 46.60	
 17.001	110.310	 61.86384	  6.88991	 37.14319	 62.39009	-11.47863	 -3.17310	 73.93042	700.82001	 46.60	
 17.002	116.134	 61.83218	  3.62450	 41.12795	 60.54906	-10.30679	 -3.20624	 73.89866	700.76001	 46.60	
 17.006	121.937	 61.84375	  0.70030	 45.01000	 58.36367	 -8.81536	 -3.26453	 73.93932	700.81000	 46.60	
 17.001	127.699	 61.79876	 -2.00147	 48.49821	 55.73847	 -7.04709	 -3.37754	 73.88621	700.81000	 46.60	
 17.007	133.546	 61.84550	 -4.40962	 51.70593	 52.72372	 -4.93338	 -3.56826	 73.91131	700.92999	 46.60	
 17.014	139.343	 61.86749	 -6.39325	 54.74814	 49.66462	 -2.61500	 -3.70818	 73.92384	700.81000	 46.60	
 16.988	145.161	 61.92121	 -8.14273	 57.54956	 46.23663	  0.05502	 -3.75646	 73.93359	700.84003	 46.70	
 16.995	150.919	 61.95135	 -9.58756	 59.84060	 42.58116	  2.79810	 -3.69609	 73.90721	700.78998	 46.70	
 16.990	156.759	 62.10898	-10.79263	 61.83229	 38.65402	  5.79318	 -3.63106	 73.97543	700.79999	 46.70	
 17.000	162.596	 62.13604	-11.83415	 63.43539	 34.69069	  9.00938	 -3.52617	 73.92023	700.78998	 46.70	
 17.009	168.383	 62.26125	-12.55291	 64.56936	 30.76606	 12.50769	 -3.44968	 73.93029	700.82001	 46.70	
 16.990	174.179	 62.37660	-12.82634	 65.25811	 26.91708	 16.30580	 -3.39706	 73.92403	700.87000	 46.70	
 18.709	174.675	 60.01764	-17.30466	 67.28241	 24.67820	 14.43949	 -3.38808	 73.93972	700.84998	 46.70	
 18.703	169.441	 59.89396	-17.01773	 66.66760	 28.55210	 10.80418	 -3.41039	 73.95103	700.79999	 46.70	
 18.691	164.085	 59.80091	-16.39277	 65.60844	 32.62524	  7.30380	 -3.43728	 73.97039	700.75000	 46.70	
 18.706	158.818	 59.64619	-15.47565	 64.13274	 36.48934	  4.12000	 -3.49939	 73.93755	700.78003	 46.70	
 18.695	153.537	 59.61177	-14.24756	 62.27393	 40.38398	  1.09082	 -3.53567	 73.94300	700.85999	 46.70	
 18.704	148.255	 59.57174	-12.86489	 60.18108	 44.28812	 -1.81704	 -3.60757	 73.96915	700.76001	 46.70	
 18.698	142.952	 59.52257	-11.37602	 57.64647	 47.78243	 -4.54373	 -3.63801	 73.91051	700.87000	 46.70	
 18.699	137.625	 59.47070	 -9.58690	 54.80673	 51.04503	 -7.03385	 -3.54313	 73.93418	700.76001	 46.70	
 18.705	132.343	 59.46444	 -7.49597	 51.72503	 54.14357	 -9.32809	 -3.42950	 73.95743	700.77002	 46.70	
 18.713	127.067	 59.42781	 -5.11121	 48.45556	 57.13455	-11.29264	 -3.35823	 73.95440	700.81000	 46.70	
 18.700	121.794	 59.42495	 -2.49116	 44.86534	 59.66226	-13.08897	 -3.30064	 73.91765	700.75000	 46.80	
 18.698	116.504	 59.37667	  0.35206	 40.97670	 61.90764	-14.59911	 -3.18881	 73.92380	700.76001	 46.80	
 18.707	111.165	 59.36076	  3.47043	 37.04422	 63.83943	-15.83108	 -3.17769	 73.90607	700.82001	 46.70	
 18.690	105.863	 59.50984	  6.87378	 33.16228	 65.38206	-17.01182	 -3.20561	 73.98125	700.79999	 46.70	
 18.696	100.583	 59.55116	 10.43278	 29.23104	 66.45560	-17.95444	 -3.24444	 73.93698	700.90997	 46.70	
 18.700	 95.309	 59.59262	 14.12911	 25.22480	 67.27728	-18.23116	 -3.21587	 73.93884	700.85999	 46.70	
 18.700	 90.000	 59.66069	 17.54494	 21.65904	 67.57148	-17.74416	 -3.39548	 73.93361	700.78003	 46.70	
 18.700	 84.691	 59.73725	 20.99961	 18.54426	 67.55327	-17.54411	 -3.79704	 73.93018	700.81000	 46.70	
 18.696	 79.417	 59.84819	 25.07597	 14.94638	 67.09634	-17.28797	 -3.70902	 73.94987	700.89001	 46.70	
 18.690	 74.137	 59.97558	 29.13088	 11.54479	 66.29249	-16.66987	 -3.60083	 73.94337	700.87000	 46.70	
 18.707	 68.835	 60.03805	 33.22446	  8.20090	 65.07482	-15.69191	 -3.54155	 73.93839	700.81000	 46.70	
 18.698	 63.496	 60.18208	 37.28260	  5.09894	 63.41909	-14.42879	 -3.47030	 73.90495	700.83002	 46.70	
 18.700	 58.206	 60.31974	 41.20155	  2.25822	 61.47772	-12.95081	 -3.45431	 73.93907	700.72998	 46.70	
 18.713	 52.933	 60.42082	 44.94404	 -0.38108	 59.22110	-11.23351	 -3.43485	 73.91813	700.81000	 46.70	
 18.705	 47.657	 60.62813	 48.46655	 -2.68378	 56.61310	 -9.20835	 -3.28792	 73.89536	700.75000	 46.70	
 18.699	 42.375	 60.81906	 51.67706	 -4.75166	 53.64537	 -6.98004	 -3.17313	 73.88805	700.78003	 46.70	
 18.698	 37.048	 60.97299	 54.73717	 -6.65173	 50.50886	 -4.50965	 -3.08699	 73.92575	700.70001	 46.70	
 18.704	 31.745	 61.10103	 57.45235	 -8.29514	 47.15767	 -1.76376	 -3.00016	 73.92620	700.83002	 46.70	
 18.695	 26.463	 61.25562	 59.77153	 -9.68541	 43.55199	  1.17217	 -2.89629	 73.94222	700.77002	 46.70	
 18.706	 21.182	 61.31294	 61.68850	-10.92643	 39.71031	  4.21850	 -2.79397	 73.87117	700.73999	 46.70	
 18.691	 15.915	 61.49955	 63.34782	-11.80068	 35.89443	  7.59206	 -2.74578	 73.91587	700.78998	 46.70	
 18.703	 10.559	 61.63489	 64.62066	-12.48867	 31.94662	 11.13493	 -2.68845	 73.93343	700.73999	 46.70	
 18.709	  5.325	 61.80383	 65.38221	-12.75404	 28.09960	 14.85148	 -2.65304	 73.91739	700.75000	 46.70	
 18.700	  0.000	 61.98673	 65.75955	-12.55679	 24.32875	 18.66847	 -2.58823	 73.91722	700.77002	 46.80	
 18.709	 -5.325	 62.14868	 65.77327	-12.30018	 20.85363	 21.93902	 -2.55475	 73.95947	700.81000	 46.80	
 18.703	-10.559	 62.25497	 65.35094	-12.04919	 17.36007	 25.87996	 -2.51872	 73.93541	700.72998	 46.80	
 18.691	-15.915	 62.38947	 64.44804	-11.29247	 13.87182	 30.03176	 -2.47570	 73.86423	700.77002	 46.80	
 18.706	-21.182	 62.50999	 63.18645	-10.31980	 10.47833	 34.04510	 -2.42036	 73.89246	700.97998	 46.80	
 18.695	-26.463	 62.68825	 61.58311	 -9.10307	  7.35327	 37.97598	 -2.40671	 73.95701	700.85999	 46.70	
 18.704	-31.745	 62.65156	 59.46069	 -7.63631	  4.33179	 42.01934	 -2.41464	 73.85452	700.95001	 46.80	
 18.698	-37.048	 62.74677	 57.10889	 -5.85622	  1.60091	 45.84517	 -2.50057	 73.93516	700.90997	 46.70	
 18.699	-42.375	 62.81580	 54.36169	 -3.85338	 -0.83965	 49.20528	 -2.61378	 73.89096	700.82001	 46.70	
 18.705	-47.657	 62.85820	 51.29669	 -1.71752	 -3.17054	 52.18775	 -2.74378	 73.91032	700.79999	 46.70	
 18.713	-52.933	 62.83802	 47.95250	  0.70884	 -5.28630	 55.25067	 -2.82594	 73.90409	700.76001	 46.70	
 18.700	-58.206	 62.82169	 44.42063	  3.40943	 -7.01974	 57.83754	 -2.95248	 73.90753	700.75000	 46.70	
 18.698	-63.496	 62.77879	 40.57050	  6.34973	 -8.55710	 60.02711	 -3.02778	 73.88348	700.79999	 46.70	
 18.707	-68.835	 62.78226	 36.60055	  9.53050	 -9.72599	 61.78325	 -3.15613	 73.89725	700.92999	 46.70	
 18.690	-74.137	 62.79102	 32.58650	 13.01755	-10.68595	 63.27518	 -3.29003	 73.88566	700.84998	 46.80	
 18.696	-79.417	 62.73367	 28.56873	 16.52568	-11.53395	 64.37212	 -3.47218	 73.92604	700.95001	 46.80	
 18.700	-84.691	 62.62183	 24.42699	 20.03466	-11.98968	 64.98107	 -3.55062	 73.92686	700.88000	 46.80	
 18.700	-90.000	 62.52470	 20.43468	 23.73321	-12.08305	 65.16711	 -3.56344	 73.92036	700.88000	 46.80	
 18.700	-95.309	 62.41489	 16.95283	 27.15860	-12.11064	 64.90314	 -3.19625	 73.90966	700.83002	 46.80	
 18.696	-100.583	 62.28633	 13.29520	 30.88536	-12.03741	 64.24907	 -2.95796	 73.88998	700.85999	 46.80	
 18.690	-105.863	 62.18878	  9.68743	 34.78882	-11.44202	 63.14872	 -2.84761	 73.87959	700.23999	 46.80	
 18.707	-111.165	 62.05444	  6.20901	 38.53374	-10.65966	 61.65068	 -2.80026	 73.91157	700.84998	 46.80	
 18.698	-116.504	 61.90423	  2.92926	 42.49300	 -9.54407	 59.83548	 -2.80903	 73.88583	700.95001	 46.80	
 18.700	-121.794	 61.80961	 -0.08667	 46.23590	 -8.15550	 57.60457	 -2.86057	 73.89850	700.91998	 46.80	
 18.713	-127.067	 61.63961	 -2.87250	 49.64845	 -6.60209	 54.98491	 -2.92334	 73.92481	700.79999	 46.80	
 18.705	-132.343	 61.51889	 -5.42310	 52.78922	 -4.69997	 51.95800	 -2.90532	 73.92947	700.88000	 46.80	
 18.699	-137.625	 61.33110	 -7.78908	 55.81009	 -2.67942	 48.93336	 -2.86740	 73.91928	700.94000	 46.80	
 18.698	-142.952	 61.16937	 -9.90932	 58.59262	 -0.40074	 45.43919	 -2.85764	 73.92607	700.84003	 46.80	
 18.704	-148.255	 61.02002	-11.73875	 60.93019	  2.11074	 41.59738	 -2.80176	 73.89777	700.90997	 46.80	
 18.695	-153.537	 60.89286	-13.29888	 62.99080	  4.88371	 37.59432	 -2.86436	 73.93837	700.94000	 46.80	
 18.706	-158.818	 60.67672	-14.69017	 64.68361	  7.84949	 33.65374	 -2.88640	 73.90104	700.91998	 46.80	
 18.691	-164.085	 60.49503	-15.76356	 65.96677	 10.99188	 29.64628	 -2.96119	 73.90963	700.90997	 46.80	
 18.703	-169.441	 60.37143	-16.55171	 66.92558	 14.53420	 25.41916	 -3.03616	 73.93549	700.89001	 46.80	
 18.709	-174.675	 60.24855	-16.92031	 67.36736	 17.93931	 21.38199	 -3.13604	 73.89721	700.83002	 46.80	
 18.700	180.000	 60.18913	-16.98558	 67.50998	 21.16558	 18.08421	 -3.20908	 73.90189	700.79999	 46.80	
 20.400	180.000	 57.33069	-21.33469	 69.23239	 19.11882	 16.03666	 -2.97838	 73.92824	700.19000	 46.80	
 20.401	-175.153	 57.42043	-21.24716	 69.10329	 15.91204	 19.50414	 -2.77627	 73.90549	700.87000	 46.80	
 20.407	-170.264	 57.46856	-20.90702	 68.61921	 12.40640	 23.18485	 -2.69600	 73.83257	700.10999	 46.80	
 20.410	-165.423	 57.66130	-20.27551	 67.88786	  9.04909	 27.33120	 -2.63901	 73.90849	700.06000	 46.80	
 20.392	-160.496	 57.85497	-19.25412	 66.65886	  5.83494	 31.48911	 -2.61493	 73.87751	700.09003	 46.80	
 20.401	-155.705	 58.08023	-18.02544	 65.13708	  2.88709	 35.48072	 -2.59423	 73.91147	700.84003	 46.80	
 20.405	-150.835	 58.36315	-16.51837	 63.22089	  0.10395	 39.37362	 -2.60292	 73.95657	700.77002	 46.80	
 20.397	-145.903	 58.56077	-14.77211	 60.99334	 -2.46339	 43.38444	 -2.64508	 73.93266	700.88000	 46.80	
 20.392	-141.062	 58.74721	-12.84360	 58.53116	 -4.79057	 47.04989	 -2.66094	 73.92963	700.89001	 46.80	
 20.396	-136.227	 58.91753	-10.74825	 55.72606	 -6.95712	 50.41116	 -2.66932	 73.93510	700.10999	 46.80	
 20.408	-131.372	 59.10161	 -8.38506	 52.58529	 -8.94837	 53.52419	 -2.69017	 73.92678	700.71997	 46.80	
 20.410	-126.511	 59.25349	 -5.85101	 49.44190	-10.71331	 56.45753	 -2.67175	 73.91013	700.59998	 46.80	
 20.400	-121.604	 59.42243	 -3.06980	 45.91267	-12.26057	 59.03569	 -2.68299	 73.89165	700.33002	 46.80	
 20.403	-116.741	 59.52391	 -0.21792	 42.24225	-13.83594	 61.20465	 -2.71118	 73.89070	700.15997	 46.80	
 20.413	-111.900	 59.65431	  2.93813	 38.38963	-15.18666	 63.12352	 -2.77168	 73.87666	700.13000	 46.80	
 20.398	-107.004	 59.83332	  6.32919	 34.61431	-16.15811	 64.71986	 -2.79295	 73.89967	700.06000	 46.80	
 20.394	-102.132	 59.93090	  9.83413	 30.75332	-16.69711	 65.93443	 -2.82169	 73.92209	700.23999	 46.80	
 20.403	-97.332	 60.06550	 13.51925	 26.84877	-16.79466	 66.78005	 -2.91178	 73.95794	700.31000	 46.90	
 20.392	-92.440	 60.16290	 16.70947	 23.54042	-16.44186	 67.19209	 -3.33952	 73.93333	700.07001	 46.80	
 20.392	-87.560	 60.21378	 20.34497	 20.07424	-16.46882	 67.22182	 -3.50433	 73.92888	700.09003	 46.80	
 20.403	-82.668	 60.25664	 24.44933	 16.38766	-16.32622	 66.88720	 -3.45786	 73.92361	700.19000	 46.90	
 20.394	-77.868	 60.36292	 28.51351	 12.84748	-15.74539	 66.06670	 -3.35757	 73.94299	700.16998	 46.90	
 20.398	-72.996	 60.43907	 32.55603	  9.47699	-14.86079	 64.93743	 -3.25636	 73.92154	700.91998	 46.90	
 20.413	-68.100	 60.46616	 36.61143	  6.13842	-13.94228	 63.42207	 -3.18273	 73.93771	700.91998	 46.90	
 20.403	-63.259	 60.50226	 40.52689	  3.12538	-12.67494	 61.55341	 -3.05360	 73.94818	700.28998	 46.90	
 20.400	-58.396	 60.47631	 44.35099	  0.23214	-11.19230	 59.35489	 -2.90737	 73.90233	700.42999	 46.80	
 20.410	-53.489	 60.50346	 47.98167	 -2.53901	 -9.44215	 56.82293	 -2.78376	 73.93261	700.15002	 46.90	
 20.408	-48.628	 60.47176	 51.39295	 -4.98310	 -7.42727	 53.80664	 -2.67281	 73.91712	700.58002	 46.90	
 20.396	-43.773	 60.52443	 54.53193	 -7.08447	 -5.16337	 50.76343	 -2.58094	 73.91694	700.19000	 46.90	
 20.392	-38.938	 60.57383	 57.33043	 -8.98334	 -2.74300	 47.54415	 -2.48416	 73.93853	700.95001	 46.90	
 20.397	-34.097	 60.47444	 59.85691	-10.83692	 -0.12802	 43.79553	 -2.39603	 73.88995	700.94000	 46.90	
 20.405	-29.165	 60.43480	 62.16987	-12.48020	  2.74463	 39.69553	 -2.32528	 73.92129	700.17999	 46.90	
 20.401	-24.295	 60.34928	 64.02838	-13.84486	  5.78364	 35.82048	 -2.30149	 73.92479	700.98999	 46.90	
 20.392	-19.504	 60.23681	 65.51297	-14.99297	  8.92151	 31.86625	 -2.36492	 73.93835	700.94000	 46.90	
 20.410	-14.577	 60.00032	 66.62256	-15.95039	 12.27873	 27.65919	 -2.40644	 73.88503	700.84003	 46.90	
 20.407	 -9.736	 59.83867	 67.39118	-16.58747	 15.74251	 23.57629	 -2.44589	 73.91434	700.90002	 46.90	
 20.401	 -4.847	 59.72045	 67.74359	-16.83382	 19.12082	 20.01408	 -2.49000	 73.92805	700.66998	 46.90	
 20.400	  0.000	 59.60175	 67.71597	-17.04135	 22.53384	 16.48957	 -2.52036	 73.92234	700.94000	 46.90	
 20.401	  4.847	 59.48661	 67.37805	-17.53585	 26.30540	 12.97801	 -2.59597	 73.93850	700.96002	 46.90	
 20.407	  9.736	 59.29607	 66.65964	-17.41882	 30.14501	  9.32909	 -2.63349	 73.95480	700.96002	 46.90	
 20.410	 14.577	 58.98110	 65.51323	-16.72646	 33.89898	  5.52039	 -2.65050	 73.96103	700.92999	 46.90	
 20.392	 19.504	 58.85600	 63.98455	-15.83065	 37.67687	  2.24234	 -2.73246	 73.94825	701.03003	 46.90	
 20.401	 24.295	 58.76625	 62.21425	-14.67360	 41.42754	 -0.79452	 -2.76493	 74.00161	701.09003	 46.90	
 20.405	 29.165	 58.57583	 60.00043	-13.30361	 45.19181	 -3.74101	 -2.76925	 73.96413	700.97998	 46.90	
 20.397	 34.097	 58.47653	 57.43658	-11.67534	 48.71346	 -6.38727	 -2.89437	 73.94736	700.95001	 46.90	
 20.392	 38.938	 58.26594	 54.56059	 -9.95107	 51.88917	 -8.95269	 -2.97839	 73.92496	700.96997	 47.00	
 20.396	 43.773	 58.12714	 51.52439	 -8.06000	 54.99828	-11.17872	 -3.08573	 73.96193	701.10999	 47.00	
 20.408	 48.628	 57.84552	 48.25576	 -6.04993	 57.87165	-13.39735	 -3.14919	 73.89436	700.97998	 47.00	
 20.410	 53.489	 57.64459	 44.75429	 -3.76868	 60.50176	-15.43529	 -3.13680	 73.94766	701.06000	 47.00	
 20.400	 58.396	 57.55201	 40.89690	 -0.97474	 62.80298	-17.28364	 -3.19005	 73.94982	700.96997	 47.00	
 20.403	 63.259	 57.41037	 36.99303	  1.81776	 64.77990	-18.89956	 -3.26906	 73.96280	700.95001	 47.00	
 20.413	 68.100	 57.23822	 32.98761	  4.82638	 66.40050	-20.26677	 -3.40475	 73.91831	700.88000	 47.00	
 20.398	 72.996	 57.13338	 28.84904	  8.06599	 67.64765	-21.22050	 -3.46695	 73.89842	700.89001	 47.00	
 20.394	 77.868	 57.03087	 24.73711	 11.34947	 68.56701	-22.01654	 -3.68448	 73.90552	700.97998	 47.00	
 20.403	 82.668	 56.85683	 20.75513	 14.67235	 69.11548	-22.45404	 -3.78403	 73.91548	700.89001	 47.00	
 20.392	 87.560	 56.79326	 17.43771	 17.68339	 69.31932	-22.74665	 -3.23002	 73.92277	700.96997	 47.00	
 20.392	 92.440	 56.71729	 13.90610	 21.12833	 69.18475	-22.90898	 -3.02061	 73.91828	701.02002	 47.00	
 20.403	 97.332	 56.63011	 10.17867	 24.85290	 68.71037	-22.78086	 -2.94140	 73.92276	701.03998	 47.00	
 20.394	102.132	 56.59012	  6.63617	 28.91087	 67.82716	-22.19688	 -2.99492	 73.92538	700.98999	 47.00	
 20.398	107.004	 56.56023	  3.36272	 32.80622	 66.64539	-21.49516	 -3.02199	 73.92291	700.90997	 47.00	
 20.413	111.900	 56.49109	  0.05210	 36.78466	 65.07115	-20.51816	 -3.04487	 73.92333	700.96002	 47.00	
 20.403	116.741	 56.50549	 -2.94580	 40.67802	 63.01694	-19.09534	 -3.09360	 73.92918	700.96997	 47.00	
 20.400	121.604	 56.52203	 -5.68414	 44.51494	 60.75858	-17.58761	 -3.15326	 73.95055	700.96997	 47.00	
 20.410	126.511	 56.53244	 -8.23313	 48.18068	 58.21992	-15.79081	 -3.19550	 73.94102	700.53998	 47.00	
 20.408	131.372	 56.50671	-10.63668	 51.43238	 55.33994	-13.66682	 -3.19955	 73.87938	701.00000	 47.00	
 20.396	136.227	 56.61909	-12.66842	 54.57295	 52.18076	-11.51405	 -3.23511	 73.91139	700.92999	 47.00	
 20.392	141.062	 56.66589	-14.50823	 57.48483	 49.20998	 -9.26901	 -3.28174	 73.95916	700.96002	 47.00	
 20.397	145.903	 56.68118	-16.17352	 60.10112	 45.74328	 -6.69211	 -3.24764	 73.92805	700.91998	 47.00	
 20.405	150.835	 56.72506	-17.59491	 62.45089	 41.90996	 -3.92432	 -3.29265	 73.93673	700.96997	 46.90	
 20.401	155.705	 56.69733	-19.00002	 64.46362	 37.91456	 -1.00334	 -3.17233	 73.84995	700.15997	 46.90	
 20.392	160.496	 56.79597	-19.99600	 66.15273	 34.21156	  2.09157	 -3.19374	 73.91419	700.21997	 46.90	
 20.410	165.423	 56.97919	-20.72583	 67.51081	 30.42503	  5.51387	 -3.22740	 73.93816	700.19000	 46.90	
 20.407	170.264	 57.13745	-21.14634	 68.43271	 26.53210	  8.98022	 -3.13998	 73.93618	700.16998	 46.90	
 20.401	175.153	 57.18117	-21.79612	 69.01189	 22.41985	 12.64809	 -3.18688	 73.90699	700.15002	 46.90	
  0.141	 45.000	 74.12770	 30.25269	 34.12967	 34.62827	 28.84861	  1.80656	 73.93525	700.15002	 46.90	
  4.001	128.691	 73.48011	 23.39036	 39.53262	 41.03765	 21.28215	  1.22330	 73.90419	700.16998	 47.00	
  4.002	 76.995	 73.65624	 31.27094	 31.35279	 43.30584	 19.52909	  1.40632	 73.96553	700.46002	 47.00	
  4.002	 25.892	 73.86361	 38.36773	 25.31023	 38.49262	 24.37694	  1.61416	 73.95264	700.40002	 47.00	
  4.002	-25.892	 73.99397	 38.62880	 25.51542	 30.04194	 32.81424	  1.65256	 73.91139	700.15997	 46.90	
  4.002	-76.995	 73.97974	 32.05911	 31.69869	 24.75189	 38.51573	  1.64141	 73.89805	700.70001	 46.90	
  4.001	-128.691	 73.83865	 23.90907	 39.95243	 26.18160	 36.40272	  1.43949	 73.89088	700.97998	 46.90	
  4.000	180.000	 73.60141	 20.22659	 43.39633	 33.20261	 28.48683	  1.23272	 73.90665	700.76001	 46.90	
  8.000	180.000	 71.80262	 10.24728	 51.29078	 31.25127	 26.89411	  0.03312	 73.91475	700.28003	 46.90	
  7.991	-152.370	 72.20522	 12.44617	 49.19462	 23.08474	 36.13709	  0.29187	 73.94385	700.94000	 46.90	
  7.997	-124.550	 72.51421	 18.20903	 43.28072	 17.21656	 43.58570	  0.35565	 73.90107	700.32001	 47.00	
  8.006	-96.837	 72.76500	 26.48299	 34.53778	 14.58850	 47.19284	  0.66116	 73.91524	700.23999	 47.00	
  7.988	-69.228	 72.93698	 35.71474	 25.88732	 15.81722	 46.11126	  0.77390	 73.92924	700.10999	 47.00	
  7.997	-41.563	 72.94877	 43.38805	 19.01729	 20.78712	 40.48285	  0.73485	 73.91972	700.16998	 47.00	
  8.008	-13.821	 72.76649	 47.65596	 15.08650	 28.48231	 31.52371	  0.66955	 73.89597	700.19000	 47.00	
  8.008	 13.821	 72.47809	 47.29016	 14.90741	 37.49443	 22.60959	  0.66069	 73.93548	700.15997	 47.00	
  7.997	 41.563	 72.10744	 42.31926	 18.50720	 45.43452	 14.92220	  0.32641	 73.88850	700.21002	 47.00	
  7.988	 69.228	 71.81715	 34.09773	 25.24586	 50.33307	 10.34284	  0.20135	 73.93620	700.19000	 47.00	
  8.006	 96.837	 71.59995	 24.89627	 33.79241	 51.03041	  9.49713	  0.11866	 73.93768	700.26001	 46.90	
  7.997	124.550	 71.49957	 16.89056	 42.55288	 47.47884	 12.47578	  0.00540	 73.90622	700.22998	 46.90	
  7.991	152.370	 71.55321	 11.93034	 48.78230	 40.27034	 18.44326	 -0.23547	 73.88558	700.81000	 46.90	
 12.009	161.059	 68.33126	  1.11276	 56.57269	 37.46972	 15.56231	 -2.17902	 73.90440	700.28998	 46.90	
 12.013	142.081	 68.11642	  4.07554	 51.68375	 46.10290	  8.08252	 -2.33009	 73.90450	700.31000	 47.00	
 12.006	123.113	 68.13225	 10.09670	 44.48717	 52.97441	  2.75706	 -2.01545	 73.96362	701.07001	 47.00	
 12.007	104.200	 68.16885	 17.53685	 35.49347	 57.30125	 -0.18536	 -2.05307	 73.90602	701.03998	 47.00	
 11.989	 85.301	 68.35795	 26.62982	 26.55060	 58.43159	 -0.64474	 -1.85098	 73.93210	700.98999	 46.90	
 12.013	 66.294	 68.58006	 36.10242	 18.11273	 56.46850	  1.10531	 -1.66004	 73.90488	701.00000	 46.90	
 12.012	 47.388	 69.00438	 44.70480	 11.55665	 51.32796	  5.21066	 -1.56813	 73.94595	700.98999	 47.00	
 11.990	 28.440	 69.33942	 51.12386	  6.93183	 44.06104	 12.01531	 -1.19894	 73.87801	700.78998	 47.00	
 11.991	  9.464	 69.72784	 54.99547	  4.69622	 35.15557	 20.09528	 -1.11030	 73.90673	700.98999	 46.90	
 11.991	 -9.464	 70.01778	 55.41549	  4.77419	 26.19699	 29.31853	 -1.06931	 73.88863	701.06000	 46.90	
 11.990	-28.440	 70.27594	 52.45009	  7.47443	 17.94340	 38.71085	 -0.96215	 73.90097	700.97998	 46.90	
 12.012	-47.388	 70.36999	 46.49434	 12.34859	 11.19458	 46.79068	 -1.00691	 73.92469	701.06000	 46.90	
 12.013	-66.294	 70.32275	 38.35633	 19.13322	  6.70176	 52.30284	 -0.75597	 73.91643	700.96997	 46.90	
 11.989	-85.301	 70.20348	 28.93953	 27.69198	  4.59337	 54.81191	 -0.90738	 73.88841	701.02002	 46.90	
 12.007	-104.200	 69.96515	 19.74476	 36.64686	  4.89539	 53.91718	 -1.22636	 73.90688	700.94000	 46.90	
 12.006	-123.113	 69.63967	 11.72115	 45.40158	  7.59035	 49.55862	 -1.39627	 73.87675	700.21002	 47.00	
 12.013	-142.081	 69.31405	  5.44752	 52.33338	 12.71597	 42.77283	 -1.51552	 73.91488	700.20001	 47.00	
 12.009	-161.059	 68.93525	  1.67281	 56.92030	 19.76956	 33.61981	 -1.83599	 73.89810	700.21002	 47.00	
 16.000	180.000	 63.89338	-10.06251	 64.27529	 24.38781	 20.71077	 -3.18628	 73.92820	700.23999	 47.00	
 15.990	-165.604	 64.20300	 -9.20060	 63.17133	 16.06582	 30.02678	 -3.01044	 73.89993	700.17999	 47.00	
 16.002	-151.165	 64.66261	 -6.22006	 59.65528	  8.54539	 39.54697	 -2.77414	 73.95788	700.28003	 47.00	
 16.002	-136.836	 64.99156	 -1.70818	 53.82952	  2.51694	 48.06193	 -2.77300	 73.89185	700.23999	 47.00	
 15.995	-122.439	 65.39497	  4.47270	 46.47728	 -1.65143	 54.72701	 -2.72763	 73.92178	700.27002	 47.00	
 15.993	-107.966	 65.67327	 12.37224	 37.48387	 -4.45772	 59.35984	 -2.56741	 73.90850	700.15002	 47.00	
 16.005	-93.629	 65.93799	 21.00302	 28.64134	 -5.34506	 61.34480	 -2.94870	 73.89957	700.15002	 47.00	
 15.992	-79.234	 66.23088	 30.38434	 19.86804	 -4.53255	 60.78279	 -2.92390	 73.95039	700.15997	 47.00	
 16.009	-64.774	 66.31103	 39.76418	 11.92504	 -2.41514	 57.62133	 -2.63713	 73.91704	700.15002	 47.00	
 15.997	-50.364	 66.39010	 48.23263	  4.99401	  1.48990	 51.72438	 -2.52805	 73.91736	700.51001	 47.00	
 15.997	-36.045	 66.32813	 55.11051	 -0.04667	  7.43750	 44.38126	 -2.30977	 73.93445	700.23999	 47.00	
 16.000	-21.597	 66.15132	 59.79528	 -3.56414	 14.72160	 35.08282	 -2.21935	 73.92788	700.25000	 47.00	
 16.003	 -7.169	 65.84251	 61.95544	 -5.34090	 23.02695	 25.73750	 -2.39556	 73.94302	701.07001	 47.00	
 16.003	  7.169	 65.44948	 61.51810	 -5.60994	 31.81758	 16.80982	 -2.42156	 73.93276	700.28003	 47.00	
 16.000	 21.597	 64.92072	 58.49124	 -4.09706	 40.93067	  8.29855	 -2.48098	 73.86427	700.27002	 47.00	
 15.997	 36.045	 64.54612	 53.08990	 -0.86370	 49.25327	  1.20507	 -2.75052	 73.93491	700.27002	 47.00	
 15.997	 50.364	 64.16678	 45.72983	  4.11298	 56.15994	 -4.17678	 -3.07281	 73.87656	700.21002	 47.00	
 16.009	 64.774	 63.81480	 36.78433	 10.71937	 61.14766	 -8.03887	 -3.11343	 73.90004	700.15002	 47.00	
 15.992	 79.234	 63.51609	 27.35250	 18.57590	 63.88978	-10.12168	 -3.24194	 73.86504	700.15997	 47.00	
 16.005	 93.629	 63.25753	 18.25905	 26.95777	 64.12721	-10.71599	 -3.15832	 73.87094	700.15002	 47.00	
 15.993	107.966	 63.15479	  9.77107	 36.09722	 61.86586	 -9.47385	 -3.05938	 73.85975	700.25000	 47.00	
 15.995	122.439	 63.16188	  2.31580	 45.19429	 57.31831	 -6.36315	 -3.12486	 73.87080	700.23999	 47.00	
 16.002	136.836	 63.20927	 -3.43702	 52.84163	 50.57232	 -1.58327	 -3.53672	 73.86417	700.14001	 46.90	
 16.002	151.165	 63.35762	 -7.32722	 59.04468	 42.57032	  4.49863	 -3.56216	 73.93882	700.10999	 46.90	
 15.990	165.604	 63.53942	 -9.67129	 62.80662	 33.29142	 12.17358	 -3.32766	 73.85236	700.14001	 46.90	
 20.003	168.362	 57.61417	-20.27673	 67.76614	 28.13545	  8.13615	 -3.26641	 73.91756	700.26001	 46.90	
 20.008	156.764	 57.42070	-18.35148	 64.59971	 37.38601	  0.36263	 -3.28039	 73.94203	700.22998	 46.90	
 20.000	145.147	 57.33078	-15.09086	 59.53064	 46.38206	 -6.34820	 -3.35033	 73.95863	700.25000	 46.90	
 19.995	133.545	 57.18810	-10.81501	 52.75035	 53.80840	-11.84881	 -3.25607	 73.90038	700.15002	 46.90	
 20.009	121.926	 57.10984	 -5.15095	 44.82634	 60.38644	-16.58665	 -3.12294	 73.88298	700.25000	 47.00	
 20.005	110.327	 57.10799	  1.75306	 35.76846	 65.21407	-19.92885	 -3.06468	 73.86040	700.21997	 46.90	
 19.989	 98.733	 57.25893	  9.70650	 26.44040	 68.07296	-21.67347	 -3.00836	 73.88731	700.10999	 47.00	
 19.999	 87.075	 57.38647	 18.08393	 18.03704	 68.86417	-21.62169	 -3.34936	 73.82157	700.16998	 47.00	
 19.992	 75.457	 57.68482	 27.00979	 10.36177	 67.78259	-20.72905	 -3.65441	 73.87910	700.20001	 47.00	
 20.009	 63.844	 57.95117	 36.52476	  2.89783	 64.64502	-17.92627	 -3.33447	 73.84347	700.23999	 47.00	
 19.989	 52.269	 58.32947	 45.44814	 -3.45061	 59.59554	-14.00266	 -3.25431	 73.80170	700.12000	 47.00	
 19.999	 40.602	 58.79252	 53.24151	 -8.45500	 52.91185	 -8.94040	 -3.13563	 73.85809	700.21002	 47.00	
 20.004	 29.051	 59.20907	 59.61498	-12.27352	 45.20953	 -2.84521	 -2.98350	 73.85310	700.15997	 47.00	
 20.005	 17.433	 59.55870	 64.13995	-15.05774	 36.33583	  4.39346	 -2.83028	 73.84814	700.06000	 47.00	
 20.006	  5.780	 60.00492	 66.68240	-16.25184	 27.35080	 12.78916	 -2.67533	 73.82481	700.20001	 47.00	
 20.006	 -5.780	 60.34726	 67.13483	-15.63132	 19.01140	 20.99087	 -2.55377	 73.83112	700.25000	 47.00	
 20.005	-17.433	 60.67820	 65.52551	-14.39736	 10.86215	 30.41059	 -2.46008	 73.85632	700.22998	 47.00	
 20.004	-29.051	 60.91155	 61.73055	-11.55719	  3.51170	 39.64991	 -2.39117	 73.80254	700.23999	 47.00	
 19.999	-40.602	 61.07335	 56.07928	 -7.38809	 -2.69569	 48.45336	 -2.55772	 73.81837	700.19000	 47.00	
 19.989	-52.269	 61.01563	 48.67164	 -2.25956	 -7.90144	 55.64604	 -2.80896	 73.78590	700.27002	 47.00	
 20.009	-63.844	 60.98848	 40.08352	  4.23017	-11.79249	 61.27529	 -3.10379	 73.78812	700.25000	 47.00	
 19.992	-75.457	 60.85163	 30.65122	 11.74626	-14.30003	 64.97634	 -3.38387	 73.76082	700.28003	 47.00	
 19.999	-87.075	 60.69116	 21.09731	 20.15847	-15.37666	 66.62041	 -3.53421	 73.77955	700.22998	 47.00	
 19.989	-98.733	 60.45314	 12.82535	 28.32260	-15.63516	 65.97537	 -2.91918	 73.78765	700.19000	 47.00	
 20.005	-110.327	 60.16587	  4.53505	 37.32543	-14.30582	 63.20273	 -2.78236	 73.79548	700.20001	 47.00	
 20.009	-121.926	 59.86423	 -2.59516	 46.10723	-11.25906	 58.49158	 -2.75705	 73.75386	700.15997	 47.00	
 19.995	-133.545	 59.52911	 -8.67610	 53.79916	 -7.15827	 51.81863	 -2.75042	 73.77715	700.08002	 47.00	
 20.000	-145.147	 59.06259	-13.63033	 60.25474	 -2.06152	 43.87896	 -2.72219	 73.73580	700.19000	 47.10	
 20.008	-156.764	 58.54935	-17.44661	 65.06855	  4.19874	 34.64444	 -2.72648	 73.75697	700.16998	 47.10	
 20.003	-168.362	 58.12106	-19.73588	 67.94807	 11.69778	 25.07180	 -2.80350	 73.79874	700.01001	 47.10	
 20.000	180.000	 57.89011	-20.33860	 68.72293	 19.53698	 16.36226	 -3.09883	 73.75601	700.20001	 47.10	
