FileType=PCF
NHL=14
Date=05/30/19	17:23:53
Facility=APL
Serial=16071-13
Customer=NASA
NP=6
Mach=0.450000
Calibration=1:1
CalPts=490
TstPts=95
PortNumbering=AP Standard
Units=Torr C m/s kg/m^3 deg mm 
Theta[deg]	Phi[deg]	P1[Torr]	P2[Torr]	P3[Torr]	P4[Torr]	P5[Torr]	P6[Torr]	Pt[Torr]	Ps[Abs,Torr]	Ts[C]	
  0.000	  0.000	107.90997	 44.04297	 51.15972	 50.98878	 39.80154	  2.56824	107.69686	700.22998	 49.20	
  1.691	128.401	107.84328	 40.03070	 54.38218	 55.05754	 40.06740	  2.34514	107.80983	700.20001	 49.60	
  1.692	 77.194	107.90849	 44.99990	 49.72021	 56.49729	 40.23570	  2.47708	107.78944	700.28003	 49.70	
  1.699	 26.182	108.00783	 49.18291	 46.10608	 53.60550	 40.50326	  2.60791	107.80390	700.25000	 49.70	
  1.699	-26.182	108.02311	 49.36962	 46.23278	 48.65817	 40.75399	  2.68536	107.78912	700.20001	 49.80	
  1.692	-77.194	108.05355	 45.53941	 49.99040	 45.70797	 40.77233	  2.61538	107.81303	700.15997	 49.90	
  1.691	-128.401	108.09053	 40.52134	 54.62845	 46.50582	 40.68453	  2.48328	107.89525	700.23999	 49.90	
  1.700	180.000	107.99698	 38.06583	 56.69420	 50.66192	 40.47816	  2.36814	107.88818	700.15997	 50.00	
  3.400	180.000	107.66219	 32.11266	 62.08160	 50.00920	 39.81883	  1.95383	107.91753	700.09998	 50.10	
  3.388	-152.325	107.84128	 33.64563	 60.81502	 45.33786	 39.13017	  2.13486	107.94450	700.27002	 50.10	
  3.397	-124.529	107.96642	 37.41053	 57.23455	 40.98918	 39.24660	  2.29349	107.89059	700.15002	 50.20	
  3.399	-96.763	108.10972	 42.93830	 52.15811	 39.34670	 39.94773	  2.44000	107.94294	700.21002	 50.20	
  3.394	-69.283	108.09455	 48.44376	 47.01768	 40.00945	 41.21519	  2.54183	107.88503	700.15997	 50.30	
  3.400	-41.398	108.11897	 52.98560	 42.45605	 44.05163	 42.11823	  2.54862	107.92391	700.20001	 50.40	
  3.401	-14.021	108.13659	 55.44511	 39.76381	 48.37568	 42.15216	  2.57149	107.93515	700.21002	 50.40	
  3.401	 14.021	108.03751	 55.14998	 39.59196	 53.86582	 42.01114	  2.49050	107.95373	700.16998	 50.50	
  3.400	 41.398	107.84251	 52.26645	 41.88064	 58.58345	 41.53455	  2.35750	107.92177	700.98999	 50.50	
  3.394	 69.283	107.75661	 47.54509	 46.51075	 61.53226	 41.60564	  2.22533	107.95889	700.12000	 50.60	
  3.399	 96.763	107.64011	 42.01527	 51.61161	 61.95295	 41.35978	  2.04812	108.02237	700.21997	 50.60	
  3.397	124.529	107.61159	 36.71673	 56.76935	 59.69375	 39.82057	  1.93108	108.08896	700.20001	 50.70	
  3.388	152.325	107.59911	 33.35442	 60.49724	 55.38633	 38.44115	  1.91149	107.96188	700.28998	 50.80	
  5.099	161.165	106.80672	 26.91688	 66.18221	 54.60342	 37.34847	  1.31051	107.95804	700.26001	 50.80	
  5.109	142.013	106.70441	 29.18332	 63.25859	 59.88343	 36.67585	  1.23242	107.98090	700.28003	 50.80	
  5.095	123.033	106.76297	 33.10400	 58.95665	 64.10455	 36.84098	  1.38806	107.99007	700.22998	 50.90	
  5.105	104.191	106.82805	 37.94983	 53.70139	 66.61916	 37.28569	  1.44968	108.01630	700.21002	 50.90	
  5.093	 85.207	106.84386	 43.85492	 48.21613	 67.38503	 37.48331	  1.58060	107.95529	700.19000	 51.00	
  5.104	 66.290	107.10026	 49.68064	 42.63182	 66.40333	 38.02198	  1.74225	108.04766	700.27002	 51.00	
  5.094	 47.331	107.36716	 54.63361	 38.23078	 63.48915	 38.94288	  1.91150	108.03253	700.31000	 51.10	
  5.089	 28.397	107.58321	 58.54720	 35.22503	 58.94421	 40.07699	  2.07007	108.07427	700.33002	 51.10	
  5.096	  9.576	107.78106	 60.77157	 33.72969	 53.70786	 40.78379	  2.10829	108.10789	700.35999	 51.10	
  5.096	 -9.576	107.89550	 61.05147	 33.80269	 47.97178	 41.19215	  2.20928	108.04556	700.33002	 51.20	
  5.089	-28.397	108.00108	 59.31875	 35.55469	 43.23914	 41.03925	  2.24629	108.06573	700.20001	 51.20	
  5.094	-47.331	108.04449	 55.87149	 38.80345	 38.06458	 40.29873	  2.24338	108.10561	700.32001	 51.20	
  5.104	-66.290	107.99963	 50.98889	 43.79642	 34.99642	 39.41442	  2.20629	108.06094	700.29999	 51.30	
  5.093	-85.207	107.99106	 45.35315	 49.04957	 33.64188	 38.16438	  2.16202	108.11381	700.35999	 51.30	
  5.105	-104.191	107.88128	 39.47993	 54.45166	 33.83790	 37.75333	  2.01117	108.16486	700.35999	 51.40	
  5.095	-123.033	107.73322	 34.29756	 59.61865	 35.61593	 36.93274	  1.91376	108.14717	700.25000	 51.40	
  5.109	-142.013	107.51332	 30.03987	 63.83009	 38.90654	 36.23665	  1.73749	108.12291	700.28998	 51.50	
  5.099	-161.165	107.31939	 27.33329	 66.59133	 43.78809	 35.24504	  1.53973	108.13397	700.28003	 51.50	
  5.100	180.000	107.10078	 26.27946	 67.40633	 49.13902	 34.30373	  1.38638	108.08486	700.29999	 51.50	
  6.800	180.000	106.07891	 19.73756	 72.52381	 48.11179	 33.44749	  0.64564	108.04961	700.16998	 51.60	
  6.796	-166.229	106.22491	 20.55533	 72.00127	 42.64707	 32.84336	  0.84854	108.08224	700.32001	 51.60	
  6.808	-152.311	106.41816	 22.54450	 70.11499	 37.80295	 32.76265	  0.98571	108.09830	700.35999	 51.70	
  6.795	-138.383	106.70984	 25.92623	 66.71795	 33.79252	 33.25302	  1.12350	108.09190	700.26001	 51.70	
  6.792	-124.591	106.90643	 30.17105	 62.47277	 30.78395	 33.70435	  1.25690	108.12296	700.21997	 51.70	
  6.787	-110.754	107.13759	 34.99325	 57.51097	 28.72321	 33.98882	  1.48384	108.12231	700.32001	 51.70	
  6.800	-96.985	107.23915	 40.25166	 52.32195	 27.48104	 34.47114	  1.51309	108.13278	700.35999	 51.80	
  6.800	-83.015	107.41476	 46.08136	 47.19035	 27.70973	 34.81449	  1.60995	108.08637	700.19000	 51.80	
  6.787	-69.246	107.54149	 51.60261	 41.44513	 29.15439	 35.32454	  1.63766	108.13290	700.21997	 51.80	
  6.792	-55.409	107.53056	 56.63634	 36.79253	 31.74218	 36.28239	  1.68936	108.12758	700.16998	 51.80	
  6.795	-41.617	107.61219	 60.94903	 33.14537	 35.23795	 37.36517	  1.72077	108.16277	700.19000	 51.90	
  6.808	-27.689	107.51663	 64.23623	 30.19837	 39.50435	 38.37177	  1.73843	108.15502	700.34998	 51.90	
  6.796	-13.771	107.43276	 66.15429	 28.32117	 45.38125	 39.04760	  1.59629	108.20314	700.21997	 51.90	
  6.800	  0.000	107.14960	 66.67942	 27.50978	 50.17161	 39.23822	  1.53097	108.17652	700.28998	 51.90	
  6.796	 13.771	106.95013	 65.55355	 27.97520	 55.67608	 39.31018	  1.54920	108.14468	700.28998	 52.00	
  6.808	 27.689	106.79900	 63.17301	 29.62789	 60.83792	 39.37843	  1.44026	108.18948	700.21997	 52.00	
  6.795	 41.617	106.49362	 59.31552	 32.41903	 65.53065	 39.64286	  1.30374	108.11324	700.33002	 52.00	
  6.792	 55.409	106.29875	 54.73645	 36.16833	 69.19536	 39.21749	  1.23241	108.16891	700.22998	 52.10	
  6.787	 69.246	106.12817	 49.82889	 40.55540	 71.65323	 38.71820	  1.07798	108.28527	700.40002	 52.10	
  6.800	 83.015	105.94589	 44.36815	 46.00658	 72.76599	 38.20911	  0.93716	108.23327	700.28003	 52.10	
  6.800	 96.985	105.89619	 38.36187	 51.32553	 72.49054	 37.48019	  0.75849	108.25671	700.40997	 52.10	
  6.787	110.754	105.75626	 33.24218	 56.66101	 70.76441	 37.25545	  0.70118	108.26164	700.28998	 52.20	
  6.792	124.591	105.78067	 28.65244	 61.66154	 67.54984	 36.86816	  0.61004	108.21082	700.21002	 52.20	
  6.795	138.383	105.71116	 24.94011	 65.89320	 63.69996	 36.19015	  0.52691	108.18526	700.37000	 52.20	
  6.808	152.311	105.79968	 21.89557	 69.50414	 58.75322	 35.69681	  0.48766	108.17876	700.27002	 52.20	
  6.796	166.229	105.93223	 20.07316	 71.81731	 53.50769	 35.05222	  0.55324	108.21276	700.26001	 52.30	
  8.491	168.704	104.47517	 13.57627	 76.57555	 52.08294	 34.03463	 -0.36813	108.20119	700.37000	 52.30	
  8.502	157.493	104.37215	 14.61371	 74.82367	 57.52320	 33.41731	 -0.41357	108.30500	700.35999	 52.30	
  8.494	146.194	104.29550	 16.92100	 71.81058	 62.74860	 33.27236	 -0.45574	108.31333	700.29999	 52.30	
  8.495	135.039	104.24135	 20.13605	 67.77341	 67.44828	 33.14734	 -0.35182	108.19994	700.28998	 52.30	
  8.487	123.723	104.22720	 24.60351	 63.30427	 71.47816	 33.37965	 -0.26393	108.24544	700.40002	 52.40	
  8.492	112.575	104.25130	 29.29711	 58.24557	 74.53848	 33.53252	 -0.15765	108.30233	700.27002	 52.40	
  8.510	101.220	104.28024	 34.42345	 52.70071	 76.55824	 33.82481	 -0.08181	108.28660	700.26001	 52.40	
  8.500	 90.000	104.49329	 39.82605	 47.51197	 77.34163	 33.77328	  0.11148	108.30045	700.21002	 52.40	
  8.510	 78.780	104.59664	 45.88538	 41.75490	 77.16657	 34.14911	  0.22340	108.25811	700.25000	 52.40	
  8.492	 67.425	104.74136	 51.43166	 36.94353	 75.75942	 34.95193	  0.20130	108.25147	700.23999	 52.50	
  8.487	 56.277	105.04816	 56.56648	 32.50612	 73.33546	 35.73542	  0.40527	108.27186	700.28998	 52.50	
  8.495	 44.961	105.20750	 61.40473	 28.50595	 69.69799	 37.53055	  0.54563	108.30040	700.29999	 52.50	
  8.494	 33.806	105.53273	 65.47741	 25.23950	 65.34439	 39.55346	  0.72601	108.29602	700.28003	 52.50	
  8.502	 22.507	105.76094	 68.87900	 22.79514	 60.31263	 40.80498	  0.79738	108.35907	700.23999	 52.60	
  8.491	 11.296	105.99277	 70.96674	 21.42583	 54.96782	 41.46642	  0.87438	108.25751	700.22998	 52.60	
  8.500	  0.000	106.21825	 71.88268	 21.01822	 49.38496	 41.79205	  0.86169	108.29356	700.16998	 52.60	
  8.491	-11.296	106.36943	 71.52657	 21.78132	 44.32040	 42.03163	  0.88261	108.27405	700.16998	 52.60	
  8.502	-22.507	106.55792	 69.95599	 23.46167	 38.63507	 41.93143	  0.92211	108.31107	700.17999	 52.60	
  8.494	-33.806	106.68938	 67.17826	 26.08435	 34.10563	 41.60379	  0.97693	108.33659	700.28998	 52.60	
  8.495	-44.961	106.72923	 63.39894	 29.39311	 29.98699	 40.94400	  0.97690	108.31837	700.28998	 52.70	
  8.487	-56.277	106.69415	 58.82557	 33.43228	 26.47237	 40.19434	  0.97476	108.31217	700.38000	 52.70	
  8.492	-67.425	106.60838	 53.62491	 37.81351	 23.78324	 39.80937	  0.97578	108.27307	700.29999	 52.70	
  8.510	-78.780	106.43877	 48.13488	 42.89083	 21.90155	 39.28276	  0.87121	108.22005	700.34998	 52.70	
  8.500	-90.000	106.40213	 42.24200	 48.74393	 21.19839	 38.46630	  0.81803	108.24450	700.34998	 52.70	
  8.510	-101.220	106.26624	 36.61583	 53.99159	 21.54343	 37.50488	  0.78045	108.27947	700.33002	 52.70	
  8.492	-112.575	106.12455	 31.43624	 59.32173	 22.94139	 37.17129	  0.72728	108.32225	700.25000	 52.70	
  8.487	-123.723	105.89053	 26.56194	 64.33604	 25.21891	 36.93197	  0.30731	108.30161	700.34003	 52.70	
  8.495	-135.039	105.68492	 21.95815	 68.85291	 28.33341	 36.64950	  0.44988	108.31259	700.34003	 52.80	
  8.494	-146.194	105.37982	 18.26380	 72.54141	 32.02437	 35.98456	  0.29842	108.23698	700.28998	 52.80	
  8.502	-157.493	105.17999	 15.82681	 75.29748	 36.26501	 35.24675	  0.10150	108.26356	700.31000	 52.80	
  8.491	-168.704	104.95278	 14.38539	 76.81702	 41.09834	 34.62426	 -0.07674	108.27521	700.28003	 52.80	
  8.500	180.000	104.70945	 13.54070	 77.30621	 46.99207	 33.70523	 -0.23057	108.27289	700.41998	 52.80	
 10.200	180.000	102.88651	  7.35833	 81.69299	 44.90025	 32.63994	 -1.19891	108.22792	700.33002	 52.90	
 10.191	-170.497	103.11666	  7.97748	 81.32607	 39.48208	 31.98081	 -1.04399	108.25880	700.37000	 52.90	
 10.210	-161.034	103.41288	  9.17093	 80.08221	 34.80251	 32.07063	 -1.14784	108.32056	700.22998	 52.90	
 10.194	-151.526	103.65495	 11.41186	 77.68205	 30.14935	 32.61707	 -0.66446	108.22784	700.35999	 52.90	
 10.190	-142.105	103.85345	 14.20210	 74.51568	 26.04187	 33.27534	 -0.46304	108.19083	700.41998	 53.00	
 10.215	-132.646	104.07561	 17.70066	 70.44362	 22.18087	 33.79231	 -0.36271	108.21085	700.23999	 53.00	
 10.203	-123.092	104.31030	 22.43405	 65.85319	 19.05796	 34.05914	 -0.74481	108.22705	700.28998	 53.00	
 10.192	-113.678	104.53896	 27.60434	 60.80616	 16.88893	 34.26263	 -0.13163	108.25895	700.31000	 53.00	
 10.208	-104.249	104.76435	 32.94474	 55.41095	 15.38141	 34.23113	 -0.05300	108.29283	700.31000	 53.00	
 10.210	-94.801	104.88315	 38.11300	 50.07919	 14.75679	 34.30172	 -0.09016	108.23103	700.32001	 53.00	
 10.210	-85.199	105.05788	 44.33361	 44.44760	 14.98540	 34.86219	 -0.01601	108.27742	700.31000	 53.00	
 10.208	-75.751	105.63358	 50.30599	 39.44944	 17.75918	 73.32278	  0.32894	108.28152	700.29999	 53.00	
 10.192	-66.322	105.89524	 55.92643	 34.82269	 21.04618	 70.30797	  0.52959	108.23561	700.39001	 53.00	
 10.203	-56.908	105.95795	 61.18288	 30.17054	 23.82824	 67.08498	  0.52165	108.27556	700.34998	 53.00	
 10.215	-47.354	105.92815	 65.87835	 25.87948	 27.19839	 63.18186	  0.25378	108.31396	700.25000	 53.00	
 10.190	-37.895	105.79089	 69.86688	 22.06204	 31.19171	 58.53387	  0.41008	108.31519	700.33002	 53.10	
 10.194	-28.474	105.49497	 72.96383	 18.84906	 35.58130	 53.22264	  0.29092	108.28228	700.34998	 53.10	
 10.210	-18.966	105.24831	 75.16741	 16.61722	 40.08459	 47.81806	  0.18075	108.26702	700.33002	 53.10	
 10.191	 -9.503	104.99895	 76.33073	 15.48096	 45.84452	 41.78278	  0.10062	108.31171	700.26001	 53.10	
 10.200	  0.000	104.58930	 76.44566	 14.76599	 50.82276	 36.43342	  0.00059	108.30049	700.31000	 53.20	
 10.191	  9.503	104.20789	 75.46925	 14.98331	 56.40165	 30.76670	 -0.31514	108.30535	700.28003	 53.20	
 10.210	 18.966	103.83205	 73.60020	 15.90962	 61.63842	 25.26447	 -0.40390	108.31689	700.23999	 53.20	
 10.194	 28.474	103.55103	 70.61062	 17.70653	 66.74817	 19.84743	 -0.51142	108.40512	700.27002	 53.20	
 10.190	 37.895	103.18876	 66.72059	 20.12248	 71.49097	 15.43785	 -1.26835	108.36809	700.35999	 53.50	
 10.215	 47.354	102.84329	 62.39859	 23.30561	 75.76649	 11.73839	 -1.65126	108.40617	700.40002	 53.40	
 10.203	 56.908	102.48251	 57.25465	 27.65084	 78.99764	  8.81599	 -1.02773	108.41287	700.28003	 53.50	
 10.192	 66.322	102.24120	 51.94502	 32.20137	 81.48835	  6.58989	 -1.28117	108.48153	700.34003	 53.50	
 10.208	 75.751	101.92495	 46.51898	 36.97892	 83.02728	  5.07621	 -1.92745	108.41341	700.23999	 53.50	
 10.210	 85.199	101.76057	 40.29587	 42.10939	 83.69792	  4.29766	 -1.37085	108.43784	700.23999	 53.50	
 10.210	 94.801	101.56297	 34.93904	 47.69071	 83.41794	  4.10279	 -1.44764	108.40842	700.16998	 53.50	
 10.208	104.249	101.49451	 29.51826	 53.17121	 82.27143	  4.93522	 -1.49135	108.43725	700.21997	 53.50	
 10.192	113.678	101.51102	 24.17416	 58.71064	 80.09923	  6.63375	 -2.08640	108.43315	700.20001	 53.60	
 10.203	123.092	101.58362	 19.03705	 63.88762	 77.14286	  9.06382	 -1.93024	108.42612	700.31000	 53.60	
 10.215	132.646	101.67204	 15.02811	 68.75045	 73.39541	 12.00340	 -1.80518	108.44160	700.22998	 53.60	
 10.190	142.105	101.91070	 11.94899	 73.13992	 68.72499	 15.52692	 -1.73055	108.55614	700.21002	 53.60	
 10.194	151.526	102.08183	  9.46395	 76.75256	 63.77663	 19.72149	 -2.39549	108.52006	700.28003	 53.60	
 10.210	161.034	102.32699	  7.82068	 79.42470	 58.39434	 25.02893	 -2.30925	108.51350	700.28998	 53.60	
 10.191	170.497	102.61803	  7.16274	 81.07027	 53.01097	 30.62811	 -1.97821	108.46938	700.29999	 53.60	
 11.899	171.783	100.35647	  0.56862	 85.22445	 51.15226	 28.82856	 -3.12490	108.51833	700.25000	 53.70	
 11.890	163.610	 99.98801	  1.20523	 83.64899	 56.34281	 22.85783	 -3.37083	108.42838	700.33002	 53.70	
 11.889	155.445	 99.75860	  2.51440	 81.40161	 61.84375	 18.00055	 -3.57512	108.48371	700.22998	 53.70	
 11.909	147.299	 99.46382	  4.42183	 78.31644	 67.04498	 13.67586	 -3.71348	108.46676	700.22998	 53.70	
 11.902	139.148	 99.32613	  7.05134	 74.46563	 71.95231	  9.69361	 -3.33688	108.46249	700.21002	 53.70	
 11.894	130.867	 99.21331	 10.52084	 69.71248	 76.45995	  6.30412	 -3.37965	108.44748	700.27002	 53.70	
 11.897	122.732	 99.18241	 14.53754	 64.80714	 80.25503	  3.35477	 -3.22892	108.51000	700.29999	 53.70	
 11.903	114.597	 99.03296	 19.40415	 59.54771	 83.23969	  0.82447	 -3.20573	108.47189	700.29999	 53.70	
 11.893	106.346	 99.04659	 24.71957	 53.97485	 85.52895	 -0.90304	 -3.31101	108.48640	700.32001	 53.70	
 11.892	 98.155	 99.12195	 30.32737	 48.49674	 87.09173	 -1.91772	 -3.30420	108.48721	700.31000	 53.70	
 11.900	 90.000	 99.19182	 35.77873	 43.02739	 87.68660	 -1.99923	 -3.03754	108.45454	700.26001	 53.70	
 11.892	 81.845	 99.49344	 41.28525	 37.91723	 87.66242	 -1.41732	 -3.12837	108.44073	700.28003	 53.70	
 11.893	 73.654	 99.71517	 47.37173	 32.73565	 86.70815	 -0.54240	 -3.02973	108.52030	700.31000	 53.70	
 11.903	 65.403	 99.94409	 52.96220	 27.43810	 84.82614	  1.09964	 -2.85417	108.51381	700.38000	 53.70	
 11.897	 57.268	100.21046	 58.38178	 22.86199	 82.28265	  3.27230	 -2.71250	108.47461	700.37000	 53.70	
 11.894	 49.133	100.60371	 63.56087	 19.14942	 79.11290	  6.09828	 -2.68437	108.49190	700.27002	 53.70	
 11.902	 40.852	100.95759	 68.23730	 15.84698	 75.12540	  9.48655	 -2.55326	108.50268	700.32001	 53.70	
 11.909	 32.701	101.32092	 72.38393	 13.26962	 70.40067	 13.54617	 -1.81484	108.49859	700.25000	 53.70	
 11.889	 24.555	101.79384	 75.70470	 11.36661	 65.54121	 18.10692	 -1.68644	108.47682	700.19000	 53.80	
 11.890	 16.390	102.20637	 78.30429	  9.90472	 60.36007	 23.38252	 -1.44113	108.45847	700.25000	 53.80	
 11.899	  8.217	102.62498	 80.17944	  9.08794	 54.94062	 29.33367	 -1.26133	108.51102	700.28998	 53.80	
 11.900	  0.000	103.00954	 81.04675	  9.03456	 49.72218	 35.20102	 -1.03635	108.47983	700.23999	 53.80	
 11.899	 -8.217	103.37685	 81.07449	  9.59520	 44.31407	 40.75722	 -0.90116	108.53521	700.29999	 53.90	
 11.890	-16.390	103.76023	 80.04952	 10.82205	 39.26082	 46.27371	 -0.80443	108.55066	700.28998	 53.90	
 11.889	-24.555	104.03062	 78.15202	 12.48450	 34.30365	 51.91656	 -0.88859	108.51156	700.28998	 53.90	
 11.909	-32.701	104.21946	 75.56949	 14.80637	 29.53195	 57.56984	 -0.67555	108.56202	700.33002	 53.90	
 11.902	-40.852	104.39661	 72.06946	 17.80036	 25.24993	 62.59170	 -0.80020	108.54916	700.35999	 53.80	
 11.894	-49.133	104.47388	 67.64542	 21.59666	 21.28300	 67.12858	 -1.23909	108.49068	700.40997	 53.80	
 11.897	-57.268	104.56662	 62.96681	 26.19775	 17.63135	 71.28240	 -0.48517	108.54215	700.33002	 53.80	
 11.903	-65.403	104.55045	 57.71786	 30.93349	 15.13234	 74.55449	 -0.51890	108.48517	700.33002	 53.80	
 11.893	-73.654	104.55498	 52.19694	 36.00433	 13.24123	 76.84999	 -0.61721	108.54160	700.33002	 53.90	
 11.892	-81.845	104.51985	 46.64864	 41.03770	 12.25342	 78.06687	 -0.57774	108.55180	700.34003	 53.90	
 11.900	-90.000	104.39003	 40.58322	 46.64924	 11.73823	 78.55244	 -0.57569	108.59639	700.28003	 53.90	
 11.892	-98.155	104.14234	 35.13744	 51.98347	 11.75293	 78.00357	 -0.56217	108.53214	700.31000	 53.90	
 11.893	-106.346	103.93924	 29.50689	 57.50457	 12.39610	 76.63239	 -1.07247	108.53800	700.29999	 53.90	
 11.903	-114.597	103.70719	 23.97075	 62.93000	 13.91950	 74.18871	 -1.34920	108.55872	700.31000	 53.90	
 11.897	-122.732	103.45545	 18.50045	 67.92211	 16.12306	 70.84638	 -1.49879	108.57126	700.39001	 53.90	
 11.894	-130.867	103.11534	 14.13122	 72.64455	 18.90362	 66.72769	 -1.04299	108.52527	700.40002	 53.90	
 11.902	-139.148	102.71960	 10.27605	 76.86890	 22.19214	 62.12518	 -1.49190	108.55434	700.28003	 53.90	
 11.909	-147.299	102.39049	  7.05170	 80.32114	 26.31883	 57.16863	 -2.04117	108.62367	700.39001	 53.90	
 11.889	-155.445	101.94878	  4.46596	 82.87830	 30.75370	 51.95520	 -2.42469	108.57326	700.39001	 53.90	
 11.890	-163.610	101.52704	  2.59447	 84.58556	 35.48565	 45.71067	 -2.61289	108.52716	700.29999	 53.90	
 11.899	-171.783	101.11833	  1.27284	 85.68309	 40.39716	 40.16879	 -2.18635	108.52786	700.25000	 53.90	
 11.900	180.000	100.76150	  0.78489	 85.89053	 45.56532	 34.67600	 -2.92472	108.56139	700.25000	 53.90	
 13.600	180.000	 98.13993	 -5.81105	 89.75282	 43.56214	 32.69344	 -3.88521	108.51101	700.42999	 53.90	
 13.608	-172.853	 98.53989	 -5.38181	 89.69410	 38.43103	 38.39588	 -3.73560	108.55998	700.35999	 53.90	
 13.611	-165.583	 98.89301	 -4.21375	 88.83778	 33.31935	 43.69017	 -3.73034	108.58978	700.37000	 53.90	
 13.601	-158.353	 99.32874	 -2.51478	 87.02058	 28.34140	 49.77588	 -3.46419	108.55786	700.46002	 53.90	
 13.609	-151.210	 99.77850	 -0.21034	 84.73797	 23.48106	 55.38692	 -3.14469	108.57564	700.38000	 53.90	
 13.611	-143.999	100.18737	  2.59711	 81.84922	 19.48967	 60.81296	 -2.90033	108.57391	700.41998	 53.90	
 13.601	-136.825	100.48699	  5.88605	 78.16403	 15.96668	 65.71753	 -2.83458	108.51244	700.40997	 53.90	
 13.596	-129.640	100.88754	  9.87642	 73.83628	 12.96894	 70.24361	 -2.74449	108.54265	700.39001	 53.90	
 13.611	-122.431	101.28912	 14.28924	 69.03721	 10.45958	 74.47698	 -2.57908	108.52819	700.40002	 53.90	
 13.604	-115.211	101.58408	 19.11967	 63.88391	  8.44115	 77.72800	 -2.38854	108.54813	700.39001	 53.90	
 13.595	-108.042	101.82764	 24.99649	 58.64486	  6.89464	 80.09130	 -2.25453	108.51819	700.39001	 53.90	
 13.607	-100.793	102.06384	 30.71827	 53.02443	  5.90530	 81.93472	 -1.80611	108.54345	700.37000	 53.90	
 13.601	-93.617	102.38918	 36.48795	 47.68045	  5.68080	 82.93267	 -1.77307	108.63601	700.33002	 53.90	
 13.601	-86.383	103.36965	 42.83875	 42.74017	  8.34398	 81.11755	 -1.15355	108.57117	700.28998	 53.90	
 13.607	-79.207	104.30408	 49.30292	 38.30618	 11.64475	 78.42154	 -0.67716	108.60032	700.22998	 53.90	
 13.595	-71.958	104.51620	 55.13509	 33.25439	 13.86946	 76.03717	 -0.61607	108.54044	700.25000	 53.90	
 13.604	-64.789	104.51853	 60.51452	 28.30426	 15.79469	 73.51571	 -0.61377	108.56481	700.32001	 53.90	
 13.611	-57.569	104.44382	 65.65590	 23.26921	 18.40267	 69.96184	 -0.88373	108.58983	700.21002	 53.90	
 13.596	-50.360	104.13909	 70.42466	 18.68031	 21.83207	 65.80698	 -1.43245	108.53704	700.32001	 53.90	
 13.601	-43.175	103.75686	 74.66982	 14.89000	 25.49630	 61.21740	 -0.96742	108.52492	700.21002	 53.90	
 13.611	-36.001	103.32288	 78.14130	 11.39383	 29.25126	 56.18000	 -1.25653	108.52802	700.21997	 53.90	
 13.609	-28.790	102.86511	 81.07455	  8.68267	 33.64472	 51.02047	 -1.42675	108.55310	700.26001	 53.90	
 13.601	-21.647	102.29336	 83.08570	  6.52979	 38.14481	 45.05362	 -1.61977	108.55730	700.23999	 53.90	
 13.611	-14.417	101.62122	 84.43211	  4.71997	 42.86411	 39.72547	 -1.86295	108.53781	700.34003	 54.00	
 13.608	 -7.147	101.00994	 85.01856	  3.45549	 48.01827	 33.81145	 -2.28896	108.58936	700.28998	 54.00	
 13.600	  0.000	100.22315	 84.59911	  2.72395	 52.70082	 27.49713	 -2.66297	108.53101	700.21997	 54.00	
 13.608	  7.147	 99.53116	 83.56921	  2.51204	 57.97962	 21.15099	 -2.86911	108.57936	700.28003	 54.00	
 13.611	 14.417	 98.75957	 81.77002	  2.82467	 63.26472	 15.58310	 -2.97782	108.58945	700.26001	 54.00	
 13.601	 21.647	 98.03090	 79.13557	  3.82777	 68.40610	 10.48839	 -3.16804	108.58540	700.28003	 54.00	
 13.609	 28.790	 97.34909	 75.89014	  5.37507	 73.28679	  5.89850	 -3.52121	108.53918	700.29999	 54.00	
 13.611	 36.001	 96.73341	 71.81943	  7.49909	 78.08029	  1.62626	 -3.86074	108.60709	700.29999	 54.00	
 13.601	 43.175	 96.05978	 67.23328	 10.08500	 82.11617	 -2.30706	 -4.08807	108.53350	700.33002	 54.00	
 13.596	 50.360	 95.64954	 62.34002	 13.14218	 85.60962	 -5.75373	 -4.30204	108.60403	700.38000	 54.00	
 13.611	 57.569	 95.14273	 56.92434	 16.65294	 88.86848	 -8.70020	 -4.47897	108.61319	700.32001	 54.00	
 13.604	 64.789	 94.75484	 51.38247	 20.89826	 91.29322	-10.75584	 -4.57603	108.57225	700.31000	 54.00	
 13.595	 71.958	 94.61710	 45.65753	 25.64218	 92.85506	-11.99563	 -4.63941	108.56914	700.27002	 54.00	
 13.607	 79.207	 94.28879	 39.77704	 30.65703	 93.95985	-13.23022	 -4.69336	108.53811	700.42999	 54.00	
 13.601	 86.383	 94.15659	 34.10473	 36.30555	 94.38939	-13.69350	 -4.70494	108.58740	700.39001	 54.00	
 13.601	 93.617	 94.04877	 28.69775	 41.40954	 94.23982	-13.96332	 -4.45670	108.61104	700.42999	 54.00	
 13.607	100.793	 93.90684	 23.01140	 46.76278	 93.29903	-13.56406	 -4.46671	108.57864	700.32001	 54.00	
 13.595	108.042	 93.92241	 17.75774	 52.57359	 91.60742	-12.29558	 -4.43756	108.55737	700.40997	 54.00	
 13.604	115.211	 93.98940	 13.13339	 57.98899	 89.31116	-10.62804	 -4.34663	108.60835	700.28998	 54.00	
 13.611	122.431	 94.08000	  8.83698	 63.42490	 86.21404	 -8.42117	 -4.40469	108.53077	700.32001	 54.00	
 13.596	129.640	 94.38647	  5.07023	 68.68297	 82.77484	 -5.49662	 -4.43694	108.62150	700.29999	 54.00	
 13.601	136.825	 94.75334	  1.69220	 73.48180	 78.65308	 -2.13205	 -4.63146	108.59080	700.32001	 54.00	
 13.611	143.999	 95.16860	 -1.06043	 77.97145	 74.01419	  1.76195	 -4.83669	108.63190	700.32001	 54.00	
 13.609	151.210	 95.58228	 -3.18487	 81.67555	 68.96484	  6.15164	 -4.92450	108.60496	700.28998	 54.00	
 13.601	158.353	 96.10232	 -4.89796	 84.63960	 63.85241	 11.03712	 -4.81582	108.62463	700.21997	 54.00	
 13.611	165.583	 96.55170	 -6.03618	 86.98898	 58.42688	 16.09556	 -4.55836	108.60306	700.15002	 54.00	
 13.608	172.853	 97.15276	 -6.48810	 88.65393	 52.91803	 21.47481	 -4.27238	108.60493	700.28998	 54.00	
 15.298	173.587	 94.27335	-13.06325	 92.23266	 50.66678	 19.40059	 -4.73393	108.55434	700.31000	 54.00	
 15.291	167.167	 93.60580	-12.51403	 90.68187	 55.67073	 14.05129	 -4.95647	108.49821	700.34003	 54.10	
 15.307	160.676	 93.04158	-11.34263	 88.57160	 61.09801	  8.90227	 -5.21492	108.60053	700.34998	 54.10	
 15.300	154.261	 92.52242	 -9.98546	 85.71616	 66.40694	  4.06952	 -5.33113	108.59402	700.09998	 54.10	
 15.288	147.854	 92.11803	 -8.09061	 82.36752	 71.50381	 -0.41123	 -5.32739	108.61847	700.23999	 54.10	
 15.293	141.428	 91.61179	 -5.74942	 78.23494	 76.48009	 -4.62104	 -5.17329	108.51827	700.12000	 54.10	
 15.299	134.985	 91.20810	 -2.90161	 73.65596	 81.04521	 -8.23064	 -4.91799	108.61285	700.25000	 54.10	
 15.305	128.583	 90.86674	  0.36359	 68.83022	 85.00800	-11.49452	 -4.85036	108.60107	700.32001	 54.10	
 15.309	122.142	 90.61379	  4.25818	 63.59332	 88.46275	-14.19143	 -4.67696	108.57286	700.21002	 54.10	
 15.304	115.711	 90.48624	  8.61358	 58.05468	 91.61121	-16.51115	 -4.62533	108.63497	700.28003	 54.10	
 15.297	109.291	 90.41905	 13.13402	 52.50636	 93.96605	-18.25104	 -4.65699	108.57011	700.17999	 54.10	
 15.293	102.897	 90.39511	 17.97805	 46.86063	 95.72396	-19.49082	 -4.65767	108.60291	700.20001	 54.10	
 15.293	 96.458	 90.40069	 23.29239	 41.15182	 96.91074	-20.30887	 -4.60828	108.59338	700.15997	 54.10	
 15.300	 90.000	 90.47418	 28.52055	 35.83985	 97.37268	-20.14333	 -4.77812	108.54366	700.19000	 54.10	
 15.293	 83.542	 90.61032	 33.94784	 30.70950	 97.31587	-19.98244	 -5.08368	108.50339	700.28003	 54.10	
 15.293	 77.103	 90.92047	 39.94164	 25.58400	 96.66871	-19.19041	 -5.04483	108.57604	700.23999	 54.10	
 15.297	 70.709	 91.44308	 45.99829	 21.01975	 95.20258	-17.50603	 -4.86798	108.57847	700.23999	 54.10	
 15.304	 64.289	 91.87389	 51.97355	 16.66312	 93.29241	-15.64807	 -5.00334	108.58842	700.29999	 54.20	
 15.309	 57.858	 92.27786	 57.50523	 12.47597	 90.70884	-13.35167	 -4.85513	108.55996	700.21997	 54.20	
 15.305	 51.417	 92.94098	 63.05038	  8.84986	 87.43300	-10.39401	 -4.71406	108.62022	700.28998	 54.20	
 15.299	 45.015	 93.73678	 68.25697	  5.66352	 83.82417	 -6.90690	 -4.54823	108.69770	700.27002	 54.10	
 15.293	 38.572	 94.26172	 72.94614	  2.91441	 79.63802	 -3.11286	 -4.35610	108.58967	700.29999	 54.10	
 15.288	 32.146	 94.88171	 77.20468	  0.59705	 75.14912	  0.86616	 -4.08629	108.62399	700.21997	 54.10	
 15.300	 25.739	 95.48724	 80.86546	 -1.26570	 70.24467	  5.27045	 -3.83012	108.62068	700.23999	 54.10	
 15.307	 19.324	 96.02760	 83.82671	 -2.67012	 65.18330	 10.01217	 -3.63076	108.64359	700.25000	 54.10	
 15.291	 12.833	 96.63751	 86.15488	 -3.44768	 59.93068	 15.27100	 -3.42933	108.64407	700.19000	 54.10	
 15.298	  6.413	 97.32371	 87.83604	 -3.72684	 54.64812	 20.75596	 -3.33055	108.66232	700.31000	 54.10	
 15.300	  0.000	 97.95863	 88.84246	 -3.53689	 49.54967	 26.67398	 -3.33234	108.65303	700.21002	 54.20	
 15.298	 -6.413	 98.50127	 89.11838	 -2.86215	 44.45529	 33.04468	 -3.31570	108.62845	700.34003	 54.10	
 15.291	-12.833	 99.13813	 88.59163	 -1.52857	 39.56707	 39.06851	 -3.17604	108.62105	700.28003	 54.10	
 15.307	-19.324	 99.68375	 87.39654	 -0.03858	 34.64486	 44.71521	 -2.98735	108.66260	700.28998	 54.10	
 15.300	-25.739	100.16364	 85.42520	  2.08711	 29.90351	 50.54417	 -2.88450	108.56284	700.17999	 54.10	
 15.288	-32.146	100.70943	 82.93658	  4.57126	 25.43411	 55.87635	 -2.63993	108.63236	700.31000	 54.10	
 15.293	-38.572	101.05946	 79.74075	  7.29998	 20.85674	 61.22306	 -2.53543	108.57574	700.32001	 54.10	
 15.299	-45.015	101.41983	 75.95880	 10.50930	 16.88769	 66.22932	 -2.37436	108.64143	700.27002	 54.10	
 15.305	-51.417	101.70330	 71.52020	 14.32664	 13.57676	 70.82397	 -2.18799	108.64143	700.26001	 54.10	
 15.309	-57.858	101.88676	 66.60755	 18.55606	 10.75490	 74.99973	 -2.06568	108.57123	700.21002	 54.10	
 15.304	-64.289	102.07871	 61.44619	 23.12766	  8.51868	 78.21774	 -2.04835	108.63803	700.33002	 54.10	
 15.297	-70.709	102.16643	 55.96272	 28.53868	  6.77625	 80.73146	 -1.97808	108.65228	700.33002	 54.10	
 15.293	-77.103	102.11848	 50.41677	 33.75638	  5.51447	 82.59614	 -2.31742	108.64841	700.22998	 54.10	
 15.293	-83.542	102.23208	 44.84930	 39.24857	  5.13082	 83.39207	 -2.26747	108.65582	700.22998	 54.10	
 15.300	-90.000	102.01230	 38.89001	 44.44864	  4.60745	 83.73045	 -1.82588	108.62933	700.34003	 54.10	
 15.293	-96.458	101.81287	 33.22007	 50.23784	  4.56535	 83.24797	 -2.44075	108.61643	700.27002	 54.20	
 15.293	-102.897	101.55863	 27.54324	 55.47047	  5.14152	 82.00275	 -2.45873	108.60154	700.28998	 54.20	
 15.297	-109.291	101.25930	 21.22713	 60.90801	  6.24681	 80.01772	 -2.59392	108.61868	700.23999	 54.20	
 15.304	-115.711	100.94980	 16.01021	 66.27084	  7.71522	 77.49902	 -2.73202	108.71516	700.20001	 54.20	
 15.309	-122.142	100.39725	 11.06073	 71.22239	  9.52416	 73.99702	 -3.01186	108.63172	700.15997	 54.20	
 15.305	-128.583	 99.84671	  6.48717	 76.14093	 11.85820	 69.67798	 -3.14841	108.59093	700.29999	 54.20	
 15.299	-134.985	 99.35575	  2.56746	 80.31824	 14.69954	 65.12690	 -3.22084	108.62089	700.28998	 54.20	
 15.293	-141.428	 98.78088	 -0.40851	 83.91995	 18.01864	 60.10587	 -3.36379	108.63249	700.28998	 54.20	
 15.288	-147.854	 98.14201	 -4.01505	 86.93520	 21.62008	 54.66035	 -3.68065	108.60690	700.12000	 54.20	
 15.300	-154.261	 97.54532	 -6.87371	 89.63164	 25.88358	 48.93000	 -3.99435	108.69186	700.26001	 54.10	
 15.307	-160.676	 96.80893	 -9.15491	 91.52334	 30.64313	 43.02739	 -4.25644	108.63686	700.21002	 54.10	
 15.291	-167.167	 96.16526	-11.05530	 92.68141	 35.60915	 37.42319	 -4.44763	108.61906	700.09998	 54.10	
 15.298	-173.587	 95.60355	-11.99323	 93.19187	 40.38906	 31.40124	 -4.48706	108.55900	700.21002	 54.10	
 15.300	180.000	 95.10719	-13.04072	 93.15824	 45.21058	 25.12536	 -4.60499	108.69139	700.21997	 54.10	
 17.000	180.000	 91.63873	-19.68381	 96.25065	 42.23223	 23.18281	 -4.80076	108.59630	700.21002	 54.10	
 16.990	-174.179	 92.30146	-18.61246	 96.38680	 37.09061	 28.75284	 -4.78737	108.60033	700.21997	 54.10	
 17.009	-168.383	 92.96233	-17.91827	 96.03346	 32.73412	 34.69028	 -4.70754	108.65008	700.37000	 54.10	
 17.000	-162.596	 93.55459	-16.31503	 94.94685	 27.63556	 40.86161	 -4.59580	108.60881	700.16998	 54.20	
 16.990	-156.759	 94.28140	-14.09036	 93.30923	 23.01801	 46.56982	 -4.42363	108.60706	700.21002	 54.20	
 16.995	-150.919	 95.04432	-11.56920	 91.13062	 18.84005	 52.67142	 -4.23226	108.70156	700.22998	 54.20	
 16.988	-145.161	 95.63997	 -7.85512	 88.18025	 15.06922	 58.00734	 -4.09242	108.61246	700.20001	 54.20	
 17.014	-139.343	 96.07233	 -4.70896	 84.84907	 11.50038	 63.38375	 -3.90933	108.57759	700.20001	 54.20	
 17.007	-133.546	 96.73098	 -1.05400	 81.14729	  8.50984	 68.26137	 -3.86105	108.63348	700.22998	 54.20	
 17.001	-127.699	 97.33491	  2.96314	 76.77944	  5.89405	 73.00127	 -3.80030	108.69203	700.34003	 54.20	
 17.006	-121.937	 97.80834	  7.01189	 71.83305	  3.72659	 77.15720	 -3.74841	108.63627	700.28003	 54.20	
 17.002	-116.134	 98.28715	 11.58254	 66.86387	  1.83997	 80.60143	 -3.53035	108.67484	700.33002	 54.20	
 17.001	-110.310	 98.56408	 16.63771	 61.47529	  0.27290	 83.20710	 -3.39933	108.57790	700.28003	 54.20	
 16.988	-104.517	 98.98187	 22.21701	 56.05373	 -0.77990	 85.28562	 -3.28928	108.67008	700.22998	 54.20	
 17.008	-98.662	 99.23486	 28.55732	 50.80284	 -1.55851	 86.83496	 -3.38885	108.67946	700.21002	 54.20	
 16.996	-92.909	 99.41797	 34.17174	 45.23190	 -1.50107	 87.47366	 -3.65407	108.60105	700.28003	 54.20	
 16.996	-87.091	 99.64870	 39.77600	 40.06107	 -1.28922	 87.65176	 -3.19941	108.66154	700.26001	 54.20	
 17.012	-81.253	 99.82114	 45.59501	 34.62224	 -0.67417	 87.04323	 -3.29454	108.71526	700.32001	 54.20	
 16.988	-75.483	 99.86086	 51.39323	 29.13612	  0.51291	 85.54650	 -3.52753	108.66437	700.21002	 54.20	
 17.001	-69.690	100.13821	 57.22506	 23.90569	  2.52237	 83.26848	 -2.96091	108.70148	700.21997	 54.20	
 17.002	-63.866	 99.97794	 62.79482	 19.01218	  4.42505	 80.56177	 -3.32520	108.61053	700.21997	 54.20	
 17.006	-58.063	 99.93668	 68.04866	 14.72194	  6.86371	 77.16747	 -3.16594	108.66033	700.15002	 54.20	
 17.001	-52.301	 99.75390	 72.82108	 10.80574	  9.51596	 73.04502	 -3.23940	108.66685	700.20001	 54.20	
 17.007	-46.454	 99.48679	 77.38889	  7.09568	 12.59928	 68.41699	 -3.18638	108.70146	700.28003	 54.20	
 17.014	-40.657	 99.09674	 81.34125	  3.50805	 16.02237	 63.42544	 -3.31805	108.65747	700.28998	 54.20	
 16.988	-34.839	 98.70467	 84.67702	  0.46113	 19.98147	 58.03720	 -3.28778	108.63181	700.31000	 54.20	
 16.995	-29.081	 98.21913	 87.58030	 -2.25764	 24.33389	 52.80313	 -3.22063	108.69374	700.28998	 54.20	
 16.990	-23.241	 97.52035	 89.80052	 -4.74226	 29.01057	 46.84103	 -3.38354	108.66197	700.23999	 54.20	
 17.000	-17.404	 96.91629	 91.43618	 -6.67161	 33.86992	 41.14167	 -3.56588	108.66589	700.28998	 54.20	
 17.009	-11.617	 96.25531	 92.38805	 -8.11054	 38.54340	 35.28699	 -3.66906	108.68028	700.21002	 54.20	
 16.990	 -5.821	 95.68811	 92.66340	 -9.44022	 43.27179	 28.99907	 -3.69160	108.67149	700.22998	 54.20	
 17.000	  0.000	 94.95966	 92.25439	-10.27358	 48.27978	 23.03275	 -3.71233	108.59747	700.20001	 54.20	
 16.990	  5.821	 94.17690	 91.26987	-10.51468	 53.50743	 17.27596	 -3.79692	108.61227	700.27002	 54.20	
 17.009	 11.617	 93.42458	 89.61662	-10.27331	 58.50544	 11.75539	 -3.89588	108.58973	700.25000	 54.20	
 17.000	 17.404	 92.61665	 87.27827	 -9.58278	 63.74979	  6.52578	 -4.04267	108.59012	700.34998	 54.20	
 16.990	 23.241	 91.93508	 84.51952	 -8.43721	 68.86673	  1.66737	 -4.21717	108.66536	700.28003	 54.20	
 16.995	 29.081	 91.18877	 81.12711	 -6.97323	 73.70269	 -2.88837	 -4.40947	108.67239	700.31000	 54.20	
 16.988	 34.839	 90.46870	 77.08448	 -4.96015	 78.47031	 -7.02234	 -4.59259	108.59579	700.29999	 54.30	
 17.014	 40.657	 89.77428	 72.64247	 -2.71542	 82.87234	-10.99840	 -4.69154	108.71307	700.32001	 54.20	
 17.007	 46.454	 89.14641	 67.68517	  0.20531	 86.67857	-14.43361	 -4.77370	108.64760	700.31000	 54.20	
 17.001	 52.301	 88.52342	 62.34130	  3.44068	 90.36045	-17.63626	 -4.84076	108.66073	700.28003	 54.20	
 17.006	 58.063	 87.94469	 56.90075	  7.01090	 93.46355	-20.33088	 -4.97382	108.69019	700.35999	 54.20	
 17.002	 63.866	 87.40125	 51.12758	 11.11510	 95.99644	-22.69319	 -5.06555	108.68266	700.21002	 54.20	
 17.001	 69.690	 87.02390	 45.26708	 15.47988	 98.03539	-24.60264	 -5.10261	108.75287	700.25000	 54.20	
 16.988	 75.483	 86.58261	 39.28230	 20.25026	 99.40694	-26.03007	 -5.17906	108.62618	700.15002	 54.20	
 17.012	 81.253	 86.23734	 33.10316	 25.11724	100.31083	-27.05229	 -5.24497	108.64655	700.23999	 54.20	
 16.996	 87.091	 86.25483	 27.28672	 30.10784	100.66084	-27.25743	 -5.21008	108.76142	700.13000	 54.20	
 16.996	 92.909	 86.06720	 22.69348	 34.55001	100.37030	-27.48557	 -4.54395	108.66955	700.21002	 54.20	
 17.008	 98.662	 85.94789	 17.70629	 40.26053	 99.60141	-27.35373	 -4.48846	108.63777	700.14001	 54.20	
 16.988	104.517	 86.09489	 12.55867	 46.28430	 98.26650	-26.20415	 -4.52992	108.72188	700.26001	 54.20	
 17.001	110.310	 86.07872	  7.69040	 51.88578	 96.30124	-24.83549	 -4.52540	108.68568	700.20001	 54.20	
 17.002	116.134	 86.17749	  3.09102	 57.67844	 93.87670	-23.06140	 -4.65582	108.66656	700.25000	 54.20	
 17.006	121.937	 86.34847	 -1.07650	 63.06939	 90.79341	-20.72780	 -4.72014	108.63844	700.31000	 54.20	
 17.001	127.699	 86.74930	 -4.77311	 68.40768	 87.29380	-18.03700	 -4.84232	108.71593	700.27002	 54.20	
 17.007	133.546	 87.05743	 -8.03396	 73.41210	 83.46294	-14.94866	 -4.89037	108.71004	700.23999	 54.20	
 17.014	139.343	 87.41289	-10.91862	 78.18723	 79.11058	-11.53633	 -5.14362	108.67348	700.27002	 54.20	
 16.988	145.161	 87.81510	-13.40712	 82.47376	 74.13685	 -7.64577	 -5.33510	108.62085	700.29999	 54.20	
 16.995	150.919	 88.36166	-15.55262	 86.21700	 69.21280	 -3.48720	 -5.32534	108.70171	700.22998	 54.20	
 16.990	156.759	 89.01463	-17.76478	 89.25045	 64.14736	  1.18860	 -5.37527	108.65762	700.28003	 54.30	
 17.000	162.596	 89.57686	-18.91172	 91.99505	 58.77087	  6.17104	 -5.21971	108.70385	700.28003	 54.30	
 17.009	168.383	 90.13370	-19.86717	 94.04408	 53.63296	 11.26431	 -5.05747	108.68049	700.23999	 54.30	
 16.990	174.179	 90.82249	-20.11094	 95.36228	 48.20506	 16.70179	 -4.89691	108.59602	700.13000	 54.30	
 18.709	174.675	 87.01860	-26.56159	 98.35806	 45.00059	 14.29182	 -4.72176	108.65569	700.13000	 54.30	
 18.703	169.441	 86.45214	-26.29269	 97.00497	 50.21478	  8.97275	 -4.68806	108.61503	700.15002	 54.30	
 18.691	164.085	 85.92258	-25.50090	 95.03527	 55.82826	  3.66079	 -4.79136	108.63982	700.12000	 54.30	
 18.706	158.818	 85.36610	-24.59252	 92.65074	 60.90627	 -1.23981	 -4.85072	108.65118	700.21997	 54.30	
 18.695	153.537	 84.87212	-22.97893	 89.59460	 66.15565	 -5.83577	 -4.87373	108.63471	700.16998	 54.30	
 18.704	148.255	 84.32234	-20.38226	 86.21908	 71.13681	-10.13801	 -4.75772	108.61086	700.21997	 54.30	
 18.698	142.952	 83.78368	-18.30604	 82.28316	 76.09001	-14.15513	 -4.73708	108.61273	700.34998	 54.30	
 18.699	137.625	 83.36315	-15.63941	 77.77145	 80.82587	-17.62581	 -4.59009	108.62833	700.15997	 54.30	
 18.705	132.343	 82.89331	-12.74317	 72.97995	 85.04923	-20.76922	 -4.57230	108.60919	700.17999	 54.30	
 18.713	127.067	 82.50657	 -9.58654	 67.87615	 88.78683	-23.68764	 -4.55404	108.59048	700.31000	 54.30	
 18.700	121.794	 82.30019	 -6.04685	 62.58371	 92.32884	-26.39356	 -4.46916	108.61600	700.26001	 54.30	
 18.698	116.504	 82.05875	 -2.03536	 57.08743	 95.31847	-28.75951	 -4.36697	108.58312	700.27002	 54.30	
 18.707	111.165	 81.93947	  2.31768	 51.37548	 97.90318	-30.72160	 -4.25197	108.62815	700.27002	 54.30	
 18.690	105.863	 81.94793	  7.05796	 45.75489	 99.95045	-32.12255	 -4.17965	108.67365	700.26001	 54.30	
 18.696	100.583	 81.91886	 12.04062	 39.68866	101.53067	-33.20305	 -4.08641	108.75306	700.28998	 54.30	
 18.700	 95.309	 81.81744	 17.00722	 33.92753	102.46860	-33.92781	 -4.26076	108.63773	700.17999	 54.30	
 18.700	 90.000	 81.87078	 22.12469	 28.97663	102.91183	-34.30339	 -4.40060	108.65369	700.21997	 54.30	
 18.700	 84.691	 82.03548	 27.10097	 24.17351	102.94626	-33.90380	 -4.73580	108.66737	700.22998	 54.30	
 18.696	 79.417	 82.32030	 32.50596	 19.51831	102.42287	-32.94984	 -4.86580	108.67136	700.29999	 54.30	
 18.690	 74.137	 82.66496	 38.62961	 14.81354	101.41889	-31.79141	 -4.72667	108.68353	700.31000	 54.30	
 18.707	 68.835	 82.92107	 44.76676	 10.11265	 99.88960	-30.37873	 -4.71215	108.66209	700.26001	 54.30	
 18.698	 63.496	 83.39468	 50.73474	  5.98718	 97.72504	-28.23799	 -4.49199	108.66141	700.28003	 54.30	
 18.700	 58.206	 83.94189	 56.53903	  2.16761	 95.19823	-25.96869	 -4.38359	108.67458	700.27002	 54.30	
 18.713	 52.933	 84.36936	 61.90508	 -1.44956	 92.13316	-23.35372	 -4.45628	108.57150	700.22998	 54.30	
 18.705	 47.657	 85.06532	 67.37618	 -4.67654	 88.63508	-20.36202	 -4.43972	108.67191	700.23999	 54.30	
 18.699	 42.375	 85.81575	 72.43961	 -7.36487	 84.93671	-16.95290	 -4.43518	108.66962	700.23999	 54.30	
 18.698	 37.048	 86.42504	 77.09198	 -9.82823	 80.70042	-13.33898	 -4.39084	108.65494	700.21002	 54.30	
 18.704	 31.745	 86.98044	 81.25535	-11.90377	 75.85083	 -9.36223	 -4.24330	108.54119	700.23999	 54.30	
 18.695	 26.463	 87.70810	 84.96508	-13.67105	 70.98898	 -5.07197	 -4.21165	108.51408	700.26001	 54.30	
 18.706	 21.182	 88.50706	 88.26408	-15.13657	 66.05581	 -0.57764	 -4.13418	108.61726	700.29999	 54.30	
 18.691	 15.915	 89.33240	 90.98005	-16.07776	 60.97424	  4.34339	 -4.06111	108.65542	700.28003	 54.30	
 18.703	 10.559	 90.04719	 93.11121	-16.77704	 55.87209	  9.60210	 -3.91697	108.64052	700.27002	 54.30	
 18.709	  5.325	 90.73486	 94.67905	-17.08388	 50.71320	 14.98250	 -3.78144	108.66584	700.19000	 54.30	
 18.700	  0.000	 91.48739	 95.63474	-16.85104	 45.50276	 20.75168	 -3.72413	108.62814	700.26001	 54.30	
 18.709	 -5.325	 92.22068	 96.05365	-16.07431	 40.32331	 26.64307	 -3.59795	108.67638	700.21002	 54.30	
 18.703	-10.559	 93.00259	 95.81184	-14.67359	 35.78470	 32.36472	 -3.73659	108.68703	700.21997	 54.30	
 18.691	-15.915	 93.77683	 95.01401	-13.46497	 30.86763	 38.51853	 -3.79262	108.65831	700.19000	 54.30	
 18.706	-21.182	 94.38724	 93.64608	-11.79541	 25.87569	 44.43915	 -3.72447	108.65960	700.28998	 54.30	
 18.695	-26.463	 95.03024	 91.64526	 -9.59334	 21.39368	 50.18808	 -3.54599	108.63010	700.26001	 54.30	
 18.704	-31.745	 95.56213	 89.08657	 -7.16108	 17.19794	 55.94256	 -3.43889	108.64906	700.17999	 54.30	
 18.698	-37.048	 96.03100	 85.98593	 -4.33132	 13.17199	 61.39346	 -3.42333	108.64657	700.22998	 54.30	
 18.699	-42.375	 96.42821	 82.40268	 -0.97502	  9.61076	 66.64995	 -3.51538	108.65226	700.26001	 54.30	
 18.705	-47.657	 96.71313	 78.26631	  2.54289	  6.28820	 71.43059	 -3.65914	108.65901	700.26001	 54.30	
 18.713	-52.933	 96.96178	 73.63107	  6.42289	  3.38729	 76.10366	 -3.85929	108.61787	700.25000	 54.30	
 18.700	-58.206	 97.18239	 68.72021	 10.57379	  0.84890	 80.05757	 -3.92325	108.67779	700.28998	 54.30	
 18.698	-63.496	 97.26541	 63.42726	 14.92314	 -1.43388	 83.28888	 -3.92077	108.60877	700.21997	 54.30	
 18.707	-68.835	 97.37534	 57.85813	 19.39784	 -3.41893	 85.91263	 -4.00391	108.61989	700.15002	 54.30	
 18.690	-74.137	 97.51467	 52.25766	 24.44557	 -4.66225	 88.10275	 -3.99933	108.65776	700.20001	 54.30	
 18.696	-79.417	 97.49405	 46.47582	 29.77250	 -5.79038	 89.74854	 -4.25640	108.64051	700.33002	 54.30	
 18.700	-84.691	 97.39408	 40.74312	 35.39941	 -6.59522	 90.61736	 -4.43674	108.66543	700.33002	 54.30	
 18.700	-90.000	 97.26924	 35.15041	 40.80009	 -6.81541	 90.88841	 -4.36451	108.61088	700.29999	 54.30	
 18.700	-95.309	 96.99359	 29.47956	 45.82127	 -6.82897	 90.42869	 -4.00913	108.60638	700.37000	 54.40	
 18.696	-100.583	 96.79486	 23.44361	 51.23314	 -6.70178	 89.46593	 -3.83784	108.59113	700.32001	 54.40	
 18.690	-105.863	 96.46357	 17.85256	 56.61704	 -5.95951	 87.70013	 -3.77830	108.66998	700.31000	 54.40	
 18.707	-111.165	 96.12907	 12.78728	 62.04300	 -5.02687	 85.43490	 -3.74928	108.63680	700.17999	 54.40	
 18.698	-116.504	 95.81540	  7.80426	 67.38221	 -3.56907	 82.75539	 -3.94494	108.62760	700.28998	 54.40	
 18.700	-121.794	 95.26874	  3.33400	 72.36415	 -1.88265	 79.49453	 -4.00385	108.67448	700.28003	 54.40	
 18.713	-127.067	 94.85156	 -1.07985	 77.33765	  0.42821	 75.25832	 -4.07052	108.67584	700.33002	 54.40	
 18.705	-132.343	 94.25241	 -5.10356	 81.73702	  2.95487	 70.53830	 -4.09558	108.67946	700.29999	 54.40	
 18.699	-137.625	 93.55972	 -8.81244	 85.59467	  5.86549	 65.69833	 -4.10223	108.65218	700.37000	 54.40	
 18.698	-142.952	 92.87496	-12.10954	 89.05925	  9.14756	 60.39169	 -4.18380	108.65123	700.31000	 54.40	
 18.704	-148.255	 92.14309	-16.10633	 92.15800	 12.69326	 55.12352	 -4.15838	108.68324	700.28003	 54.40	
 18.695	-153.537	 91.44008	-18.78239	 94.66779	 16.72183	 49.06087	 -4.20916	108.58048	700.22998	 54.40	
 18.706	-158.818	 90.70741	-21.02127	 96.62719	 20.82951	 43.42819	 -4.31991	108.66415	700.27002	 54.40	
 18.691	-164.085	 89.97995	-22.84423	 98.00003	 25.34565	 37.22901	 -4.42637	108.60753	700.23999	 54.40	
 18.703	-169.441	 89.27763	-24.12189	 98.95446	 30.02892	 30.54891	 -4.48775	108.63801	700.31000	 54.40	
 18.709	-174.675	 88.53114	-25.37459	 99.26335	 34.49831	 25.61390	 -4.52341	108.65540	700.28003	 54.40	
 18.700	180.000	 87.73415	-26.21454	 99.00345	 39.71380	 19.88093	 -4.47514	108.61546	700.35999	 54.40	
 20.400	180.000	 83.86405	-32.37194	101.59133	 35.96351	 17.29638	 -4.23870	108.67454	700.15997	 54.40	
 20.401	-175.153	 84.60185	-31.56307	101.80383	 31.82011	 21.83986	 -4.05824	108.68626	700.33002	 54.40	
 20.407	-170.264	 85.27618	-30.62917	101.48176	 27.13457	 27.46082	 -3.92890	108.62642	700.21997	 54.40	
 20.410	-165.423	 85.93063	-29.25170	100.77630	 22.39885	 33.44485	 -3.95910	108.62144	700.23999	 54.40	
 20.392	-160.496	 86.54708	-27.57653	 99.43787	 17.80920	 40.24974	 -3.97497	108.59116	700.38000	 54.40	
 20.401	-155.705	 87.33076	-25.54873	 97.71861	 13.72849	 46.22817	 -3.97322	108.60999	700.33002	 54.40	
 20.405	-150.835	 88.12178	-23.18326	 95.45276	  9.76208	 51.95529	 -3.98293	108.63101	700.28998	 54.40	
 20.397	-145.903	 88.93246	-20.33379	 92.64320	  6.07354	 57.88338	 -4.02469	108.63365	700.27002	 54.40	
 20.392	-141.062	 89.59581	-16.25058	 89.33308	  2.74497	 63.21787	 -4.07290	108.63434	700.28998	 54.40	
 20.396	-136.227	 90.17982	-12.95411	 85.82646	 -0.30574	 68.26213	 -4.15325	108.56850	700.28003	 54.40	
 20.408	-131.372	 90.89505	 -9.25864	 81.79890	 -2.95817	 73.06996	 -4.15760	108.61446	700.28998	 54.40	
 20.410	-126.511	 91.50555	 -5.25820	 77.30113	 -5.37117	 77.82420	 -4.15675	108.63351	700.16998	 54.40	
 20.400	-121.604	 92.00814	 -0.95030	 72.34080	 -7.57719	 81.83026	 -4.17053	108.62172	700.31000	 54.40	
 20.403	-116.741	 92.48985	  3.69346	 67.36004	 -9.37560	 85.09455	 -4.09209	108.59667	700.16998	 54.40	
 20.413	-111.900	 92.99971	  8.52977	 62.12468	-10.95389	 88.04665	 -4.03441	108.64750	700.19000	 54.40	
 20.398	-107.004	 93.36153	 13.46789	 56.71102	-12.08207	 90.50587	 -4.01109	108.58624	700.19000	 54.40	
 20.394	-102.132	 93.74493	 18.66057	 51.22544	-12.82858	 92.32655	 -4.09799	108.62973	700.25000	 54.40	
 20.403	-97.332	 94.00121	 24.11365	 45.70508	-13.40708	 93.58680	 -4.26887	108.63190	700.20001	 54.40	
 20.392	-92.440	 94.22996	 29.59880	 41.00126	-13.23374	 94.19524	 -4.83354	108.63250	700.27002	 54.40	
 20.392	-87.560	 94.35443	 35.27085	 35.60891	-13.23781	 94.29288	 -5.05436	108.62827	700.13000	 54.40	
 20.403	-82.668	 94.44544	 41.04572	 29.87670	-12.77996	 93.78197	 -5.01253	108.61214	700.15002	 54.40	
 20.394	-77.868	 94.59409	 46.69023	 24.76772	-11.95724	 92.71044	 -4.84597	108.64381	700.15002	 54.40	
 20.398	-72.996	 94.51846	 52.62746	 19.93105	-10.77724	 90.92949	 -4.60065	108.56651	700.15997	 54.50	
 20.413	-68.100	 94.54546	 58.42086	 14.99788	 -9.20678	 88.52504	 -4.50544	108.63897	700.25000	 54.50	
 20.403	-63.259	 94.83432	 64.18752	 10.66609	 -6.34129	 85.08107	 -4.23213	108.55479	700.19000	 54.50	
 20.400	-58.396	 94.86459	 69.50578	  6.33536	 -3.97430	 81.97276	 -4.19351	108.71115	700.21997	 54.50	
 20.410	-53.489	 94.56460	 74.48592	  2.24520	 -1.38086	 77.86823	 -4.06831	108.60537	700.22998	 54.40	
 20.408	-48.628	 94.18304	 79.08888	 -1.65218	  1.38775	 73.21912	 -3.88394	108.55315	700.19000	 54.40	
 20.396	-43.773	 93.88676	 83.25715	 -5.11184	  4.61593	 68.46590	 -3.76780	108.62315	700.25000	 54.40	
 20.392	-38.938	 93.37756	 86.89484	 -8.39203	  8.03259	 63.31022	 -3.63016	108.56316	700.16998	 54.40	
 20.397	-34.097	 92.81425	 90.29399	-11.33385	 11.72584	 57.86308	 -3.60001	108.66199	700.16998	 54.50	
 20.405	-29.165	 92.15615	 93.10339	-14.02637	 15.79941	 52.09678	 -3.67357	108.62375	700.25000	 54.40	
 20.401	-24.295	 91.51373	 95.40010	-16.46030	 20.08059	 46.29083	 -3.77422	108.66898	700.26001	 54.40	
 20.392	-19.504	 90.77254	 97.05159	-18.49677	 24.42871	 40.26516	 -3.85482	108.62721	700.22998	 54.40	
 20.410	-14.577	 89.89226	 98.22845	-20.20990	 29.10755	 33.72177	 -3.90306	108.62730	700.25000	 54.40	
 20.407	 -9.736	 89.09938	 98.75914	-21.28857	 33.53732	 28.29659	 -3.80094	108.62970	700.34998	 54.40	
 20.401	 -4.847	 88.21197	 98.85716	-22.78525	 38.26584	 22.76474	 -3.73555	108.64262	700.21002	 54.40	
 20.400	  0.000	 87.47171	 98.42865	-23.41636	 43.44458	 17.10168	 -3.78134	108.63503	700.29999	 54.40	
 20.401	  4.847	 86.62315	 97.34675	-23.69644	 48.54538	 11.34905	 -3.87900	108.56292	700.21002	 54.40	
 20.407	  9.736	 85.81767	 95.79035	-23.55542	 53.68896	  5.78459	 -3.94662	108.56342	700.15002	 54.40	
 20.410	 14.577	 85.10722	 93.82025	-22.90421	 58.71935	  0.69111	 -4.10072	108.67771	700.15997	 54.40	
 20.392	 19.504	 84.36399	 91.13863	-21.83754	 63.87817	 -4.13578	 -4.22074	108.64089	700.13000	 54.40	
 20.401	 24.295	 83.61180	 88.15730	-20.63408	 68.71523	 -8.45595	 -4.16215	108.60767	700.08002	 54.40	
 20.405	 29.165	 82.84921	 84.63929	-19.13714	 73.61109	-12.67202	 -4.22434	108.66244	700.15997	 54.40	
 20.397	 34.097	 82.10312	 80.59956	-17.33333	 78.42149	-16.66277	 -4.21828	108.71670	700.25000	 54.40	
 20.392	 38.938	 81.36029	 76.05861	-15.17162	 82.78706	-20.26239	 -4.21474	108.61723	700.25000	 54.40	
 20.396	 43.773	 80.69235	 71.29678	-12.82868	 86.79391	-23.60581	 -4.17992	108.62991	700.09003	 54.40	
 20.408	 48.628	 79.92523	 66.11609	-10.13257	 90.47240	-26.86829	 -4.18520	108.57320	700.21997	 54.40	
 20.410	 53.489	 79.38824	 60.74569	 -6.95774	 93.99373	-29.71944	 -3.99491	108.62556	700.25000	 54.50	
 20.400	 58.396	 78.76529	 55.07513	 -3.51958	 96.95921	-32.26936	 -3.93628	108.61701	700.33002	 54.50	
 20.403	 63.259	 78.52122	 49.26365	  0.23090	 99.51962	-34.52375	 -4.02833	108.61565	700.23999	 54.50	
 20.413	 68.100	 78.05392	 43.32280	  4.20867	101.65495	-36.50222	 -4.14297	108.64566	700.27002	 54.50	
 20.398	 72.996	 77.63842	 37.01189	  8.63472	103.23502	-38.12516	 -4.20661	108.62929	700.22998	 54.50	
 20.394	 77.868	 77.27758	 31.07318	 13.23629	104.34076	-39.40887	 -4.20219	108.61382	700.23999	 54.50	
 20.403	 82.668	 76.89993	 25.38621	 17.81262	105.02809	-40.52239	 -4.38958	108.64568	700.21997	 54.50	
 20.392	 87.560	 76.67271	 19.61678	 22.87638	105.16903	-41.08184	 -4.46000	108.59059	700.22998	 54.40	
 20.392	 92.440	 76.54034	 15.45984	 26.88862	104.99282	-41.28896	 -3.90793	108.57970	700.20001	 54.40	
 20.403	 97.332	 76.55350	 10.60421	 32.29145	104.40729	-40.74417	 -3.64450	108.68898	700.22998	 54.40	
 20.394	102.132	 76.61387	  5.64044	 37.72738	103.30710	-39.70876	 -3.71963	108.64174	700.22998	 54.40	
 20.398	107.004	 76.71981	  0.82733	 43.79411	101.67945	-38.57771	 -3.80689	108.61684	700.19000	 54.40	
 20.413	111.900	 76.89812	 -3.63389	 49.74389	 99.60509	-37.07467	 -3.87632	108.71320	700.20001	 54.40	
 20.403	116.741	 77.04391	 -7.77460	 55.35701	 96.98993	-35.23311	 -3.99120	108.65605	700.19000	 54.40	
 20.400	121.604	 77.36651	-11.46138	 61.04876	 94.04399	-33.09121	 -4.04797	108.62692	700.25000	 54.40	
 20.410	126.511	 77.64061	-14.90430	 66.35783	 90.54399	-30.47733	 -4.04801	108.61390	700.21997	 54.40	
 20.408	131.372	 77.99856	-17.95023	 71.57277	 86.88303	-27.62612	 -4.05173	108.63377	700.19000	 54.40	
 20.396	136.227	 78.41200	-20.67314	 76.40689	 82.82217	-24.70740	 -4.08417	108.64324	700.28003	 54.40	
 20.392	141.062	 78.74378	-23.01270	 81.07265	 78.32241	-21.29048	 -4.06702	108.61916	700.32001	 54.40	
 20.397	145.903	 79.19122	-25.10679	 85.21216	 73.54574	-17.62847	 -4.04213	108.65873	700.32001	 54.40	
 20.405	150.835	 79.73397	-27.04710	 88.97689	 68.51798	-13.62164	 -4.22915	108.60835	700.22998	 54.40	
 20.401	155.705	 80.36412	-29.08982	 92.34973	 63.38806	 -9.30376	 -4.19721	108.66341	700.21002	 54.40	
 20.392	160.496	 80.89361	-30.78572	 95.07992	 58.34740	 -4.85076	 -4.15192	108.55968	700.28998	 54.40	
 20.410	165.423	 81.51362	-31.73060	 97.49229	 52.92598	  0.08067	 -4.16729	108.62104	700.27002	 54.40	
 20.407	170.264	 82.20272	-32.41265	 99.36495	 47.63030	  5.24037	 -4.25345	108.63352	700.29999	 54.40	
 20.401	175.153	 82.81872	-32.67289	100.64142	 42.27126	 10.54907	 -4.14258	108.55512	700.28998	 54.40	
  0.141	 45.000	108.60943	 44.09509	 50.76999	 60.81650	 33.56679	  2.29583	108.62212	700.35999	 54.40	
  4.001	128.691	106.47584	 33.29557	 57.45409	 69.47162	 22.47411	  0.82947	108.58859	700.34998	 54.40	
  4.002	 76.995	106.50658	 44.81407	 45.97346	 72.81033	 19.52843	  0.97408	108.65601	700.42999	 54.40	
  4.002	 25.892	107.50738	 54.92333	 37.60880	 66.31867	 27.07863	  1.63840	108.60126	700.40002	 54.40	
  4.002	-25.892	108.68047	 56.41458	 38.85058	 54.99032	 39.13940	  2.46176	108.57471	700.37000	 54.40	
  4.002	-76.995	108.88432	 47.59837	 48.82026	 47.58435	 47.52372	  2.62418	108.58064	700.32001	 54.40	
  4.001	-128.691	108.50327	 35.33860	 59.62128	 49.15720	 44.34878	  2.08278	108.60417	700.33002	 54.40	
  4.000	180.000	107.43913	 29.46038	 63.74339	 58.85444	 33.29428	  1.25429	108.58856	700.41998	 54.40	
  8.000	180.000	104.69580	 14.39878	 75.58276	 55.93491	 31.30840	 -0.46410	108.57409	700.34998	 54.40	
  7.991	-152.370	106.37283	 18.68812	 73.78340	 45.04168	 44.12691	  0.45983	108.65480	700.26001	 54.40	
  7.997	-124.550	107.68021	 28.02380	 65.68272	 36.45303	 55.35036	  1.39864	108.61459	700.33002	 54.40	
  8.006	-96.837	108.49325	 40.57346	 53.83514	 33.31459	 60.78471	  1.99788	108.62833	700.41998	 54.40	
  7.988	-69.228	108.59570	 53.76107	 41.09343	 35.22824	 58.92935	  2.16587	108.59296	700.21997	 54.50	
  7.997	-41.563	108.08464	 64.23312	 30.83590	 42.53959	 50.43640	  1.80691	108.58083	700.23999	 54.50	
  8.008	-13.821	106.77929	 69.57877	 23.84368	 52.61049	 37.65325	  1.02862	108.54405	700.35999	 54.50	
  8.008	 13.821	105.27588	 67.80591	 22.37328	 64.82984	 24.47299	  0.35794	108.59587	700.29999	 54.40	
  7.997	 41.563	103.76330	 59.78442	 27.20165	 75.69556	 13.03734	 -0.95851	108.58485	700.21002	 54.40	
  7.988	 69.228	102.57475	 47.91678	 36.31778	 82.08619	  6.48262	 -1.70711	108.59219	700.21002	 54.40	
  8.006	 96.837	102.04973	 34.83234	 48.34893	 82.95520	  4.96729	 -1.71161	108.59216	700.33002	 54.40	
  7.997	124.550	102.36505	 22.89692	 60.87223	 78.03749	  9.22150	 -1.53837	108.63004	700.39001	 54.40	
  7.991	152.370	103.38583	 15.78489	 70.81495	 68.08502	 18.13131	 -1.09344	108.59127	700.46997	 54.40	
 12.009	161.059	 98.41290	 -0.22968	 82.16193	 63.87407	 14.40159	 -4.19744	108.64451	700.40002	 54.40	
 12.013	142.081	 97.09807	  4.14600	 74.16022	 75.74596	  3.38635	 -4.25975	108.69342	700.35999	 54.40	
 12.006	123.113	 96.15211	 12.35103	 62.65428	 84.86829	 -4.63806	 -4.00879	108.57549	700.40002	 54.40	
 12.007	104.200	 95.94087	 23.22223	 49.77660	 90.82378	 -9.27106	 -4.19857	108.65756	700.27002	 54.40	
 11.989	 85.301	 96.08802	 36.17773	 37.36991	 92.35252	 -9.70994	 -4.40900	108.59463	700.28003	 54.40	
 12.013	 66.294	 96.64329	 49.79186	 25.26163	 89.83874	 -7.00131	 -4.18772	108.54236	700.33002	 54.40	
 12.012	 47.388	 97.94672	 62.56206	 16.15273	 83.21848	 -0.64841	 -3.68359	108.57312	700.40002	 54.40	
 11.990	 28.440	 99.57579	 72.70306	 10.44799	 73.43317	  8.82506	 -2.96797	108.56603	700.37000	 54.40	
 11.991	  9.464	101.48646	 79.12325	  8.24149	 61.61424	 20.86968	 -1.71765	108.61163	700.41998	 54.40	
 11.991	 -9.464	103.23615	 80.89517	  9.31016	 49.71058	 35.41911	 -0.95670	108.57148	700.25000	 54.40	
 11.990	-28.440	104.67220	 77.59715	 13.65539	 38.39601	 48.83850	 -0.32102	108.59495	700.25000	 54.40	
 12.012	-47.388	105.67818	 69.91326	 21.52961	 29.04520	 60.53102	  0.12175	108.56147	700.22998	 54.40	
 12.013	-66.294	106.15400	 58.49901	 32.59064	 22.02030	 69.28555	  0.41764	108.56867	700.28003	 54.40	
 11.989	-85.301	106.17729	 45.44718	 44.95618	 18.46464	 73.31642	  0.39367	108.58227	700.32001	 54.40	
 12.007	-104.200	105.73749	 31.94037	 57.82024	 18.95308	 71.79514	  0.24894	108.60146	700.34003	 54.40	
 12.006	-123.113	104.82683	 19.03476	 69.76440	 23.16661	 64.95943	 -0.27773	108.63709	700.34998	 54.40	
 12.013	-142.081	103.42477	  9.46144	 79.31516	 30.41805	 54.45942	 -1.35765	108.60142	700.40002	 54.40	
 12.009	-161.059	101.74657	  2.82191	 84.70570	 40.07658	 41.17350	 -1.98755	108.61844	700.33002	 54.40	
 16.000	180.000	 93.36847	-16.22333	 94.23203	 45.60925	 22.48796	 -4.66138	108.55638	700.23999	 54.40	
 15.990	-165.604	 95.15672	-13.37853	 93.75346	 34.65417	 36.58410	 -4.49639	108.57730	700.32001	 54.40	
 16.002	-151.165	 96.89547	 -7.92635	 89.87560	 23.59258	 50.22442	 -4.02609	108.63692	700.32001	 54.40	
 16.002	-136.836	 98.55956	  0.00422	 82.69763	 15.28467	 62.95486	 -3.37324	108.61099	700.28998	 54.40	
 15.995	-122.439	 99.94988	  9.43775	 72.44382	  9.28475	 73.47164	 -3.10515	108.56511	700.25000	 54.40	
 15.993	-107.966	101.11436	 21.46010	 60.29018	  5.53549	 80.71781	 -2.58680	108.63625	700.40002	 54.40	
 16.005	-93.629	101.80640	 35.46160	 47.74577	  4.01870	 83.89396	 -2.47138	108.66109	700.37000	 54.40	
 15.992	-79.234	102.07314	 48.89757	 35.09075	  5.17898	 82.98878	 -2.08254	108.60912	700.35999	 54.40	
 16.009	-64.774	101.92021	 61.96281	 22.43717	  8.37679	 78.12677	 -2.08373	108.60841	700.34998	 54.40	
 15.997	-50.364	101.41703	 73.64165	 12.31896	 14.54340	 69.09004	 -2.47387	108.57954	700.38000	 54.40	
 15.997	-36.045	100.38726	 82.66446	  4.31246	 23.21500	 57.54823	 -2.75550	108.59412	700.39001	 54.40	
 16.000	-21.597	 98.92263	 88.36040	 -1.75095	 33.76350	 44.40985	 -3.19212	108.55301	700.34998	 54.40	
 16.003	 -7.169	 97.21296	 90.45684	 -5.60656	 44.80724	 30.44257	 -3.55447	108.55850	700.34003	 54.40	
 16.003	  7.169	 95.55702	 88.73180	 -6.93253	 56.48994	 16.39636	 -3.69971	108.57928	700.35999	 54.40	
 16.000	 21.597	 93.73570	 83.34583	 -5.49720	 68.62750	  4.03152	 -4.10684	108.58894	700.42999	 54.40	
 15.997	 36.045	 91.90953	 74.67303	 -1.49964	 79.81425	 -6.26930	 -4.63251	108.61501	700.41998	 54.40	
 15.997	 50.364	 90.25661	 63.20123	  5.00777	 88.86184	-14.67568	 -4.91311	108.59062	700.28003	 54.40	
 16.009	 64.774	 88.89191	 50.10387	 13.87953	 95.42787	-20.75443	 -5.08736	108.56472	700.28998	 54.40	
 15.992	 79.234	 87.99251	 36.10457	 24.92907	 98.94427	-24.14965	 -5.28652	108.58527	700.28003	 54.40	
 16.005	 93.629	 87.49955	 23.50058	 36.12678	 99.21899	-25.06902	 -4.50111	108.56716	700.35999	 54.40	
 15.993	107.966	 87.51318	 11.69200	 49.77134	 96.15696	-23.06340	 -4.60131	108.54830	700.33002	 54.40	
 15.995	122.439	 88.03202	  1.24275	 62.93719	 90.07150	-18.39778	 -4.66537	108.62016	700.40002	 54.40	
 16.002	136.836	 88.92646	 -6.70500	 74.82763	 81.22073	-11.21671	 -4.93123	108.59187	700.42999	 54.40	
 16.002	151.165	 90.05421	-12.33440	 84.57566	 69.89867	 -1.96536	 -5.37525	108.51760	700.32001	 54.40	
 15.990	165.604	 91.74085	-15.64465	 91.10419	 57.78690	  9.77842	 -5.09480	108.58653	700.33002	 54.40	
 20.003	168.362	 82.98712	-30.85732	 98.14702	 50.26041	  4.12387	 -4.38496	108.62011	700.29999	 54.40	
 20.008	156.764	 81.46747	-28.47164	 92.53722	 62.50011	 -7.31827	 -4.30073	108.55601	700.34003	 54.40	
 20.000	145.147	 80.22443	-23.48144	 84.34185	 74.34958	-17.05341	 -4.27914	108.62301	700.34003	 54.40	
 19.995	133.545	 79.14371	-17.73409	 73.75195	 85.00322	-24.89448	 -4.18255	108.59933	700.29999	 54.40	
 20.009	121.926	 78.49762	-10.47269	 61.63839	 93.55635	-31.60438	 -4.08147	108.61990	700.31000	 54.40	
 20.005	110.327	 77.93657	 -1.08142	 48.40285	 99.82929	-36.19489	 -3.88061	108.56612	700.42999	 54.40	
 19.989	 98.733	 77.55961	 10.11802	 34.54631	103.58323	-38.94343	 -3.84833	108.54481	700.31000	 54.40	
 19.999	 87.075	 77.82023	 21.20006	 23.14805	104.68583	-39.60941	 -4.55688	108.53594	700.40997	 54.40	
 19.992	 75.457	 78.56125	 34.60051	 11.92772	103.43839	-37.47237	 -4.38131	108.61241	700.32001	 54.40	
 20.009	 63.844	 79.13892	 48.97197	  1.80774	 99.43652	-33.48426	 -4.12842	108.58807	700.40002	 54.40	
 19.989	 52.269	 80.58065	 62.17515	 -6.45210	 92.89646	-27.77508	 -4.14664	108.55754	700.27002	 54.40	
 19.999	 40.602	 81.99284	 74.25873	-13.20881	 84.05730	-20.41047	 -4.48668	108.51238	700.32001	 54.40	
 20.004	 29.051	 83.94625	 84.38701	-17.68467	 73.63415	-11.37811	 -4.23402	108.54173	700.33002	 54.40	
 20.005	 17.433	 85.68875	 91.77581	-20.75940	 62.06158	 -1.03215	 -4.14502	108.57897	700.25000	 54.50	
 20.006	  5.780	 87.52601	 96.47366	-22.00449	 50.09254	 11.25914	 -3.88908	108.58627	700.27002	 54.50	
 20.006	 -5.780	 89.46619	 98.14430	-20.87355	 38.01910	 24.73823	 -3.77007	108.59747	700.27002	 54.50	
 20.005	-17.433	 91.25030	 96.91489	-17.79206	 27.04375	 38.24673	 -3.90938	108.62238	700.37000	 54.50	
 20.004	-29.051	 92.88249	 92.53196	-12.78151	 16.74824	 52.17292	 -3.67333	108.58871	700.22998	 54.50	
 19.999	-40.602	 94.22424	 85.28940	 -6.17329	  7.93571	 64.82547	 -3.67893	108.54851	700.25000	 54.50	
 19.989	-52.269	 95.19832	 75.49986	  2.31010	  0.58773	 76.24603	 -3.99847	108.60705	700.28003	 54.50	
 20.009	-63.844	 95.57479	 63.58424	 12.19089	 -5.16603	 84.80137	 -4.31862	108.59904	700.28998	 54.50	
 19.992	-75.457	 95.85947	 50.43898	 23.37004	 -8.83783	 90.53748	 -4.54855	108.63748	700.29999	 54.50	
 19.999	-87.075	 95.60318	 36.88350	 36.17664	-10.62474	 92.85854	 -4.90379	108.60139	700.28998	 54.40	
 19.989	-98.733	 95.15986	 23.57582	 48.04434	-10.69951	 91.87319	 -4.21225	108.56468	700.29999	 54.40	
 20.005	-110.327	 94.36041	 11.17545	 60.90547	 -8.92689	 87.55965	 -4.02974	108.60925	700.29999	 54.40	
 20.009	-121.926	 93.17667	  0.07094	 72.94214	 -5.13864	 80.35447	 -4.20193	108.54683	700.27002	 54.40	
 19.995	-133.545	 91.72038	 -9.52545	 83.63747	  0.28447	 69.95353	 -4.25819	108.53470	700.23999	 54.40	
 20.000	-145.147	 90.12215	-18.44936	 91.92787	  7.67227	 57.71590	 -4.12659	108.54426	700.23999	 54.40	
 20.008	-156.764	 88.18491	-24.62215	 97.74630	 16.60952	 44.33503	 -4.11775	108.60027	700.15997	 54.40	
 20.003	-168.362	 86.28282	-28.75346	100.62281	 26.95918	 29.21152	 -4.17886	108.52247	700.27002	 54.40	
 20.000	180.000	 84.53763	-31.03994	100.83261	 37.72205	 16.93434	 -4.35238	108.53991	700.34003	 54.40	
