FileType=PCF
NHL=14
Date=05/30/19	15:29:44
Facility=APL
Serial=16071-13
Customer=NASA
NP=6
Mach=0.230000
Calibration=1:1
CalPts=490
TstPts=95
PortNumbering=AP Standard
Units=Torr C m/s kg/m^3 deg mm 
Theta[deg]	Phi[deg]	P1[Torr]	P2[Torr]	P3[Torr]	P4[Torr]	P5[Torr]	P6[Torr]	Pt[Torr]	Ps[Abs,Torr]	Ts[C]	
  0.000	  0.000	 25.97704	 10.28727	 11.52347	 11.23756	 10.13132	  0.65428	 25.91007	701.08002	 34.20	
  1.691	128.401	 25.96101	  9.35786	 12.34897	 12.30513	  9.07503	  0.61312	 25.93456	701.07001	 34.20	
  1.692	 77.194	 25.97338	 10.53559	 11.17828	 12.63585	  8.81440	  0.63734	 25.93005	701.09998	 34.20	
  1.699	 26.182	 25.98265	 11.58301	 10.22720	 11.91020	  9.51314	  0.66793	 25.92836	701.06000	 34.30	
  1.699	-26.182	 25.99441	 11.61560	 10.25452	 10.64922	 10.73623	  0.68083	 25.92840	701.02002	 34.30	
  1.692	-77.194	 25.98927	 10.62179	 11.20879	  9.89015	 11.52038	  0.65916	 25.92286	700.95001	 34.30	
  1.691	-128.401	 25.98330	  9.39845	 12.39229	 10.10138	 11.25148	  0.62467	 25.93062	700.92999	 34.30	
  1.700	180.000	 25.98513	  8.84874	 12.92811	 11.17340	 10.10922	  0.60625	 25.94966	700.96002	 34.30	
  3.400	180.000	 25.87156	  7.44531	 14.23248	 11.02792	 10.00226	  0.49067	 25.91027	700.98999	 34.30	
  3.388	-152.325	 25.93276	  7.78166	 13.93731	  9.78307	 11.36842	  0.52882	 25.95094	701.01001	 34.30	
  3.397	-124.529	 25.93785	  8.64177	 13.02744	  8.88294	 12.40816	  0.55603	 25.92638	701.10999	 34.30	
  3.399	-96.763	 25.95368	  9.89682	 11.76206	  8.48550	 12.93146	  0.59026	 25.92774	700.92999	 34.30	
  3.394	-69.283	 25.95038	 11.26139	 10.46204	  8.65893	 12.76942	  0.62679	 25.93790	701.07001	 34.30	
  3.400	-41.398	 25.97211	 12.46233	  9.32638	  9.38679	 11.97408	  0.63213	 25.92871	701.02002	 34.40	
  3.401	-14.021	 25.97910	 13.08955	  8.76308	 10.53445	 10.72062	  0.63109	 25.94175	701.01001	 34.40	
  3.401	 14.021	 25.96863	 13.06288	  8.76682	 11.92267	  9.35240	  0.62430	 25.94402	701.01001	 34.40	
  3.400	 41.398	 25.95246	 12.35188	  9.31849	 13.14218	  8.23616	  0.60999	 25.94511	700.98999	 34.40	
  3.394	 69.283	 25.92534	 11.12362	 10.42483	 13.87936	  7.56252	  0.59084	 25.93809	701.03003	 34.40	
  3.399	 96.763	 25.89645	  9.75499	 11.72229	 13.97964	  7.40914	  0.54807	 25.93837	701.02002	 34.40	
  3.397	124.529	 25.88956	  8.54952	 12.96834	 13.45792	  7.83770	  0.51752	 25.94728	701.00000	 34.40	
  3.388	152.325	 25.89447	  7.73005	 13.91850	 12.35829	  8.79557	  0.49796	 25.95388	701.06000	 34.40	
  5.099	161.165	 25.70380	  6.15970	 15.34702	 12.16408	  8.55080	  0.33037	 25.93800	701.16998	 34.40	
  5.109	142.013	 25.70249	  6.71618	 14.64030	 13.48444	  7.41194	  0.32489	 25.94625	701.04999	 34.50	
  5.095	123.033	 25.71558	  7.65117	 13.53114	 14.52377	  6.56830	  0.37682	 25.94691	701.15002	 34.50	
  5.105	104.191	 25.70407	  8.80535	 12.22977	 15.16675	  6.05940	  0.36986	 25.92645	701.12000	 34.50	
  5.093	 85.207	 25.75101	 10.23378	 10.85148	 15.34171	  5.97057	  0.40476	 25.96025	701.09998	 34.50	
  5.104	 66.290	 25.75977	 11.65681	  9.53580	 15.03790	  6.27455	  0.47052	 25.94010	701.12000	 34.50	
  5.094	 47.331	 25.81640	 12.92900	  8.52724	 14.26743	  6.97144	  0.47058	 25.95322	701.09998	 34.50	
  5.089	 28.397	 25.84658	 13.89719	  7.77685	 13.16306	  7.97634	  0.51020	 25.95607	701.15002	 34.50	
  5.096	  9.576	 25.86539	 14.42495	  7.39446	 11.83326	  9.19333	  0.50332	 25.94378	701.14001	 34.50	
  5.096	 -9.576	 25.89379	 14.48822	  7.40462	 10.42720	 10.55807	  0.50662	 25.95400	701.07001	 34.50	
  5.089	-28.397	 25.91653	 14.02749	  7.80060	  9.19508	 11.95180	  0.51465	 25.96187	701.13000	 34.50	
  5.094	-47.331	 25.90043	 13.14170	  8.51685	  8.14809	 13.11467	  0.51207	 25.94736	701.03003	 34.50	
  5.104	-66.290	 25.89947	 11.91977	  9.61391	  7.43600	 13.95693	  0.51175	 25.94870	701.03003	 34.50	
  5.093	-85.207	 25.88213	 10.48947	 10.93136	  7.06747	 14.34901	  0.49818	 25.95630	701.15002	 34.50	
  5.105	-104.191	 25.87265	  9.10728	 12.26272	  7.12074	 14.22205	  0.47220	 25.96242	701.15997	 34.50	
  5.095	-123.033	 25.84442	  7.86528	 13.58364	  7.60186	 13.55650	  0.40852	 25.95370	701.19000	 34.50	
  5.109	-142.013	 25.80536	  6.85919	 14.68388	  8.38359	 12.53663	  0.39277	 25.95744	701.16998	 34.60	
  5.099	-161.165	 25.78197	  6.24194	 15.36852	  9.50552	 11.22452	  0.34661	 25.96023	701.33002	 34.60	
  5.100	180.000	 25.76243	  6.00622	 15.59569	 10.80487	  9.84542	  0.30754	 25.97241	701.19000	 34.60	
  6.800	180.000	 25.47683	  4.47302	 16.86186	 10.52481	  9.58259	  0.09162	 25.94936	701.13000	 34.60	
  6.796	-166.229	 25.52197	  4.67356	 16.71070	  9.26581	 10.92545	  0.12348	 25.95831	701.15002	 34.60	
  6.808	-152.311	 25.55253	  5.12531	 16.18976	  8.07188	 12.28809	  0.14887	 25.96113	701.10999	 34.60	
  6.795	-138.383	 25.57880	  5.84007	 15.36834	  7.04976	 13.51617	  0.18699	 25.95232	701.16998	 34.60	
  6.792	-124.591	 25.62881	  6.79819	 14.29453	  6.31788	 14.51873	  0.19866	 25.96644	701.21997	 34.60	
  6.787	-110.754	 25.64922	  7.96318	 13.02388	  5.84248	 15.23156	  0.24264	 25.96034	701.20001	 34.60	
  6.800	-96.985	 25.68630	  9.26664	 11.71258	  5.64028	 15.62386	  0.32424	 25.97054	701.16998	 34.60	
  6.800	-83.015	 25.69866	 10.64934	 10.38050	  5.71507	 15.60278	  0.29851	 25.95558	701.15002	 34.60	
  6.787	-69.246	 25.73726	 12.02212	  9.14033	  5.98685	 15.28521	  0.36878	 25.96538	701.03998	 34.60	
  6.792	-55.409	 25.73568	 13.28765	  8.08875	  6.55871	 14.58600	  0.35456	 25.95993	701.08002	 34.60	
  6.795	-41.617	 25.74874	 14.36780	  7.21328	  7.44928	 13.56531	  0.28312	 25.96749	701.04999	 34.60	
  6.808	-27.689	 25.73468	 15.19614	  6.50860	  8.46536	 12.36121	  0.32951	 25.95309	701.16998	 34.60	
  6.796	-13.771	 25.72866	 15.71121	  6.07405	  9.62914	 11.00331	  0.31233	 25.97622	701.09998	 34.60	
  6.800	  0.000	 25.69835	 15.85809	  5.87593	 10.93595	  9.61575	  0.30764	 25.96334	701.19000	 34.60	
  6.796	 13.771	 25.67291	 15.61730	  5.97618	 12.29740	  8.35327	  0.27822	 25.97368	701.09003	 34.70	
  6.808	 27.689	 25.62662	 15.04007	  6.36416	 13.60313	  7.14594	  0.32361	 25.96671	701.16998	 34.70	
  6.795	 41.617	 25.58624	 14.12432	  7.04388	 14.71826	  6.12882	  0.28203	 25.94916	701.19000	 34.70	
  6.792	 55.409	 25.56955	 12.97186	  7.94795	 15.68019	  5.33148	  0.26381	 25.96826	701.19000	 34.70	
  6.787	 69.246	 25.53061	 11.65874	  9.03408	 16.30215	  4.80055	  0.25554	 25.98019	701.14001	 34.70	
  6.800	 83.015	 25.48757	 10.24934	 10.27450	 16.60801	  4.49451	  0.19815	 25.94362	701.21002	 34.70	
  6.800	 96.985	 25.47045	  8.88195	 11.61533	 16.57968	  4.48084	  0.15377	 25.96738	701.28003	 34.70	
  6.787	110.754	 25.45503	  7.62722	 12.94300	 16.17597	  4.75629	  0.12505	 25.96598	701.23999	 34.70	
  6.792	124.591	 25.42694	  6.50473	 14.21722	 15.42842	  5.29221	  0.10777	 25.94666	701.25000	 34.70	
  6.795	138.383	 25.44576	  5.62547	 15.32624	 14.44175	  6.08655	  0.07862	 25.97182	701.10999	 34.70	
  6.808	152.311	 25.44007	  4.95317	 16.15956	 13.20985	  7.12085	  0.07393	 25.95959	701.13000	 34.70	
  6.796	166.229	 25.45037	  4.60474	 16.66974	 11.87185	  8.31522	  0.07501	 25.94790	701.19000	 34.70	
  8.491	168.704	 25.08492	  3.01174	 17.90591	 11.54684	  7.95506	 -0.19007	 25.96299	701.27002	 34.70	
  8.502	157.493	 25.06839	  3.28198	 17.47565	 12.91028	  6.71704	 -0.20873	 25.95031	701.13000	 34.70	
  8.494	146.194	 25.05811	  3.81134	 16.76085	 14.23457	  5.59598	 -0.19970	 25.95928	701.15997	 34.80	
  8.495	135.039	 25.04193	  4.53261	 15.79998	 15.41367	  4.63365	 -0.18817	 25.95896	701.22998	 34.80	
  8.487	123.723	 25.06950	  5.47233	 14.65087	 16.40263	  3.88528	 -0.14349	 25.97281	701.09998	 34.80	
  8.492	112.575	 25.06796	  6.55474	 13.37481	 17.14898	  3.36585	 -0.12763	 25.94140	701.06000	 34.80	
  8.510	101.220	 25.10083	  7.82210	 11.98855	 17.67652	  3.02096	 -0.12273	 25.97255	701.17999	 34.80	
  8.500	 90.000	 25.11175	  9.15416	 10.64039	 17.85777	  2.92664	 -0.08629	 25.95523	701.09998	 34.80	
  8.510	 78.780	 25.14505	 10.60903	  9.28217	 17.78601	  3.00289	 -0.02787	 25.96730	701.12000	 34.80	
  8.492	 67.425	 25.18545	 12.03562	  8.07111	 17.38621	  3.34606	  0.01112	 25.96472	701.15002	 34.80	
  8.487	 56.277	 25.21752	 13.38300	  6.98007	 16.71933	  3.87922	  0.03088	 25.96895	701.20001	 34.80	
  8.495	 44.961	 25.25293	 14.60200	  5.99743	 15.82790	  4.62364	  0.03059	 25.97409	701.14001	 34.80	
  8.494	 33.806	 25.29241	 15.62520	  5.23799	 14.69244	  5.59530	  0.05830	 25.95636	701.17999	 34.80	
  8.502	 22.507	 25.35335	 16.41628	  4.71536	 13.41719	  6.76473	  0.07575	 25.97443	701.15002	 34.80	
  8.491	 11.296	 25.39420	 16.91558	  4.41365	 12.07192	  8.02777	  0.04929	 25.97894	701.22998	 34.90	
  8.500	  0.000	 25.41047	 17.12552	  4.33361	 10.66329	  9.33255	  0.01958	 25.97328	701.16998	 34.90	
  8.491	-11.296	 25.44659	 17.00627	  4.50057	  9.35748	 10.73031	  0.03701	 25.97565	701.15997	 34.90	
  8.502	-22.507	 25.45411	 16.60690	  4.84064	  8.12186	 12.11413	  0.02809	 25.97136	701.15997	 34.90	
  8.494	-33.806	 25.46398	 15.89713	  5.40317	  6.99173	 13.42964	  0.04084	 25.96539	701.19000	 34.90	
  8.495	-44.961	 25.47678	 14.94279	  6.15318	  5.99329	 14.62499	  0.04385	 25.97654	701.26001	 34.90	
  8.487	-56.277	 25.47136	 13.77674	  7.11116	  5.18146	 15.61675	  0.10052	 25.97838	701.28998	 34.90	
  8.492	-67.425	 25.44530	 12.49173	  8.18570	  4.57949	 16.33476	  0.07768	 25.97561	701.34003	 34.90	
  8.510	-78.780	 25.43666	 11.09767	  9.39488	  4.24814	 16.80758	  0.08185	 25.97314	701.14001	 34.90	
  8.500	-90.000	 25.41265	  9.65925	 10.74500	  4.12295	 16.93412	  0.04179	 25.96740	701.21997	 34.90	
  8.510	-101.220	 25.37782	  8.27539	 12.08240	  4.12376	 16.80173	  0.02112	 25.96799	700.88000	 34.90	
  8.492	-112.575	 25.34385	  6.96774	 13.46064	  4.39711	 16.31973	 -0.00585	 25.97832	701.17999	 34.90	
  8.487	-123.723	 25.30374	  5.82088	 14.73756	  4.87434	 15.58025	 -0.03663	 25.98129	701.28998	 34.90	
  8.495	-135.039	 25.28193	  4.85454	 15.87928	  5.63028	 14.56987	 -0.06827	 25.98326	701.21002	 34.90	
  8.494	-146.194	 25.25349	  4.07600	 16.81150	  6.54325	 13.39681	 -0.08944	 25.97906	701.10999	 34.90	
  8.502	-157.493	 25.21099	  3.48713	 17.51634	  7.66602	 12.06195	 -0.11599	 25.98387	701.20001	 34.90	
  8.491	-168.704	 25.15729	  3.09228	 17.93397	  8.87850	 10.66995	 -0.15856	 25.97271	700.94000	 34.90	
  8.500	180.000	 25.14382	  2.90446	 18.09957	 10.18107	  9.29986	 -0.18616	 25.99774	701.16998	 34.90	
 10.200	180.000	 24.67969	  1.31225	 19.24779	  9.75728	  8.94206	 -0.46636	 25.98854	701.31000	 34.90	
 10.191	-170.497	 24.71156	  1.48741	 19.11489	  8.46942	 10.29591	 -0.45177	 25.99124	701.23999	 34.90	
 10.210	-161.034	 24.73788	  1.79154	 18.76401	  7.21636	 11.69636	 -0.42057	 25.98430	701.23999	 34.90	
 10.194	-151.526	 24.78665	  2.28090	 18.15340	  6.04334	 13.10639	 -0.37565	 25.97982	701.21997	 34.90	
 10.190	-142.105	 24.81490	  2.94081	 17.31337	  4.98922	 14.40576	 -0.33711	 25.97430	701.15002	 34.90	
 10.215	-132.646	 24.85649	  3.76506	 16.30763	  4.11042	 15.57714	 -0.31806	 25.96715	701.20001	 35.00	
 10.203	-123.092	 24.90915	  4.82475	 15.10509	  3.43822	 16.56392	 -0.30182	 25.98991	701.21002	 35.00	
 10.192	-113.678	 24.93626	  5.96726	 13.81217	  2.94353	 17.32166	 -0.26555	 25.96456	701.23999	 35.00	
 10.208	-104.249	 24.97557	  7.21439	 12.44042	  2.63426	 17.87123	 -0.25259	 25.98388	701.13000	 35.00	
 10.210	-94.801	 25.02098	  8.59878	 11.08072	  2.55407	 18.14636	 -0.24988	 25.99972	700.45001	 35.00	
 10.210	-85.199	 25.03971	 10.01602	  9.70562	  2.55007	 18.15679	 -0.23274	 25.99083	701.07001	 35.00	
 10.208	-75.751	 25.06023	 11.48979	  8.38588	  2.71683	 17.90201	 -0.18299	 25.98055	701.12000	 35.00	
 10.192	-66.322	 25.08741	 12.89353	  7.18298	  3.10975	 17.37383	 -0.16125	 25.99273	700.48999	 35.00	
 10.203	-56.908	 25.09349	 14.21524	  6.06127	  3.68957	 16.62104	 -0.16705	 25.98505	700.40002	 35.00	
 10.215	-47.354	 25.10193	 15.44604	  5.05261	  4.47160	 15.63734	 -0.20250	 25.99498	701.23999	 35.00	
 10.190	-37.895	 25.09753	 16.44086	  4.26809	  5.43908	 14.48552	 -0.21133	 25.97139	700.41998	 35.00	
 10.194	-28.474	 25.09002	 17.26756	  3.64913	  6.53509	 13.19226	 -0.19907	 25.97792	700.34003	 35.00	
 10.210	-18.966	 25.06670	 17.90990	  3.13672	  7.72589	 11.79265	 -0.19849	 25.97876	701.10999	 35.00	
 10.191	 -9.503	 25.06564	 18.23394	  2.86247	  9.02457	 10.36797	 -0.21362	 25.98854	700.64001	 35.00	
 10.200	  0.000	 25.03946	 18.32399	  2.73475	 10.34620	  8.97253	 -0.21670	 25.98452	700.44000	 35.00	
 10.191	  9.503	 24.98695	 18.13370	  2.75876	 11.75077	  7.63248	 -0.21074	 25.97347	700.81000	 35.00	
 10.210	 18.966	 24.94755	 17.74149	  2.99888	 13.14491	  6.32143	 -0.17103	 25.99899	701.16998	 35.00	
 10.194	 28.474	 24.92469	 17.03986	  3.46495	 14.49492	  5.10510	 -0.15916	 26.00533	700.41998	 35.00	
 10.190	 37.895	 24.87670	 16.11145	  4.12188	 15.73643	  4.02470	 -0.19533	 25.99743	700.40002	 35.00	
 10.215	 47.354	 24.82457	 15.01629	  4.92483	 16.80168	  3.11923	 -0.24521	 25.97979	700.40002	 35.10	
 10.203	 56.908	 24.79055	 13.71591	  5.93287	 17.73554	  2.36893	 -0.22168	 25.98794	700.53003	 35.10	
 10.192	 66.322	 24.75561	 12.33664	  7.03206	 18.39721	  1.84495	 -0.21471	 25.98797	700.46997	 35.10	
 10.208	 75.751	 24.69764	 10.90599	  8.24836	 18.88008	  1.43722	 -0.19317	 25.98101	700.40997	 35.10	
 10.210	 85.199	 24.67472	  9.44499	  9.57422	 19.03130	  1.34185	 -0.36373	 25.97153	700.37000	 35.10	
 10.210	 94.801	 24.66946	  8.05633	 10.95689	 18.97209	  1.40947	 -0.40280	 25.99764	700.67999	 35.10	
 10.208	104.249	 24.62790	  6.73475	 12.33298	 18.66072	  1.55018	 -0.41459	 25.97623	700.50000	 35.10	
 10.192	113.678	 24.62445	  5.50409	 13.71772	 18.11146	  1.90967	 -0.40780	 25.98743	700.37000	 35.10	
 10.203	123.092	 24.61478	  4.41528	 15.00351	 17.33996	  2.44267	 -0.43032	 26.00304	700.54999	 35.10	
 10.215	132.646	 24.59816	  3.42658	 16.20533	 16.34577	  3.17406	 -0.47306	 25.98983	700.51001	 35.10	
 10.190	142.105	 24.58159	  2.65028	 17.23120	 15.17292	  4.08790	 -0.51562	 25.96708	700.38000	 35.10	
 10.194	151.526	 24.60070	  2.03502	 18.08502	 13.91105	  5.11694	 -0.50180	 25.97839	700.42999	 35.10	
 10.210	161.034	 24.60443	  1.60942	 18.72528	 12.53723	  6.29054	 -0.49588	 25.97387	700.48999	 35.20	
 10.191	170.497	 24.63382	  1.41308	 19.08442	 11.13813	  7.58980	 -0.47978	 25.97058	700.78998	 35.20	
 11.899	171.783	 24.07386	 -0.16632	 20.15134	 10.65165	  7.10820	 -0.75917	 25.95695	700.44000	 35.20	
 11.890	163.610	 24.06202	  0.01319	 19.82651	 12.05896	  5.82960	 -0.74403	 25.97657	700.45001	 35.20	
 11.889	155.445	 24.04567	  0.32854	 19.28607	 13.44506	  4.64433	 -0.77902	 25.99000	700.40002	 35.20	
 11.909	147.299	 24.01336	  0.83136	 18.52773	 14.78105	  3.53046	 -0.79784	 25.98256	700.53003	 35.20	
 11.902	139.148	 24.02527	  1.46162	 17.62159	 16.04757	  2.54113	 -0.79206	 25.98884	700.46997	 35.20	
 11.894	130.867	 24.02749	  2.31562	 16.50697	 17.16733	  1.70753	 -0.73994	 25.97128	700.54999	 35.20	
 11.897	122.732	 24.05648	  3.30538	 15.28290	 18.17458	  0.97818	 -0.69036	 25.99171	700.35999	 35.20	
 11.903	114.597	 24.04993	  4.36438	 13.99652	 18.96438	  0.42153	 -0.66189	 25.98287	700.33002	 35.20	
 11.893	106.346	 24.07719	  5.59430	 12.60402	 19.56076	  0.04756	 -0.67012	 25.98881	700.45001	 35.20	
 11.892	 98.155	 24.08844	  6.90335	 11.18576	 19.95481	 -0.19762	 -0.67659	 25.98284	700.39001	 35.20	
 11.900	 90.000	 24.13001	  8.28084	  9.80873	 20.12582	 -0.26059	 -0.64561	 25.99366	700.40002	 35.20	
 11.892	 81.845	 24.14646	  9.70475	  8.47326	 20.06928	 -0.21798	 -0.59513	 25.99209	700.91998	 35.10	
 11.893	 73.654	 24.19075	 11.18200	  7.16934	 19.81243	 -0.05068	 -0.53502	 26.00697	701.20001	 35.20	
 11.903	 65.403	 24.21998	 12.61146	  5.95297	 19.31232	  0.31908	 -0.51604	 26.00224	701.09998	 35.20	
 11.897	 57.268	 24.24939	 14.00029	  4.86689	 18.60304	  0.85753	 -0.50898	 25.99974	700.95001	 35.20	
 11.894	 49.133	 24.29915	 15.28186	  3.87367	 17.71422	  1.58825	 -0.50803	 25.99794	701.21002	 35.20	
 11.902	 40.852	 24.33826	 16.46537	  3.01171	 16.64101	  2.48040	 -0.46913	 25.99501	701.10999	 35.20	
 11.909	 32.701	 24.39083	 17.47645	  2.30576	 15.46318	  3.48677	 -0.41583	 26.00391	701.19000	 35.20	
 11.889	 24.555	 24.43228	 18.29498	  1.75397	 14.15923	  4.63038	 -0.39627	 26.00083	701.20001	 35.20	
 11.890	 16.390	 24.47670	 18.90297	  1.37087	 12.79248	  5.88607	 -0.41844	 25.99870	700.45001	 35.20	
 11.899	  8.217	 24.50177	 19.30485	  1.11525	 11.36698	  7.17767	 -0.43572	 25.99348	701.06000	 35.20	
 11.900	  0.000	 24.55869	 19.48264	  1.08408	  9.95885	  8.57641	 -0.45294	 26.00807	700.88000	 35.20	
 11.899	 -8.217	 24.58222	 19.40155	  1.20257	  8.62058	  9.94600	 -0.44612	 25.99080	701.22998	 35.20	
 11.890	-16.390	 24.60546	 19.10795	  1.44951	  7.32254	 11.37800	 -0.43101	 26.00886	700.42999	 35.20	
 11.889	-24.555	 24.61197	 18.58368	  1.85302	  6.08960	 12.79107	 -0.41798	 25.98905	700.39001	 35.20	
 11.909	-32.701	 24.61489	 17.86134	  2.39596	  4.93610	 14.15120	 -0.43613	 25.99376	700.34998	 35.20	
 11.902	-40.852	 24.61617	 16.93007	  3.11572	  3.91350	 15.42343	 -0.45446	 25.99230	700.39001	 35.20	
 11.894	-49.133	 24.62329	 15.83195	  3.98559	  2.99675	 16.55787	 -0.45584	 25.99769	700.41998	 35.20	
 11.897	-57.268	 24.62238	 14.60303	  4.98236	  2.25085	 17.52124	 -0.42935	 26.00194	700.47998	 35.20	
 11.903	-65.403	 24.61890	 13.24430	  6.10286	  1.66835	 18.31620	 -0.42359	 25.99911	700.40997	 35.20	
 11.893	-73.654	 24.58582	 11.81192	  7.32115	  1.26236	 18.86751	 -0.45760	 25.98932	700.47998	 35.20	
 11.892	-81.845	 24.55476	 10.37054	  8.60468	  1.03086	 19.18375	 -0.52307	 25.97862	700.45001	 35.20	
 11.900	-90.000	 24.53527	  8.90682	  9.94285	  0.94433	 19.30571	 -0.54804	 25.98816	700.71002	 35.20	
 11.892	-98.155	 24.49860	  7.51575	 11.30778	  1.01131	 19.17921	 -0.54489	 25.98451	700.45001	 35.20	
 11.893	-106.346	 24.47113	  6.14557	 12.70530	  1.17506	 18.83461	 -0.55061	 25.98118	700.69000	 35.20	
 11.903	-114.597	 24.44294	  4.90496	 14.09112	  1.46965	 18.27128	 -0.57176	 26.00127	701.28003	 35.20	
 11.897	-122.732	 24.37478	  3.77167	 15.37853	  1.95830	 17.48343	 -0.58134	 25.97593	701.21997	 35.30	
 11.894	-130.867	 24.35252	  2.74970	 16.56751	  2.62455	 16.51165	 -0.60149	 25.98867	701.15002	 35.30	
 11.902	-139.148	 24.30199	  1.81834	 17.68842	  3.46265	 15.35134	 -0.58612	 25.97886	700.53998	 35.30	
 11.909	-147.299	 24.25706	  1.08922	 18.60847	  4.43269	 14.07491	 -0.62274	 25.98339	701.22998	 35.30	
 11.889	-155.445	 24.22403	  0.57329	 19.33336	  5.53172	 12.71596	 -0.65100	 25.98059	701.21997	 35.20	
 11.890	-163.610	 24.17799	  0.17234	 19.85020	  6.71722	 11.26840	 -0.69626	 25.96299	701.28003	 35.20	
 11.899	-171.783	 24.14698	 -0.11537	 20.17785	  7.97779	  9.87154	 -0.73267	 25.97348	701.20001	 35.30	
 11.900	180.000	 24.11503	 -0.23743	 20.29983	  9.26802	  8.49600	 -0.73842	 25.99133	701.32001	 35.30	
 13.600	180.000	 23.45808	 -1.80320	 21.27411	  8.73879	  8.00698	 -0.98129	 25.97756	700.56000	 35.30	
 13.608	-172.853	 23.49198	 -1.71413	 21.18764	  7.43011	  9.39116	 -0.96744	 25.98573	700.47998	 35.30	
 13.611	-165.583	 23.53538	 -1.45783	 20.89525	  6.12031	 10.79413	 -0.95123	 25.97487	701.19000	 35.30	
 13.601	-158.353	 23.58068	 -1.09211	 20.40879	  4.94102	 12.24817	 -0.89549	 25.98757	700.97998	 35.30	
 13.609	-151.210	 23.62493	 -0.61559	 19.75672	  3.84570	 13.65754	 -0.85293	 25.98289	700.44000	 35.30	
 13.611	-143.999	 23.65392	 -0.01172	 18.92282	  2.82391	 14.98435	 -0.84025	 25.97602	700.42999	 35.30	
 13.601	-136.825	 23.70786	  0.74536	 17.96151	  1.92422	 16.21595	 -0.82963	 25.99139	700.42999	 35.30	
 13.596	-129.640	 23.74363	  1.63200	 16.82042	  1.15566	 17.32279	 -0.85118	 25.98567	700.42999	 35.30	
 13.611	-122.431	 23.77984	  2.65036	 15.59832	  0.52700	 18.31153	 -0.82618	 25.98321	701.15997	 35.30	
 13.604	-115.211	 23.83159	  3.78394	 14.29076	  0.03864	 19.10692	 -0.81637	 25.98662	701.09998	 35.30	
 13.595	-108.042	 23.88404	  5.03172	 12.93362	 -0.31383	 19.71133	 -0.80673	 25.99895	701.01001	 35.30	
 13.607	-100.793	 23.90819	  6.36706	 11.52996	 -0.49933	 20.13597	 -0.80518	 25.98781	700.51001	 35.30	
 13.601	-93.617	 23.95481	  7.75556	 10.14889	 -0.62457	 20.35235	 -0.83700	 26.00388	700.50000	 35.30	
 13.601	-86.383	 23.98515	  9.21359	  8.79212	 -0.59133	 20.35304	 -0.81288	 26.00575	700.39001	 35.30	
 13.607	-79.207	 23.99432	 10.66994	  7.44373	 -0.46734	 20.16447	 -0.78182	 25.99072	700.40997	 35.30	
 13.595	-71.958	 24.01595	 12.11199	  6.17242	 -0.18051	 19.76565	 -0.71993	 25.98933	700.44000	 35.30	
 13.604	-64.789	 24.02629	 13.52934	  4.99021	  0.24080	 19.14614	 -0.69314	 25.97912	700.50000	 35.40	
 13.611	-57.569	 24.05138	 14.90795	  3.88924	  0.79015	 18.38949	 -0.68678	 26.00040	700.90002	 35.30	
 13.596	-50.360	 24.04125	 16.12132	  2.89617	  1.53218	 17.39606	 -0.69024	 25.97127	701.10999	 35.30	
 13.601	-43.175	 24.05377	 17.27899	  1.97746	  2.38678	 16.29364	 -0.68953	 25.99340	700.50000	 35.40	
 13.611	-36.001	 24.05790	 18.26832	  1.22781	  3.34739	 15.07187	 -0.67210	 25.99343	700.41998	 35.30	
 13.609	-28.790	 24.03974	 19.10068	  0.62433	  4.42389	 13.75022	 -0.64110	 25.97983	701.15002	 35.30	
 13.601	-21.647	 24.02610	 19.73953	  0.16042	  5.58342	 12.35503	 -0.62396	 25.99042	700.42999	 35.30	
 13.611	-14.417	 24.01759	 20.22118	 -0.18055	  6.85489	 10.91194	 -0.62822	 26.00630	700.45001	 35.30	
 13.608	 -7.147	 23.98671	 20.45543	 -0.38375	  8.18506	  9.45853	 -0.64452	 25.98250	700.46002	 35.30	
 13.600	  0.000	 23.95859	 20.50819	 -0.48555	  9.51741	  8.09570	 -0.68470	 25.99004	700.46997	 35.30	
 13.608	  7.147	 23.90758	 20.38814	 -0.45878	 10.91449	  6.68968	 -0.66555	 26.00127	700.44000	 35.40	
 13.611	 14.417	 23.86166	 20.02310	 -0.25292	 12.34529	  5.32810	 -0.64873	 25.98602	700.82001	 35.40	
 13.601	 21.647	 23.81880	 19.45096	  0.10145	 13.74846	  4.06977	 -0.63512	 25.98428	701.09998	 35.40	
 13.609	 28.790	 23.77946	 18.71988	  0.53670	 15.09121	  2.89366	 -0.65613	 26.00757	700.76001	 35.40	
 13.611	 36.001	 23.74855	 17.80427	  1.12240	 16.32848	  1.84135	 -0.69205	 25.99846	700.53998	 35.40	
 13.601	 43.175	 23.69814	 16.71857	  1.88616	 17.47431	  0.83460	 -0.74794	 26.00725	701.09998	 35.40	
 13.596	 50.360	 23.66167	 15.56575	  2.71973	 18.47230	  0.08261	 -0.76876	 25.98171	700.39001	 35.40	
 13.611	 57.569	 23.59792	 14.23724	  3.71878	 19.38214	 -0.58688	 -0.77067	 25.98158	700.47998	 35.40	
 13.604	 64.789	 23.57288	 12.81958	  4.81791	 20.11356	 -1.09585	 -0.77809	 25.99730	700.54999	 35.40	
 13.595	 71.958	 23.55807	 11.40243	  6.00499	 20.63762	 -1.46006	 -0.78758	 26.00626	700.56000	 35.40	
 13.607	 79.207	 23.51321	  9.93742	  7.24910	 20.98499	 -1.72522	 -0.85073	 25.99003	701.28003	 35.40	
 13.601	 86.383	 23.47674	  8.46487	  8.60898	 21.11283	 -1.83566	 -0.91190	 25.98054	700.63000	 35.40	
 13.601	 93.617	 23.46640	  7.02416	  9.98120	 21.06384	 -1.79683	 -0.92880	 25.98959	701.02002	 35.40	
 13.607	100.793	 23.41727	  5.69181	 11.36607	 20.80384	 -1.68686	 -0.93162	 25.98301	700.65002	 35.40	
 13.595	108.042	 23.40751	  4.39154	 12.80733	 20.35051	 -1.42510	 -0.92523	 25.97706	700.62000	 35.40	
 13.604	115.211	 23.38581	  3.21268	 14.16356	 19.71435	 -1.04492	 -0.93577	 25.97824	700.50000	 35.40	
 13.611	122.431	 23.36687	  2.10526	 15.49488	 18.91963	 -0.54128	 -0.96447	 25.97564	700.52002	 35.40	
 13.596	129.640	 23.38970	  1.14526	 16.75275	 17.94981	  0.11988	 -1.00621	 25.99627	700.57001	 35.40	
 13.601	136.825	 23.35265	  0.32106	 17.88817	 16.83552	  0.91450	 -1.03684	 25.98548	700.62000	 35.40	
 13.611	143.999	 23.36344	 -0.37459	 18.88980	 15.60223	  1.90834	 -1.04392	 25.99733	700.62000	 35.40	
 13.609	151.210	 23.36652	 -0.92635	 19.71368	 14.28587	  2.93828	 -1.05348	 26.00244	700.52002	 35.40	
 13.601	158.353	 23.38946	 -1.30533	 20.36928	 12.91731	  4.08218	 -1.01013	 25.98881	700.53998	 35.40	
 13.611	165.583	 23.40434	 -1.60353	 20.87549	 11.49836	  5.30487	 -1.00221	 25.97432	700.46997	 35.40	
 13.608	172.853	 23.45195	 -1.75177	 21.19244	 10.09036	  6.63868	 -0.99482	 26.00919	700.50000	 35.40	
 15.298	173.587	 22.70951	 -3.23105	 22.08713	  9.46885	  6.06348	 -1.16715	 26.00277	700.46997	 35.40	
 15.291	167.167	 22.67572	 -3.10589	 21.81306	 10.87372	  4.74145	 -1.17818	 25.98130	700.53998	 35.40	
 15.307	160.676	 22.65959	 -2.88146	 21.38783	 12.30128	  3.48115	 -1.19480	 25.99627	700.54999	 35.50	
 15.300	154.261	 22.62785	 -2.49795	 20.75159	 13.70858	  2.29987	 -1.24209	 25.99112	700.51001	 35.40	
 15.288	147.854	 22.64454	 -2.02747	 19.99757	 15.04066	  1.20992	 -1.24871	 25.98721	700.41998	 35.40	
 15.293	141.428	 22.63677	 -1.47702	 19.08832	 16.33453	  0.24156	 -1.26950	 25.99610	700.52002	 35.40	
 15.299	134.985	 22.63860	 -0.78224	 18.03450	 17.54472	 -0.59072	 -1.27498	 26.00638	700.46997	 35.40	
 15.305	128.583	 22.64126	  0.00697	 16.89608	 18.63403	 -1.30573	 -1.20477	 25.99750	700.45001	 35.40	
 15.309	122.142	 22.63202	  0.94999	 15.62368	 19.60769	 -1.93440	 -1.18307	 25.98160	700.38000	 35.50	
 15.304	115.711	 22.64932	  2.03177	 14.28773	 20.40639	 -2.42566	 -1.15133	 25.98671	700.42999	 35.50	
 15.297	109.291	 22.67209	  3.20807	 12.90592	 21.06627	 -2.78453	 -1.14092	 25.99591	700.46997	 35.50	
 15.293	102.897	 22.70040	  4.46782	 11.51826	 21.56401	 -3.04834	 -1.14858	 25.99973	700.38000	 35.50	
 15.293	 96.458	 22.71206	  5.79529	 10.09792	 21.86878	 -3.21232	 -1.14069	 25.98638	700.45001	 35.50	
 15.300	 90.000	 22.73791	  7.17210	  8.72269	 22.03744	 -3.30530	 -1.14937	 26.01038	700.51001	 35.50	
 15.293	 83.542	 22.77020	  8.65113	  7.33781	 22.00844	 -3.26744	 -1.11798	 26.01318	700.39001	 35.50	
 15.293	 77.103	 22.80861	 10.10899	  6.04051	 21.79733	 -3.08810	 -1.07279	 26.00910	700.50000	 35.50	
 15.297	 70.709	 22.82598	 11.55289	  4.81480	 21.40850	 -2.82189	 -1.04457	 26.00101	700.41998	 35.50	
 15.304	 64.289	 22.88329	 12.98827	  3.66645	 20.86155	 -2.43205	 -1.03985	 26.01199	700.42999	 35.50	
 15.309	 57.858	 22.91613	 14.36427	  2.59241	 20.14660	 -1.96461	 -1.02389	 26.00217	700.50000	 35.50	
 15.305	 51.417	 22.95492	 15.66935	  1.64388	 19.27075	 -1.34868	 -1.03886	 26.00665	700.44000	 35.50	
 15.299	 45.015	 23.01875	 16.88941	  0.82044	 18.26162	 -0.60668	 -1.00818	 26.01068	700.39001	 35.50	
 15.293	 38.572	 23.04548	 18.01500	  0.08410	 17.12732	  0.22857	 -0.97283	 25.99152	700.44000	 35.50	
 15.288	 32.146	 23.09631	 19.00333	 -0.53059	 15.92340	  1.19627	 -0.91675	 26.00746	700.38000	 35.50	
 15.300	 25.739	 23.12531	 19.83063	 -1.04720	 14.63256	  2.30411	 -0.87324	 25.99710	700.39001	 35.50	
 15.307	 19.324	 23.17772	 20.51675	 -1.44613	 13.26634	  3.51554	 -0.86216	 25.99967	700.40002	 35.50	
 15.291	 12.833	 23.23049	 21.02152	 -1.74367	 11.83534	  4.82136	 -0.84632	 26.00841	700.50000	 35.60	
 15.298	  6.413	 23.23360	 21.34013	 -1.93266	 10.39957	  6.12467	 -0.88747	 25.98758	700.44000	 35.60	
 15.300	  0.000	 23.29297	 21.50067	 -1.97596	  9.02549	  7.54046	 -0.85581	 26.01362	700.45001	 35.60	
 15.298	 -6.413	 23.31515	 21.45342	 -1.91238	  7.66528	  8.96645	 -0.83886	 25.99909	700.44000	 35.60	
 15.291	-12.833	 23.36848	 21.22807	 -1.67423	  6.34398	 10.37462	 -0.81814	 26.01403	700.40002	 35.60	
 15.307	-19.324	 23.37756	 20.83013	 -1.40598	  5.06062	 11.84723	 -0.81218	 26.02042	700.40997	 35.60	
 15.300	-25.739	 23.38703	 20.23081	 -0.99405	  3.87483	 13.26792	 -0.84100	 26.00964	700.51001	 35.60	
 15.288	-32.146	 23.39885	 19.47890	 -0.46910	  2.77872	 14.62976	 -0.88686	 25.99450	700.38000	 35.60	
 15.293	-38.572	 23.38832	 18.58962	  0.15718	  1.74289	 15.91525	 -0.92748	 25.99597	700.37000	 35.60	
 15.299	-45.015	 23.39937	 17.56006	  0.88701	  0.81492	 17.10846	 -0.93671	 26.00676	700.41998	 35.60	
 15.305	-51.417	 23.40712	 16.40198	  1.74057	 -0.01221	 18.17993	 -0.93753	 26.00862	700.40997	 35.60	
 15.309	-57.858	 23.38421	 15.11621	  2.73078	 -0.70601	 19.13326	 -0.94832	 25.99992	700.45001	 35.60	
 15.304	-64.289	 23.38212	 13.76639	  3.82774	 -1.20762	 19.93538	 -0.93887	 26.00522	700.47998	 35.60	
 15.297	-70.709	 23.37268	 12.36507	  4.99514	 -1.59681	 20.54839	 -0.95925	 26.00361	700.53998	 35.60	
 15.293	-77.103	 23.33873	 10.91698	  6.22003	 -1.90898	 20.98475	 -1.01666	 25.98690	700.41998	 35.60	
 15.293	-83.542	 23.33672	  9.47403	  7.52457	 -2.11459	 21.26064	 -1.06990	 26.00174	700.40997	 35.60	
 15.300	-90.000	 23.29953	  8.00040	  8.88098	 -2.20309	 21.35172	 -1.09594	 25.99474	700.38000	 35.60	
 15.293	-96.458	 23.26594	  6.54032	 10.27061	 -2.13345	 21.26502	 -1.07289	 25.99866	700.46997	 35.60	
 15.293	-102.897	 23.22732	  5.18714	 11.66785	 -2.02835	 21.00504	 -1.05509	 26.02408	700.50000	 35.60	
 15.297	-109.291	 23.19427	  3.89870	 13.03149	 -1.80926	 20.50714	 -1.02025	 25.98376	700.46997	 35.60	
 15.304	-115.711	 23.13269	  2.67924	 14.40214	 -1.48980	 19.90941	 -1.05521	 26.01570	700.46002	 35.60	
 15.309	-122.142	 23.10987	  1.58500	 15.71847	 -0.99079	 19.08861	 -1.04714	 26.00844	700.50000	 35.60	
 15.305	-128.583	 23.05833	  0.57468	 16.96519	 -0.38707	 18.11517	 -1.04357	 26.00312	700.54999	 35.60	
 15.299	-134.985	 23.02050	 -0.29288	 18.10179	  0.35988	 17.02134	 -1.03764	 25.99457	700.60999	 35.60	
 15.293	-141.428	 22.97471	 -1.06452	 19.15692	  1.23408	 15.81055	 -1.03640	 26.01714	700.53998	 35.60	
 15.288	-147.854	 22.95889	 -1.72100	 20.06470	  2.18628	 14.50874	 -1.03458	 26.00467	700.46997	 35.60	
 15.300	-154.261	 22.91019	 -2.27320	 20.82026	  3.20706	 13.12475	 -1.05158	 25.98764	700.38000	 35.60	
 15.307	-160.676	 22.84761	 -2.68322	 21.41915	  4.31692	 11.71330	 -1.09838	 26.00674	700.51001	 35.60	
 15.291	-167.167	 22.82128	 -2.97342	 21.84037	  5.55956	 10.23716	 -1.12978	 26.00513	700.53998	 35.60	
 15.298	-173.587	 22.77305	 -3.21580	 22.09936	  6.81979	  8.86632	 -1.15691	 26.00037	700.52002	 35.60	
 15.300	180.000	 22.73250	 -3.29300	 22.18324	  8.15364	  7.45069	 -1.17300	 26.00287	700.44000	 35.60	
 17.000	180.000	 21.93022	 -4.73454	 23.00641	  7.49001	  6.84026	 -1.26256	 26.01482	700.42999	 35.60	
 16.990	-174.179	 21.96615	 -4.64049	 22.91358	  6.16982	  8.25646	 -1.23896	 26.00853	700.48999	 35.60	
 17.009	-168.383	 21.99874	 -4.44067	 22.69230	  4.89383	  9.64544	 -1.22765	 26.01287	700.46002	 35.60	
 17.000	-162.596	 22.02444	 -4.17233	 22.29610	  3.67445	 11.08845	 -1.19564	 25.99351	700.52002	 35.60	
 16.990	-156.759	 22.08153	 -3.80618	 21.75288	  2.50963	 12.52171	 -1.17457	 26.00079	700.53998	 35.60	
 16.995	-150.919	 22.11705	 -3.36465	 21.07361	  1.39534	 13.93551	 -1.15783	 26.00500	700.46002	 35.60	
 16.988	-145.161	 22.15570	 -2.81270	 20.23755	  0.43892	 15.26881	 -1.15978	 25.99738	700.44000	 35.60	
 17.014	-139.343	 22.17046	 -2.16881	 19.28168	 -0.41514	 16.52025	 -1.16318	 25.98784	700.56000	 35.60	
 17.007	-133.546	 22.22397	 -1.38777	 18.22244	 -1.15058	 17.69806	 -1.18243	 25.99333	700.48999	 35.60	
 17.001	-127.699	 22.28075	 -0.49057	 17.03442	 -1.79566	 18.78357	 -1.17572	 25.99800	700.51001	 35.60	
 17.006	-121.937	 22.30690	  0.48194	 15.78878	 -2.33799	 19.73712	 -1.16825	 26.00043	700.53998	 35.60	
 17.002	-116.134	 22.36233	  1.56644	 14.46493	 -2.78094	 20.55650	 -1.17021	 25.99158	700.51001	 35.60	
 17.001	-110.310	 22.40397	  2.75123	 13.10472	 -3.12739	 21.22224	 -1.18241	 26.00451	700.53003	 35.60	
 16.988	-104.517	 22.43167	  3.99162	 11.72982	 -3.36761	 21.71297	 -1.21178	 25.98964	700.45001	 35.60	
 17.008	-98.662	 22.46936	  5.33834	 10.31533	 -3.52869	 22.05673	 -1.25284	 25.99514	700.42999	 35.60	
 16.996	-92.909	 22.50380	  6.72914	  8.95744	 -3.61971	 22.22565	 -1.28935	 25.98764	700.46997	 35.60	
 16.996	-87.091	 22.55629	  8.16098	  7.61401	 -3.60507	 22.24448	 -1.27453	 26.00986	700.53998	 35.60	
 17.012	-81.253	 22.56332	  9.60367	  6.26787	 -3.48837	 22.08831	 -1.24575	 26.00123	700.38000	 35.60	
 16.988	-75.483	 22.60182	 11.06476	  4.99623	 -3.23253	 21.74377	 -1.18880	 25.98629	700.38000	 35.60	
 17.001	-69.690	 22.63010	 12.51683	  3.79352	 -2.92423	 21.26602	 -1.15595	 26.00981	700.56000	 35.60	
 17.002	-63.866	 22.63135	 13.93585	  2.63079	 -2.51657	 20.61195	 -1.13664	 26.00418	700.48999	 35.60	
 17.006	-58.063	 22.64245	 15.26345	  1.63808	 -1.98210	 19.81010	 -1.13555	 25.99554	700.46002	 35.60	
 17.001	-52.301	 22.63800	 16.53438	  0.68902	 -1.38138	 18.89666	 -1.12627	 25.98332	700.47998	 35.60	
 17.007	-46.454	 22.65812	 17.72165	 -0.14263	 -0.64236	 17.83536	 -1.11373	 25.98971	700.42999	 35.60	
 17.014	-40.657	 22.64561	 18.81128	 -0.93147	  0.14586	 16.67473	 -1.10205	 25.99314	700.47998	 35.60	
 16.988	-34.839	 22.64947	 19.75923	 -1.54367	  1.12968	 15.40458	 -1.04965	 26.00049	700.54999	 35.60	
 16.995	-29.081	 22.65477	 20.56313	 -2.06738	  2.18784	 14.08546	 -1.00635	 26.00253	700.48999	 35.60	
 16.990	-23.241	 22.61723	 21.22661	 -2.52186	  3.30762	 12.67362	 -0.96291	 25.97117	700.50000	 35.70	
 17.000	-17.404	 22.59460	 21.75805	 -2.89643	  4.50805	 11.22111	 -0.95442	 25.98399	700.48999	 35.60	
 17.009	-11.617	 22.56747	 22.13824	 -3.18141	  5.76352	  9.75439	 -0.95315	 25.99239	700.51001	 35.60	
 16.990	 -5.821	 22.53710	 22.32555	 -3.37633	  7.07736	  8.36129	 -0.95741	 25.98186	700.37000	 35.70	
 17.000	  0.000	 22.49969	 22.36313	 -3.45514	  8.46254	  6.91591	 -0.99457	 25.99327	700.41998	 35.70	
 16.990	  5.821	 22.48731	 22.23544	 -3.37091	  9.84004	  5.53751	 -1.00171	 26.01152	700.44000	 35.70	
 17.009	 11.617	 22.43928	 21.94700	 -3.22514	 11.24576	  4.20804	 -1.02660	 26.01083	700.40002	 35.70	
 17.000	 17.404	 22.38960	 21.47740	 -2.97494	 12.64891	  2.88293	 -1.03963	 25.99890	700.50000	 35.70	
 16.990	 23.241	 22.37076	 20.84544	 -2.60574	 14.05683	  1.68742	 -1.06040	 26.00188	700.51001	 35.70	
 16.995	 29.081	 22.30549	 20.06569	 -2.19093	 15.38781	  0.57979	 -1.10607	 25.99508	700.51001	 35.70	
 16.988	 34.839	 22.26786	 19.14926	 -1.62701	 16.64559	 -0.37523	 -1.14423	 25.99342	700.52002	 35.70	
 17.014	 40.657	 22.22366	 18.16267	 -1.03139	 17.84756	 -1.27128	 -1.18172	 26.00750	700.42999	 35.70	
 17.007	 46.454	 22.17484	 16.99561	 -0.28870	 18.93467	 -2.07257	 -1.23022	 26.00419	700.46002	 35.70	
 17.001	 52.301	 22.12290	 15.73887	  0.52772	 19.89663	 -2.73839	 -1.24360	 25.98943	700.41998	 35.70	
 17.006	 58.063	 22.09197	 14.40646	  1.47737	 20.77140	 -3.30007	 -1.26094	 25.99807	700.52002	 35.70	
 17.002	 63.866	 22.04272	 13.02641	  2.48155	 21.49149	 -3.75885	 -1.24495	 25.99805	700.42999	 35.70	
 17.001	 69.690	 22.01322	 11.58737	  3.62456	 22.07260	 -4.12962	 -1.24785	 25.99100	700.46002	 35.70	
 16.988	 75.483	 21.98774	 10.16863	  4.80848	 22.48631	 -4.41064	 -1.25911	 26.00139	700.42999	 35.70	
 17.012	 81.253	 21.94980	  8.71630	  6.05669	 22.75826	 -4.60235	 -1.28416	 26.00227	700.42999	 35.70	
 16.996	 87.091	 21.91801	  7.24667	  7.41760	 22.85743	 -4.70080	 -1.31777	 25.98824	700.46002	 35.70	
 16.996	 92.909	 21.88453	  5.86143	  8.75284	 22.79424	 -4.69262	 -1.33801	 25.99388	700.40997	 35.70	
 17.008	 98.662	 21.87083	  4.51907	 10.12733	 22.60382	 -4.59991	 -1.32944	 25.99850	700.40002	 35.70	
 16.988	104.517	 21.84314	  3.21055	 11.55098	 22.20316	 -4.39802	 -1.33017	 25.97874	700.46997	 35.70	
 17.001	110.310	 21.84067	  1.99859	 12.94422	 21.70359	 -4.13463	 -1.32457	 25.99019	700.46997	 35.70	
 17.002	116.134	 21.81190	  0.84317	 14.30958	 21.02431	 -3.77804	 -1.33258	 25.99096	700.53003	 35.70	
 17.006	121.937	 21.81109	 -0.18271	 15.67167	 20.19160	 -3.28928	 -1.37139	 25.99814	700.46997	 35.70	
 17.001	127.699	 21.79017	 -1.09252	 16.90869	 19.23979	 -2.71380	 -1.39241	 25.97823	700.46002	 35.70	
 17.007	133.546	 21.79741	 -1.90061	 18.11135	 18.18323	 -2.04201	 -1.43252	 26.01467	700.42999	 35.70	
 17.014	139.343	 21.77885	 -2.61591	 19.18496	 16.99494	 -1.29442	 -1.44225	 26.00322	700.42999	 35.70	
 16.988	145.161	 21.78308	 -3.17798	 20.14817	 15.72208	 -0.40326	 -1.45048	 26.00150	700.46997	 35.70	
 16.995	150.919	 21.81144	 -3.67018	 21.00940	 14.40829	  0.58228	 -1.39778	 26.01115	700.47998	 35.70	
 16.990	156.759	 21.82146	 -4.06655	 21.71091	 13.01019	  1.66154	 -1.36959	 26.00715	700.56000	 35.70	
 17.000	162.596	 21.84392	 -4.36304	 22.26736	 11.60911	  2.85550	 -1.33023	 26.00943	700.53998	 35.70	
 17.009	168.383	 21.85932	 -4.56150	 22.64897	 10.19383	  4.12764	 -1.29456	 26.00251	700.66998	 35.70	
 16.990	174.179	 21.89761	 -4.67375	 22.89816	  8.80575	  5.45965	 -1.28916	 26.01398	700.67999	 35.70	
 18.709	174.675	 20.98588	 -6.04887	 23.62316	  8.07214	  4.76770	 -1.30771	 26.00406	700.64001	 35.70	
 18.703	169.441	 20.95905	 -5.94977	 23.40305	  9.43502	  3.47677	 -1.32828	 26.00707	700.56000	 35.70	
 18.691	164.085	 20.92750	 -5.80095	 23.04087	 10.86488	  2.20849	 -1.37113	 25.98944	700.53998	 35.70	
 18.706	158.818	 20.91231	 -5.54863	 22.53780	 12.27467	  1.03901	 -1.39101	 26.00044	700.64001	 35.70	
 18.695	153.537	 20.89704	 -5.18816	 21.89102	 13.65852	 -0.01891	 -1.43041	 26.00454	700.65997	 35.70	
 18.704	148.255	 20.87137	 -4.79862	 21.11982	 14.99566	 -1.02438	 -1.47785	 25.99559	700.67999	 35.70	
 18.698	142.952	 20.86386	 -4.29706	 20.23015	 16.29965	 -1.92358	 -1.47678	 25.99774	700.59003	 35.70	
 18.699	137.625	 20.89221	 -3.69029	 19.21674	 17.56565	 -2.73987	 -1.50393	 26.00071	700.56000	 35.70	
 18.705	132.343	 20.88802	 -2.95541	 18.10547	 18.69317	 -3.43069	 -1.50935	 25.98920	700.56000	 35.70	
 18.713	127.067	 20.88831	 -2.18013	 16.93205	 19.76234	 -4.09303	 -1.44085	 25.97703	700.51001	 35.70	
 18.700	121.794	 20.90925	 -1.29341	 15.65907	 20.68679	 -4.59340	 -1.45450	 25.99138	700.53003	 35.70	
 18.698	116.504	 20.91908	 -0.29567	 14.34245	 21.54456	 -5.03943	 -1.43359	 26.02603	700.66998	 35.80	
 18.707	111.165	 20.91187	  0.77590	 12.96002	 22.22381	 -5.37619	 -1.41304	 26.00545	700.46997	 35.70	
 18.690	105.863	 20.94386	  1.95815	 11.55794	 22.80041	 -5.63980	 -1.44056	 26.02983	700.60999	 35.80	
 18.696	100.583	 20.94852	  3.22427	 10.14726	 23.18541	 -5.77920	 -1.40454	 26.00271	700.58002	 35.70	
 18.700	 95.309	 20.96815	  4.55984	  8.74386	 23.47150	 -5.95971	 -1.39377	 26.00875	700.52002	 35.70	
 18.700	 90.000	 20.99164	  5.91059	  7.39265	 23.58274	 -5.99979	 -1.37413	 25.99440	700.54999	 35.70	
 18.700	 84.691	 21.01827	  7.31966	  6.05789	 23.56567	 -5.94820	 -1.37707	 26.00445	700.42999	 35.70	
 18.696	 79.417	 21.07125	  8.72566	  4.79043	 23.41126	 -5.81734	 -1.38611	 26.01024	700.42999	 35.70	
 18.690	 74.137	 21.11366	 10.15165	  3.59268	 23.10719	 -5.60685	 -1.37081	 26.00167	700.50000	 35.70	
 18.707	 68.835	 21.13911	 11.60733	  2.41030	 22.66333	 -5.37849	 -1.37064	 26.00955	700.53003	 35.70	
 18.698	 63.496	 21.15915	 13.00855	  1.35367	 22.05480	 -5.03611	 -1.38377	 25.98150	700.51001	 35.70	
 18.700	 58.206	 21.19242	 14.38025	  0.35844	 21.32708	 -4.59799	 -1.39359	 25.98283	700.56000	 35.70	
 18.713	 52.933	 21.25379	 15.75342	 -0.54230	 20.50491	 -4.06478	 -1.37129	 26.00281	700.46002	 35.70	
 18.705	 47.657	 21.29217	 17.00264	 -1.34329	 19.55288	 -3.48257	 -1.29433	 25.98480	700.50000	 35.70	
 18.699	 42.375	 21.32994	 18.19692	 -2.07002	 18.47083	 -2.76704	 -1.26820	 25.98159	700.46997	 35.70	
 18.698	 37.048	 21.38737	 19.27515	 -2.69977	 17.32215	 -1.92929	 -1.23570	 25.98577	700.46002	 35.70	
 18.704	 31.745	 21.42503	 20.22423	 -3.26894	 16.06818	 -1.02471	 -1.18140	 25.99452	700.50000	 35.70	
 18.695	 26.463	 21.47273	 21.06211	 -3.73138	 14.76201	 -0.01332	 -1.15032	 25.99174	700.56000	 35.70	
 18.706	 21.182	 21.51530	 21.76632	 -4.10666	 13.41313	  1.06135	 -1.10950	 25.98293	700.41998	 35.70	
 18.691	 15.915	 21.55159	 22.34742	 -4.41259	 12.01320	  2.23748	 -1.06810	 25.97958	700.46002	 35.70	
 18.703	 10.559	 21.60431	 22.77636	 -4.58852	 10.59141	  3.54551	 -1.05179	 25.97876	700.65997	 35.70	
 18.709	  5.325	 21.64344	 23.05236	 -4.72371	  9.21660	  4.85572	 -1.03511	 25.99818	700.46997	 35.70	
 18.700	  0.000	 21.65374	 23.16833	 -4.81088	  7.84570	  6.26183	 -1.00277	 25.98223	700.50000	 35.70	
 18.709	 -5.325	 21.70299	 23.15378	 -4.75987	  6.49216	  7.69256	 -0.97629	 25.98411	700.45001	 35.70	
 18.703	-10.559	 21.73882	 22.97838	 -4.60706	  5.19688	  9.08823	 -0.99087	 25.98398	700.46997	 35.70	
 18.691	-15.915	 21.76926	 22.64950	 -4.32167	  3.92240	 10.51662	 -0.99098	 25.97639	700.51001	 35.70	
 18.706	-21.182	 21.76175	 22.17192	 -4.02169	  2.68286	 11.93287	 -1.02613	 25.96254	700.53998	 35.70	
 18.695	-26.463	 21.80955	 21.58342	 -3.62307	  1.57784	 13.35232	 -1.03733	 25.98626	700.46002	 35.70	
 18.704	-31.745	 21.80783	 20.82980	 -3.15296	  0.53885	 14.72869	 -1.06462	 25.98445	700.51001	 35.80	
 18.698	-37.048	 21.80579	 19.94878	 -2.61908	 -0.42584	 16.03804	 -1.09527	 25.97780	700.53998	 35.80	
 18.699	-42.375	 21.82312	 18.95781	 -1.98333	 -1.27824	 17.29199	 -1.12188	 25.99883	700.60999	 35.80	
 18.705	-47.657	 21.84488	 17.85613	 -1.21897	 -2.03681	 18.44482	 -1.14418	 25.99865	700.53998	 35.80	
 18.713	-52.933	 21.83204	 16.63081	 -0.39385	 -2.71439	 19.47833	 -1.16620	 25.99610	700.47998	 35.80	
 18.700	-58.206	 21.82737	 15.34248	  0.53204	 -3.31101	 20.41204	 -1.19081	 25.99099	700.59003	 35.80	
 18.698	-63.496	 21.80800	 14.01126	  1.50938	 -3.81387	 21.19025	 -1.21739	 25.98736	700.52002	 35.80	
 18.707	-68.835	 21.79112	 12.58268	  2.59974	 -4.21999	 21.86623	 -1.23704	 25.99280	700.47998	 35.70	
 18.690	-74.137	 21.78860	 11.14772	  3.79773	 -4.50571	 22.38289	 -1.23648	 26.00460	700.39001	 35.80	
 18.696	-79.417	 21.75798	  9.71295	  5.01550	 -4.75310	 22.73767	 -1.28502	 25.99284	700.47998	 35.80	
 18.700	-84.691	 21.71626	  8.27689	  6.28851	 -4.91917	 22.94963	 -1.31282	 25.98363	700.59003	 35.80	
 18.700	-90.000	 21.69469	  6.84743	  7.63343	 -4.97600	 23.03004	 -1.30638	 25.99135	700.56000	 35.80	
 18.700	-95.309	 21.64488	  5.46878	  8.96300	 -4.96696	 22.94935	 -1.28505	 25.98978	700.52002	 35.80	
 18.696	-100.583	 21.61954	  4.11154	 10.35312	 -4.83386	 22.71582	 -1.24560	 25.98866	700.58002	 35.80	
 18.690	-105.863	 21.57695	  2.82614	 11.73576	 -4.66630	 22.32907	 -1.20344	 25.98866	700.59003	 35.80	
 18.707	-111.165	 21.53384	  1.61769	 13.09089	 -4.44263	 21.81713	 -1.19131	 25.99417	700.54999	 35.80	
 18.698	-116.504	 21.50147	  0.47774	 14.46843	 -4.08843	 21.11786	 -1.18379	 25.98579	700.51001	 35.80	
 18.700	-121.794	 21.44986	 -0.59181	 15.80595	 -3.66574	 20.28563	 -1.15826	 25.98038	700.58002	 35.80	
 18.713	-127.067	 21.41240	 -1.55536	 17.04597	 -3.18444	 19.37554	 -1.16993	 25.98612	700.53998	 35.80	
 18.705	-132.343	 21.37234	 -2.39294	 18.20027	 -2.57180	 18.34143	 -1.17175	 25.98808	700.59998	 35.80	
 18.699	-137.625	 21.31799	 -3.17544	 19.30810	 -1.89926	 17.18406	 -1.14682	 25.97112	700.53998	 35.80	
 18.698	-142.952	 21.27291	 -3.84553	 20.30969	 -1.11922	 15.92578	 -1.15751	 25.97363	700.59998	 35.80	
 18.704	-148.255	 21.24759	 -4.42992	 21.21009	 -0.25238	 14.62901	 -1.13182	 26.00226	700.67999	 35.80	
 18.695	-153.537	 21.21628	 -4.88780	 21.96066	  0.72321	 13.24307	 -1.15837	 25.99618	700.56000	 35.80	
 18.706	-158.818	 21.16148	 -5.28941	 22.59350	  1.75334	 11.83161	 -1.15974	 25.98940	700.54999	 35.80	
 18.691	-164.085	 21.12997	 -5.57472	 23.07367	  2.90263	 10.38290	 -1.17559	 25.98075	700.54999	 35.80	
 18.703	-169.441	 21.09328	 -5.83121	 23.44221	  4.17547	  8.92591	 -1.19573	 25.98732	700.45001	 35.80	
 18.709	-174.675	 21.02878	 -5.99195	 23.61856	  5.47107	  7.49974	 -1.20090	 25.96237	700.56000	 35.80	
 18.700	180.000	 21.02362	 -6.05714	 23.71068	  6.79760	  6.12385	 -1.22072	 25.99519	700.56000	 35.80	
 20.400	180.000	 20.04253	 -7.33990	 24.32371	  5.96498	  5.39870	 -1.17591	 25.98190	700.48999	 35.80	
 20.401	-175.153	 20.06443	 -7.28699	 24.26440	  4.66819	  6.77295	 -1.14563	 25.98618	700.54999	 35.80	
 20.407	-170.264	 20.09683	 -7.18141	 24.09321	  3.41392	  8.18136	 -1.14212	 25.99072	700.59003	 35.80	
 20.410	-165.423	 20.12547	 -6.96264	 23.76219	  2.20790	  9.62283	 -1.13417	 25.98176	700.51001	 35.80	
 20.392	-160.496	 20.16952	 -6.67700	 23.30927	  1.09374	 11.07296	 -1.14002	 25.98166	700.47998	 35.80	
 20.401	-155.705	 20.21451	 -6.35753	 22.75859	  0.05801	 12.47310	 -1.11650	 25.99159	700.40002	 35.80	
 20.405	-150.835	 20.25229	 -5.94069	 22.03989	 -0.91524	 13.87247	 -1.09267	 25.98120	700.48999	 35.80	
 20.397	-145.903	 20.30526	 -5.42303	 21.19845	 -1.81405	 15.25300	 -1.09713	 25.98015	700.52002	 35.80	
 20.392	-141.062	 20.35953	 -4.83581	 20.29494	 -2.60802	 16.54285	 -1.10178	 26.00075	700.53003	 35.80	
 20.396	-136.227	 20.39295	 -4.18874	 19.27870	 -3.29862	 17.74107	 -1.10230	 25.99513	700.53003	 35.80	
 20.408	-131.372	 20.42067	 -3.43715	 18.16837	 -3.95414	 18.89174	 -1.08128	 25.98459	700.60999	 35.80	
 20.410	-126.511	 20.46108	 -2.59644	 16.98235	 -4.48239	 19.90865	 -1.09809	 25.98063	700.57001	 35.80	
 20.400	-121.604	 20.51482	 -1.64843	 15.72270	 -4.93450	 20.84244	 -1.11730	 25.98927	700.46002	 35.80	
 20.403	-116.741	 20.54230	 -0.64189	 14.40664	 -5.32871	 21.62211	 -1.11799	 25.97738	700.53003	 35.80	
 20.413	-111.900	 20.58565	  0.45513	 13.06188	 -5.64441	 22.32295	 -1.15905	 25.98864	700.54999	 35.80	
 20.398	-107.004	 20.65129	  1.64342	 11.69874	 -5.88400	 22.89155	 -1.17059	 25.99882	700.50000	 35.80	
 20.394	-102.132	 20.67204	  2.83093	 10.34636	 -6.08399	 23.30860	 -1.20924	 25.99695	700.48999	 35.80	
 20.403	-97.332	 20.70214	  4.14284	  8.96126	 -6.21650	 23.57766	 -1.23927	 25.98301	700.52002	 35.80	
 20.392	-92.440	 20.73649	  5.48754	  7.61865	 -6.26177	 23.70420	 -1.26240	 25.96738	700.40997	 35.80	
 20.392	-87.560	 20.77733	  6.88365	  6.28572	 -6.23837	 23.71623	 -1.26787	 25.97463	700.52002	 35.80	
 20.403	-82.668	 20.80900	  8.29216	  5.00443	 -6.15519	 23.60211	 -1.26314	 25.98595	700.46002	 35.80	
 20.394	-77.868	 20.83267	  9.69720	  3.76430	 -5.98878	 23.32811	 -1.29756	 25.97936	700.38000	 35.80	
 20.398	-72.996	 20.85674	 11.12614	  2.59021	 -5.77072	 22.92877	 -1.26173	 25.98490	700.50000	 35.80	
 20.413	-68.100	 20.86872	 12.56451	  1.45333	 -5.44359	 22.37917	 -1.26274	 25.97440	700.52002	 35.80	
 20.403	-63.259	 20.88436	 13.95096	  0.41971	 -5.07817	 21.73691	 -1.24840	 25.99480	700.42999	 35.80	
 20.400	-58.396	 20.90596	 15.29691	 -0.54212	 -4.60416	 20.94045	 -1.21583	 25.98598	700.42999	 35.80	
 20.410	-53.489	 20.90642	 16.60296	 -1.45681	 -4.05017	 20.01880	 -1.18567	 25.98856	700.47998	 35.80	
 20.408	-48.628	 20.92876	 17.84840	 -2.29145	 -3.40295	 18.99046	 -1.15991	 26.00593	700.41998	 35.80	
 20.396	-43.773	 20.92044	 18.96932	 -3.00454	 -2.65768	 17.84594	 -1.13222	 25.99021	700.48999	 35.80	
 20.392	-38.938	 20.91760	 19.98888	 -3.61023	 -1.87570	 16.63815	 -1.10704	 25.97136	700.50000	 35.80	
 20.397	-34.097	 20.90246	 20.94049	 -4.20917	 -1.03184	 15.36760	 -1.07927	 26.00140	700.51001	 35.80	
 20.405	-29.165	 20.89733	 21.73919	 -4.66741	 -0.04117	 13.99965	 -1.06769	 25.97596	700.42999	 35.80	
 20.401	-24.295	 20.89077	 22.43775	 -5.10514	  0.98506	 12.60969	 -1.05634	 25.97876	700.48999	 35.80	
 20.392	-19.504	 20.88030	 22.98896	 -5.43571	  2.09500	 11.21056	 -1.07621	 25.99124	700.33002	 35.80	
 20.410	-14.577	 20.86345	 23.42480	 -5.72609	  3.29351	  9.76169	 -1.06397	 25.98947	700.44000	 35.80	
 20.407	 -9.736	 20.81006	 23.71627	 -5.94807	  4.55048	  8.38391	 -1.04398	 25.99617	700.47998	 35.80	
 20.401	 -4.847	 20.77155	 23.86833	 -6.07287	  5.87352	  6.98628	 -1.03630	 26.00303	700.51001	 35.80	
 20.400	  0.000	 20.74829	 23.86754	 -6.10744	  7.16895	  5.57404	 -1.03367	 25.99198	700.42999	 35.80	
 20.401	  4.847	 20.74490	 23.75183	 -6.04738	  8.52652	  4.19604	 -1.04689	 25.99906	700.53003	 35.80	
 20.407	  9.736	 20.67092	 23.49302	 -5.95839	  9.90298	  2.85947	 -1.08833	 25.98722	700.39001	 35.80	
 20.410	 14.577	 20.62494	 23.12689	 -5.81420	 11.28390	  1.60986	 -1.11646	 26.01021	700.48999	 35.80	
 20.392	 19.504	 20.59414	 22.58333	 -5.55204	 12.68971	  0.43896	 -1.15493	 25.99319	700.56000	 35.80	
 20.401	 24.295	 20.55937	 21.93873	 -5.22734	 14.04376	 -0.63876	 -1.20172	 26.00487	700.46997	 35.80	
 20.405	 29.165	 20.50705	 21.16089	 -4.81214	 15.35324	 -1.63958	 -1.25673	 25.98272	700.40002	 35.80	
 20.397	 34.097	 20.47832	 20.27943	 -4.31881	 16.65955	 -2.54630	 -1.27824	 26.00965	700.51001	 35.80	
 20.392	 38.938	 20.44884	 19.25758	 -3.71685	 17.88051	 -3.38192	 -1.30106	 26.00400	700.48999	 35.80	
 20.396	 43.773	 20.39894	 18.15280	 -3.07169	 19.01000	 -4.12754	 -1.29579	 26.00142	700.40002	 35.80	
 20.408	 48.628	 20.35133	 16.94696	 -2.37302	 20.05173	 -4.76835	 -1.32253	 25.99127	700.46002	 35.80	
 20.410	 53.489	 20.30995	 15.67923	 -1.61012	 20.99607	 -5.38148	 -1.33540	 25.99712	700.35999	 35.80	
 20.400	 58.396	 20.27518	 14.31792	 -0.71278	 21.85102	 -5.85008	 -1.34561	 25.98607	700.35999	 35.80	
 20.403	 63.259	 20.23004	 12.93266	  0.22133	 22.57298	 -6.25213	 -1.35842	 25.99328	700.39001	 35.80	
 20.413	 68.100	 20.19361	 11.55403	  1.24239	 23.16757	 -6.55771	 -1.34837	 25.99919	700.42999	 35.80	
 20.398	 72.996	 20.16915	 10.11172	  2.37028	 23.62570	 -6.80565	 -1.33464	 25.97457	700.40002	 35.80	
 20.394	 77.868	 20.12377	  8.67202	  3.53526	 23.95690	 -6.99272	 -1.33752	 25.97253	700.47998	 35.80	
 20.403	 82.668	 20.09287	  7.30869	  4.72985	 24.17640	 -7.14444	 -1.33533	 25.99136	700.44000	 35.80	
 20.392	 87.560	 20.06962	  5.88823	  6.04320	 24.25127	 -7.21890	 -1.31031	 25.98295	700.40002	 35.80	
 20.392	 92.440	 20.03896	  4.51742	  7.38297	 24.20078	 -7.22260	 -1.31890	 25.99080	700.46997	 35.80	
 20.403	 97.332	 19.98970	  3.17575	  8.74496	 24.01783	 -7.14501	 -1.33795	 25.98962	700.40997	 35.80	
 20.394	102.132	 19.98424	  1.92408	 10.12285	 23.70111	 -6.99121	 -1.35630	 25.99373	700.47998	 35.80	
 20.398	107.004	 19.96671	  0.71659	 11.51174	 23.26095	 -6.79995	 -1.35339	 25.98919	700.42999	 35.80	
 20.413	111.900	 19.93551	 -0.41132	 12.89135	 22.68544	 -6.54563	 -1.36138	 25.98519	700.46997	 35.80	
 20.403	116.741	 19.92542	 -1.45511	 14.25939	 21.98099	 -6.21164	 -1.37671	 25.97477	700.44000	 35.80	
 20.400	121.604	 19.91860	 -2.39378	 15.55553	 21.18843	 -5.84294	 -1.39108	 25.99492	700.38000	 35.80	
 20.410	126.511	 19.89283	 -3.27244	 16.83847	 20.22956	 -5.37662	 -1.38359	 25.99058	700.46997	 35.80	
 20.408	131.372	 19.90091	 -4.04747	 18.06579	 19.18385	 -4.79756	 -1.39410	 25.98964	700.40997	 35.80	
 20.396	136.227	 19.90823	 -4.72725	 19.19707	 18.05573	 -4.15659	 -1.38752	 25.99898	700.53998	 35.80	
 20.392	141.062	 19.91467	 -5.31809	 20.23047	 16.84830	 -3.40758	 -1.37499	 25.99529	700.48999	 35.80	
 20.397	145.903	 19.89067	 -5.84163	 21.14303	 15.58548	 -2.62032	 -1.36463	 25.99463	700.53998	 35.80	
 20.405	150.835	 19.88540	 -6.29327	 21.98520	 14.22487	 -1.69939	 -1.32672	 25.98660	700.48999	 35.80	
 20.401	155.705	 19.90352	 -6.64482	 22.70168	 12.84079	 -0.68467	 -1.28793	 25.98728	700.48999	 35.80	
 20.392	160.496	 19.92846	 -6.90248	 23.27563	 11.47357	  0.37449	 -1.29083	 25.98252	700.50000	 35.90	
 20.410	165.423	 19.94144	 -7.14992	 23.75387	 10.04735	  1.53650	 -1.25758	 25.98429	700.52002	 35.80	
 20.407	170.264	 19.98131	 -7.28914	 24.09772	  8.66375	  2.76416	 -1.22241	 26.02033	700.54999	 35.80	
 20.401	175.153	 19.99829	 -7.33896	 24.26497	  7.29745	  4.05353	 -1.18862	 25.98449	700.52002	 35.90	
  0.141	 45.000	 26.07487	 10.41189	 11.50994	 11.38074	 10.11626	  0.67855	 25.98893	700.46002	 35.80	
  4.001	128.691	 25.88836	  8.06070	 13.44861	 13.69889	  7.55361	  0.47176	 25.99483	700.46997	 35.80	
  4.002	 76.995	 25.91559	 10.80809	 10.64105	 14.46496	  6.98684	  0.54405	 25.97070	700.56000	 35.80	
  4.002	 25.892	 25.99582	 13.28184	  8.55957	 12.72009	  8.62615	  0.60089	 25.99340	700.52002	 35.80	
  4.002	-25.892	 26.01868	 13.39180	  8.51984	  9.78118	 11.48614	  0.60672	 25.98196	700.48999	 35.80	
  4.002	-76.995	 25.99809	 11.00399	 10.67972	  8.09025	 13.39818	  0.58338	 25.97550	700.57001	 35.80	
  4.001	-128.691	 25.94053	  8.15559	 13.50426	  8.59408	 12.65973	  0.50432	 25.97304	700.52002	 35.80	
  4.000	180.000	 25.90848	  6.97729	 14.77057	 10.97295	 10.00613	  0.45952	 25.98772	700.52002	 35.90	
  8.000	180.000	 25.24840	  3.38091	 17.74299	 10.29588	  9.36922	 -0.08316	 25.96305	700.39001	 35.90	
  7.991	-152.370	 25.33610	  4.12996	 16.94267	  7.41956	 12.54382	 -0.01504	 25.98237	700.46997	 35.90	
  7.997	-124.550	 25.41727	  6.06886	 14.68866	  5.34336	 15.22609	  0.06706	 25.97063	700.46002	 35.90	
  8.006	-96.837	 25.48558	  8.98100	 11.60083	  4.55775	 16.51738	  0.16278	 25.96877	700.40997	 35.90	
  7.988	-69.228	 25.54411	 12.21082	  8.63174	  4.96282	 16.10853	  0.17411	 25.97006	700.53003	 35.90	
  7.997	-41.563	 25.57493	 15.01310	  6.30889	  6.62839	 14.08422	  0.13652	 25.97419	700.52002	 35.90	
  8.008	-13.821	 25.54489	 16.60995	  5.01736	  9.24691	 11.03685	  0.12269	 25.98270	700.60999	 35.90	
  8.008	 13.821	 25.48077	 16.48820	  4.91258	 12.38028	  7.90125	  0.13722	 25.97400	700.60999	 35.90	
  7.997	 41.563	 25.37843	 14.71590	  6.13129	 15.28698	  5.26736	  0.12535	 25.95970	700.59003	 35.90	
  7.988	 69.228	 25.31304	 11.79472	  8.50738	 17.14802	  3.71712	  0.11252	 25.97541	700.53998	 35.90	
  8.006	 96.837	 25.25799	  8.52463	 11.52113	 17.47169	  3.39949	 -0.01514	 25.99843	700.46002	 35.90	
  7.997	124.550	 25.20264	  5.73126	 14.62269	 16.11092	  4.32083	 -0.05174	 25.98151	700.46002	 35.90	
  7.991	152.370	 25.23010	  3.95499	 16.90720	 13.45969	  6.47832	 -0.10324	 25.98546	700.46997	 35.80	
 12.009	161.059	 24.02493	 -0.00474	 19.76686	 12.49066	  5.36623	 -0.74414	 25.99176	700.47998	 35.90	
 12.013	142.081	 23.98369	  1.12353	 18.03655	 15.64682	  2.77638	 -0.77701	 25.99378	700.39001	 35.90	
 12.006	123.113	 24.00735	  3.16373	 15.38163	 18.17140	  0.88633	 -0.68403	 25.97235	700.59998	 35.80	
 12.007	104.200	 24.03008	  5.88037	 12.22898	 19.75549	 -0.16435	 -0.65216	 25.97680	700.57001	 35.80	
 11.989	 85.301	 24.10255	  9.08018	  9.02112	 20.17278	 -0.37547	 -0.61318	 25.98252	700.60999	 35.90	
 12.013	 66.294	 24.16500	 12.46872	  6.02647	 19.42765	  0.15159	 -0.49398	 25.98221	700.57001	 35.90	
 12.012	 47.388	 24.26394	 15.57838	  3.61413	 17.54195	  1.67395	 -0.48580	 25.97718	700.52002	 35.90	
 11.990	 28.440	 24.37340	 17.96390	  1.92489	 14.82068	  3.97843	 -0.38596	 25.98437	700.35999	 35.90	
 11.991	  9.464	 24.46571	 19.31816	  1.07093	 11.58550	  6.92670	 -0.41059	 25.98068	700.38000	 35.90	
 11.991	 -9.464	 24.53794	 19.41744	  1.15649	  8.39061	 10.11530	 -0.42669	 25.97527	700.38000	 35.90	
 11.990	-28.440	 24.58555	 18.31621	  2.03790	  5.47674	 13.45593	 -0.40849	 25.98782	700.40002	 35.90	
 12.012	-47.388	 24.58842	 16.11998	  3.70700	  3.07467	 16.36994	 -0.44587	 25.98256	700.45001	 35.90	
 12.013	-66.294	 24.56601	 13.10856	  6.17301	  1.53093	 18.40865	 -0.41373	 25.97680	700.42999	 35.90	
 11.989	-85.301	 24.52655	  9.73341	  9.15211	  0.89309	 19.30751	 -0.50966	 25.97652	700.40997	 35.90	
 12.007	-104.200	 24.46229	  6.46133	 12.35931	  1.04037	 19.01286	 -0.52688	 25.99380	700.51001	 35.90	
 12.006	-123.113	 24.35412	  3.64117	 15.49642	  1.91251	 17.46972	 -0.55795	 25.98400	700.39001	 35.90	
 12.013	-142.081	 24.24133	  1.44594	 18.08706	  3.70780	 14.90585	 -0.59219	 25.97378	700.52002	 35.90	
 12.009	-161.059	 24.17776	  0.18352	 19.80197	  6.28541	 11.73090	 -0.66604	 25.99326	700.46002	 35.90	
 16.000	180.000	 22.39281	 -3.89380	 22.53027	  7.88122	  7.17084	 -1.17043	 25.97614	700.42999	 35.90	
 15.990	-165.604	 22.50673	 -3.49585	 22.08680	  4.87752	 10.44842	 -1.11703	 25.99588	700.34998	 35.90	
 16.002	-151.165	 22.59361	 -2.60625	 20.76631	  2.21917	 13.79243	 -1.04540	 25.99898	700.47998	 35.90	
 16.002	-136.836	 22.67758	 -1.06936	 18.59438	  0.03260	 16.82199	 -1.05400	 25.98327	700.46002	 35.90	
 15.995	-122.439	 22.79874	  1.06807	 15.86134	 -1.51181	 19.28066	 -1.06187	 25.99690	700.35999	 35.90	
 15.993	-107.966	 22.86593	  3.77522	 12.68704	 -2.44182	 20.94607	 -1.06773	 25.98291	700.44000	 35.90	
 16.005	-93.629	 22.96723	  6.93025	  9.44872	 -2.80579	 21.68380	 -1.14296	 25.98716	700.41998	 35.90	
 15.992	-79.234	 23.04247	 10.33842	  6.31884	 -2.56572	 21.45168	 -1.07331	 25.98791	700.51001	 35.90	
 16.009	-64.774	 23.07384	 13.69250	  3.46400	 -1.77163	 20.24927	 -0.98386	 25.97515	700.33002	 35.90	
 15.997	-50.364	 23.09534	 16.74902	  1.13842	 -0.39854	 18.21261	 -0.96579	 25.96626	700.42999	 35.90	
 15.997	-36.045	 23.10990	 19.23736	 -0.62926	  1.65463	 15.51714	 -0.92260	 25.99342	700.33002	 35.90	
 16.000	-21.597	 23.08826	 20.96841	 -1.81225	  4.23225	 12.31056	 -0.82781	 25.99028	700.34998	 35.90	
 16.003	 -7.169	 23.03009	 21.81163	 -2.47501	  7.23161	  8.94056	 -0.83136	 25.98800	700.44000	 35.90	
 16.003	  7.169	 22.94263	 21.71075	 -2.51103	 10.41921	  5.64249	 -0.87986	 25.99902	700.32001	 35.90	
 16.000	 21.597	 22.83874	 20.61346	 -1.89431	 13.73629	  2.61437	 -0.89008	 25.98848	700.44000	 35.90	
 15.997	 36.045	 22.73747	 18.66395	 -0.72873	 16.77468	  0.09318	 -0.99457	 25.98246	700.42999	 35.90	
 15.997	 50.364	 22.63413	 16.02525	  0.99305	 19.31822	 -1.80575	 -1.07630	 25.99004	700.38000	 35.90	
 16.009	 64.774	 22.53677	 12.87486	  3.29432	 21.20442	 -3.06408	 -1.07085	 25.99941	700.40002	 35.90	
 15.992	 79.234	 22.45547	  9.47425	  6.12494	 22.22016	 -3.76876	 -1.11573	 25.98433	700.42999	 35.80	
 16.005	 93.629	 22.36898	  6.11735	  9.23474	 22.31534	 -3.91031	 -1.19228	 25.96898	700.42999	 35.90	
 15.993	107.966	 22.33661	  3.05417	 12.54347	 21.50496	 -3.46609	 -1.17380	 25.97902	700.46002	 35.90	
 15.995	122.439	 22.31258	  0.46068	 15.73005	 19.80313	 -2.48261	 -1.20350	 25.97952	700.42999	 35.90	
 16.002	136.836	 22.30055	 -1.52726	 18.53483	 17.35144	 -0.92434	 -1.29206	 25.99703	700.46997	 35.90	
 16.002	151.165	 22.28606	 -2.87343	 20.68082	 14.36421	  1.21400	 -1.27937	 25.97489	700.57001	 35.90	
 15.990	165.604	 22.34800	 -3.63105	 22.05348	 11.09701	  4.02477	 -1.19297	 25.98088	700.46002	 35.90	
 20.003	168.362	 20.20122	 -6.91593	 23.81946	  9.33225	  2.48749	 -1.24739	 25.97500	700.58002	 35.90	
 20.008	156.764	 20.13049	 -6.42268	 22.71871	 12.60121	 -0.23513	 -1.33705	 25.96758	700.50000	 35.90	
 20.000	145.147	 20.11098	 -5.47749	 20.90794	 15.77722	 -2.49126	 -1.38909	 25.97943	700.45001	 35.80	
 19.995	133.545	 20.12114	 -4.07483	 18.52425	 18.62775	 -4.25032	 -1.41473	 25.96714	700.46997	 35.80	
 20.009	121.926	 20.13831	 -2.19902	 15.66427	 21.01231	 -5.56048	 -1.39353	 25.97860	700.44000	 35.80	
 20.005	110.327	 20.19398	  0.16721	 12.54612	 22.77012	 -6.37043	 -1.36752	 26.00629	700.51001	 35.80	
 19.989	 98.733	 20.23985	  3.01481	  9.28586	 23.81501	 -6.82771	 -1.35572	 26.00068	700.44000	 35.80	
 19.999	 87.075	 20.29496	  6.16992	  6.09937	 24.11022	 -6.95130	 -1.31190	 25.99346	700.50000	 35.80	
 19.992	 75.457	 20.38408	  9.50129	  3.18654	 23.68464	 -6.63012	 -1.33695	 25.98595	700.34998	 35.80	
 20.009	 63.844	 20.45117	 12.84847	  0.58340	 22.51969	 -6.02054	 -1.34676	 25.99027	700.34998	 35.80	
 19.989	 52.269	 20.55589	 15.98863	 -1.53601	 20.68223	 -4.94422	 -1.32345	 26.00056	700.46997	 35.80	
 19.999	 40.602	 20.64420	 18.82657	 -3.22459	 18.22675	 -3.38233	 -1.28349	 25.99803	700.50000	 35.80	
 20.004	 29.051	 20.74190	 21.07208	 -4.51847	 15.36285	 -1.36011	 -1.21860	 25.99157	700.46997	 35.80	
 20.005	 17.433	 20.85357	 22.68149	 -5.33131	 12.18600	  1.17875	 -1.13203	 25.99419	700.40002	 35.80	
 20.006	  5.780	 20.95351	 23.57510	 -5.73905	  8.92082	  4.11949	 -1.05353	 25.99999	700.50000	 35.80	
 20.006	 -5.780	 21.01830	 23.68868	 -5.74374	  5.81658	  7.38113	 -1.00275	 25.98957	700.48999	 35.80	
 20.005	-17.433	 21.09590	 23.04923	 -5.25063	  2.82007	 10.69246	 -1.05750	 25.98573	700.37000	 35.80	
 20.004	-29.051	 21.12632	 21.65620	 -4.38608	  0.24073	 13.99481	 -1.07027	 25.99567	700.38000	 35.80	
 19.999	-40.602	 21.14623	 19.59743	 -3.13790	 -1.87877	 17.02477	 -1.10135	 25.99501	700.35999	 35.80	
 19.989	-52.269	 21.13719	 16.89470	 -1.38944	 -3.59878	 19.67234	 -1.18521	 25.98411	700.42999	 35.80	
 20.009	-63.844	 21.11578	 13.83239	  0.80096	 -4.80352	 21.67218	 -1.22769	 25.98454	700.40997	 35.80	
 19.992	-75.457	 21.09000	 10.52076	  3.39008	 -5.58791	 22.99577	 -1.27884	 26.00308	700.53003	 35.80	
 19.999	-87.075	 21.01129	  7.15301	  6.34159	 -5.95346	 23.58285	 -1.27659	 25.99871	700.53998	 35.80	
 19.989	-98.733	 20.92708	  3.95479	  9.48316	 -5.88440	 23.35378	 -1.23560	 25.98880	700.54999	 35.80	
 20.005	-110.327	 20.83217	  1.05270	 12.67729	 -5.44930	 22.38380	 -1.14865	 25.99325	700.51001	 35.80	
 20.009	-121.926	 20.76285	 -1.42685	 15.80912	 -4.63192	 20.68210	 -1.11144	 26.02033	700.50000	 35.80	
 19.995	-133.545	 20.65323	 -3.50244	 18.63374	 -3.37543	 18.32620	 -1.11065	 25.99078	700.42999	 35.80	
 20.000	-145.147	 20.53587	 -5.06726	 20.98964	 -1.67897	 15.44864	 -1.10711	 25.98758	700.50000	 35.80	
 20.008	-156.764	 20.43404	 -6.14040	 22.76113	  0.52497	 12.20098	 -1.13423	 25.97694	700.46997	 35.80	
 20.003	-168.362	 20.33957	 -6.79860	 23.83793	  3.13394	  8.85445	 -1.13328	 25.97485	700.39001	 35.80	
 20.000	180.000	 20.26857	 -7.05073	 24.19932	  6.15398	  5.55497	 -1.16965	 25.98931	700.46997	 35.80	
