FileType=PCF
NHL=14
Date=05/29/19	11:21:39
Facility=APL
Serial=16071-13
Customer=NASA
NP=6
Mach=0.550000
Calibration=1:1
CalPts=490
TstPts=95
PortNumbering=AP Standard
Units=Torr C m/s kg/m^3 deg mm 
Theta[deg]	Phi[deg]	P1[Torr]	P2[Torr]	P3[Torr]	P4[Torr]	P5[Torr]	P6[Torr]	Pt[Torr]	Ps[Abs,Torr]	Ts[C]	
  0.000	  0.000	160.97621	 68.71136	 81.75343	 74.33589	 73.59573	  6.13651	160.84514	702.60999	 38.90	
  1.691	128.401	160.91254	 63.80902	 86.27466	 80.22618	 67.19087	  6.01332	160.86900	702.56000	 38.90	
  1.692	 77.194	160.99965	 70.55393	 79.78807	 82.19151	 65.71736	  6.06765	160.87737	702.64001	 39.00	
  1.699	 26.182	161.03093	 76.18487	 74.58580	 78.19930	 69.89204	  6.05038	160.89655	702.62000	 39.00	
  1.699	-26.182	161.03114	 76.19284	 74.58169	 71.06114	 76.97587	  5.99442	160.89935	702.65002	 39.00	
  1.692	-77.194	161.00302	 70.23315	 79.84631	 66.62452	 81.23579	  5.97131	160.88834	702.57001	 39.00	
  1.691	-128.401	160.99907	 63.47538	 86.39606	 67.80010	 79.65282	  5.95487	160.94785	702.57001	 39.10	
  1.700	180.000	160.96338	 60.85612	 89.30607	 73.80892	 73.28465	  5.96298	160.97174	702.48999	 39.10	
  3.400	180.000	160.39868	 52.74044	 96.92698	 72.82074	 72.59123	  5.39280	160.92548	702.57001	 39.10	
  3.388	-152.325	160.57607	 54.54179	 95.07063	 65.73222	 80.21257	  5.45201	161.01404	702.57001	 39.10	
  3.397	-124.529	160.70856	 58.96745	 89.81866	 60.60965	 86.23075	  5.51331	161.04147	702.59998	 39.20	
  3.399	-96.763	160.82381	 66.03146	 82.75472	 58.24984	 88.99442	  5.52253	160.99850	702.59998	 39.30	
  3.394	-69.283	160.99643	 73.73981	 75.53286	 59.46812	 88.24327	  5.54276	161.02303	702.58002	 39.40	
  3.400	-41.398	161.03693	 80.75574	 69.40686	 63.90897	 83.71503	  5.50731	160.98473	702.54999	 39.50	
  3.401	-14.021	161.09233	 84.56523	 66.13251	 70.68290	 76.88476	  5.53696	161.03362	702.69000	 39.60	
  3.401	 14.021	161.13701	 84.53357	 66.17229	 78.71538	 68.97784	  5.64131	161.05925	702.71997	 39.70	
  3.400	 41.398	161.06099	 80.74677	 69.43341	 85.30129	 62.50578	  5.72839	161.05856	702.64001	 39.80	
  3.394	 69.283	160.99051	 74.07823	 75.49122	 89.35494	 58.30928	  5.75184	161.08136	702.54999	 39.80	
  3.399	 96.763	160.85930	 66.36075	 82.78728	 89.91331	 57.51159	  5.69846	161.08908	702.54999	 39.80	
  3.397	124.529	160.73793	 59.54726	 89.82342	 86.71043	 60.09063	  5.59714	161.13026	702.53998	 39.80	
  3.388	152.325	160.70319	 54.74826	 95.11433	 80.56786	 65.58839	  5.51929	161.20955	702.65002	 39.80	
  5.099	161.165	159.59058	 45.74571	102.51797	 79.61286	 64.35998	  4.74620	161.12631	702.54999	 39.80	
  5.109	142.013	159.71828	 49.45600	 98.88647	 86.94364	 57.78684	  4.83894	161.17740	702.62000	 39.80	
  5.095	123.033	159.90117	 54.93132	 92.84627	 92.66005	 53.00571	  5.01858	161.14845	702.52002	 39.80	
  5.105	104.191	160.12051	 61.77258	 85.79987	 96.50710	 49.98663	  5.11197	161.17963	702.53998	 39.90	
  5.093	 85.207	160.26880	 69.35799	 78.11708	 97.53989	 49.31124	  5.18695	161.14709	702.58002	 39.90	
  5.104	 66.290	160.48643	 77.42063	 70.71819	 95.98194	 51.03984	  5.21590	161.17798	702.60999	 40.00	
  5.094	 47.331	160.67412	 84.38432	 64.58759	 91.85433	 55.19067	  5.21100	161.17801	702.71997	 40.00	
  5.089	 28.397	160.82060	 89.63465	 60.23989	 85.80891	 61.08440	  5.17372	161.20503	702.59998	 40.00	
  5.096	  9.576	160.92326	 92.43061	 57.93142	 78.36809	 68.27353	  5.05053	161.20764	702.59003	 40.10	
  5.096	 -9.576	160.93626	 92.47471	 57.88265	 70.22144	 76.41185	  5.00209	161.19821	702.60999	 40.10	
  5.089	-28.397	160.89743	 89.61338	 60.19595	 62.84503	 83.91260	  4.96481	161.21666	702.52002	 40.20	
  5.094	-47.331	160.78572	 84.40099	 64.64326	 56.62450	 90.24928	  4.95283	161.19263	702.62000	 40.30	
  5.104	-66.290	160.64317	 77.51180	 70.85305	 52.20871	 94.71294	  4.99609	161.22078	702.62000	 40.30	
  5.093	-85.207	160.52477	 69.13084	 78.30447	 50.24028	 96.75089	  4.95986	161.31651	702.59003	 40.40	
  5.105	-104.191	160.22025	 61.30381	 85.92228	 50.62586	 95.89133	  4.93138	161.23579	702.59003	 40.40	
  5.095	-123.033	160.08669	 54.83133	 93.02134	 53.39735	 92.32059	  4.90356	161.27925	702.59003	 40.40	
  5.109	-142.013	159.92574	 49.43988	 99.00899	 57.97906	 86.80672	  4.80604	161.26634	702.54999	 40.40	
  5.099	-161.165	159.79150	 45.60965	102.62501	 64.54971	 79.65576	  4.74989	161.29301	702.66998	 40.40	
  5.100	180.000	159.77357	 44.64718	103.87061	 71.92496	 71.89249	  4.71280	161.28171	702.57001	 40.40	
  6.800	180.000	158.23283	 36.19462	110.57647	 70.46387	 70.52092	  4.08424	161.31641	702.60999	 40.40	
  6.796	-166.229	158.35001	 36.66032	109.70453	 63.25814	 78.16973	  4.19711	161.35294	702.59998	 40.30	
  6.808	-152.311	158.39604	 38.89264	106.90871	 56.62959	 85.58755	  4.25507	161.30359	702.58002	 40.30	
  6.795	-138.383	158.55098	 43.41287	102.51094	 50.98800	 91.96741	  4.29935	161.31810	702.60999	 40.30	
  6.792	-124.591	158.72456	 49.31956	 96.94819	 46.43813	 97.36469	  4.34687	161.31615	702.57001	 40.40	
  6.787	-110.754	158.99248	 55.79433	 89.94906	 43.55221	101.45670	  4.45525	161.36922	702.53003	 40.40	
  6.800	-96.985	159.20117	 62.59776	 82.70266	 42.00921	103.60188	  4.49392	161.35120	702.62000	 40.40	
  6.800	-83.015	159.46873	 70.10107	 75.17159	 42.21965	103.79744	  4.47723	161.38432	702.58002	 40.40	
  6.787	-69.246	159.71251	 78.33602	 68.15665	 43.93711	102.04023	  4.53914	161.39044	702.65997	 40.40	
  6.792	-55.409	159.95544	 85.41657	 61.82679	 47.46094	 98.37997	  4.54052	161.45033	702.60999	 40.40	
  6.795	-41.617	160.09946	 91.58626	 56.58481	 52.51289	 92.94426	  4.53423	161.41423	702.50000	 40.50	
  6.808	-27.689	160.24236	 96.41570	 52.61937	 58.90428	 86.45941	  4.54550	161.42165	702.67999	 40.50	
  6.796	-13.771	160.24666	 99.25623	 50.09735	 65.97177	 79.09697	  4.54555	161.39700	702.67999	 40.60	
  6.800	  0.000	160.28217	100.24255	 49.26405	 73.69962	 71.18001	  4.52793	161.42802	702.60999	 40.60	
  6.796	 13.771	160.24483	 99.15997	 50.16326	 81.43124	 63.69323	  4.57349	161.43547	702.53998	 40.70	
  6.808	 27.689	160.06419	 96.25271	 52.61910	 88.67497	 56.76332	  4.64193	161.38524	702.57001	 40.60	
  6.795	 41.617	159.99774	 91.42652	 56.70174	 95.13323	 50.90444	  4.64319	161.47327	702.60999	 40.70	
  6.792	 55.409	159.80974	 85.17329	 61.94832	 99.75976	 46.24897	  4.60883	161.46259	702.62000	 40.70	
  6.787	 69.246	159.61943	 78.11095	 68.21001	103.07762	 42.96930	  4.60337	161.44724	702.52002	 40.70	
  6.800	 83.015	159.40965	 70.15382	 75.21574	104.60837	 41.43323	  4.59465	161.44916	702.62000	 40.70	
  6.800	 96.985	159.15094	 62.60780	 82.76323	104.21317	 41.46161	  4.52210	161.44608	702.51001	 40.70	
  6.787	110.754	159.00229	 55.58760	 90.10023	101.91801	 43.14635	  4.52618	161.48059	702.50000	 40.70	
  6.792	124.591	158.76758	 49.06950	 97.02037	 97.97860	 46.31995	  4.42687	161.47919	702.50000	 40.70	
  6.795	138.383	158.58841	 43.86425	102.61074	 92.25127	 50.75751	  4.26746	161.46858	702.44000	 40.70	
  6.808	152.311	158.52678	 39.67661	107.06422	 85.67503	 56.48856	  4.20222	161.54202	702.54999	 40.80	
  6.796	166.229	158.45029	 37.14528	109.75316	 78.20285	 63.34307	  4.13632	161.51253	702.53003	 40.90	
  8.491	168.704	156.45828	 28.62171	116.53728	 76.48582	 61.45391	  3.89067	161.54358	702.58002	 40.90	
  8.502	157.493	156.49561	 30.50337	114.16283	 84.08332	 54.49959	  3.90747	161.49696	702.57001	 41.00	
  8.494	146.194	156.62212	 33.80298	110.27143	 91.24619	 48.29741	  4.02355	161.53201	702.44000	 41.10	
  8.495	135.039	156.76233	 38.27720	105.26079	 97.93097	 43.05070	  4.08019	161.50674	702.42999	 41.20	
  8.487	123.723	156.93350	 43.98014	 99.39594	103.22155	 38.75203	  4.14554	161.47583	702.56000	 41.20	
  8.492	112.575	157.19398	 50.26664	 92.47280	107.47477	 35.61150	  4.12969	161.55742	702.57001	 41.20	
  8.510	101.220	157.38194	 57.52442	 84.95223	110.30071	 33.61064	  4.07644	161.53616	702.56000	 41.20	
  8.500	 90.000	157.73076	 65.15716	 77.34632	111.34653	 33.08835	  4.05405	161.59489	702.66998	 41.30	
  8.510	 78.780	157.88574	 72.91914	 70.06354	111.01991	 33.69351	  4.14934	161.54703	702.56000	 41.30	
  8.492	 67.425	158.15709	 80.77360	 63.13902	109.03065	 35.80074	  4.17714	161.58330	702.46002	 41.30	
  8.487	 56.277	158.38155	 87.95095	 56.98571	105.42639	 39.18994	  4.22371	161.56233	702.53998	 41.30	
  8.495	 44.961	158.55261	 94.62112	 51.53007	100.57742	 43.46062	  4.28835	161.54796	702.59003	 41.30	
  8.494	 33.806	158.71504	 99.78374	 47.04678	 94.95361	 48.94719	  4.33839	161.55403	702.57001	 41.30	
  8.502	 22.507	158.90273	103.88973	 43.73714	 88.00259	 55.31872	  4.42962	161.58496	702.46002	 41.30	
  8.491	 11.296	159.00262	106.40303	 41.58164	 80.54224	 62.35497	  4.39191	161.59079	702.60999	 41.30	
  8.500	  0.000	159.07411	107.44122	 40.87251	 72.49868	 70.02495	  4.39482	161.61801	702.51001	 41.30	
  8.491	-11.296	159.10869	106.50784	 41.56572	 64.79457	 78.07537	  4.48536	161.62451	702.40997	 41.30	
  8.502	-22.507	159.04288	104.32333	 43.64815	 57.58910	 85.54336	  4.48731	161.65535	702.53998	 41.30	
  8.494	-33.806	158.96004	100.31549	 47.02243	 50.93808	 92.54745	  4.45191	161.63528	702.46002	 41.30	
  8.495	-44.961	158.85886	 94.92015	 51.51452	 45.08579	 99.04288	  4.42807	161.66399	702.46002	 41.30	
  8.487	-56.277	158.65454	 88.43721	 56.85410	 40.27289	104.28807	  4.41596	161.67928	702.56000	 41.30	
  8.492	-67.425	158.42325	 81.27179	 63.07308	 36.83017	108.02235	  4.41071	161.64194	702.53003	 41.40	
  8.510	-78.780	158.12793	 72.83517	 70.10206	 34.65738	110.29139	  4.39136	161.61404	702.54999	 41.40	
  8.500	-90.000	157.92546	 65.14723	 77.41448	 33.86242	110.96932	  4.37561	161.66454	702.46002	 41.40	
  8.510	-101.220	157.63393	 57.93391	 84.98784	 34.21180	109.94796	  4.32988	161.60866	702.54999	 41.40	
  8.492	-112.575	157.41791	 50.85578	 92.37657	 35.95069	107.27343	  4.26327	161.62619	702.51001	 41.40	
  8.487	-123.723	157.23264	 44.23517	 99.59763	 39.09822	103.10056	  4.20605	161.63068	702.44000	 41.40	
  8.495	-135.039	157.01593	 37.62370	105.33673	 43.33133	 97.62901	  4.08082	161.62381	702.47998	 41.50	
  8.494	-146.194	156.86606	 33.14630	110.37405	 48.57695	 91.35350	  4.04890	161.64726	702.54999	 41.50	
  8.502	-157.493	156.73453	 29.85835	114.21169	 54.78428	 84.38004	  3.99731	161.65926	702.45001	 41.50	
  8.491	-168.704	156.65134	 28.15530	116.64056	 61.65704	 76.61753	  3.95325	161.68327	702.40997	 41.40	
  8.500	180.000	156.57205	 27.86614	117.50751	 68.96754	 68.90045	  3.88589	161.68184	702.50000	 41.40	
 10.200	180.000	153.99016	 19.20184	123.83244	 66.81043	 66.74999	  4.03472	161.66211	702.52002	 41.40	
 10.191	-170.497	154.05617	 19.02837	123.09193	 59.37695	 74.55389	  4.02000	161.66183	702.39001	 41.40	
 10.210	-161.034	154.15671	 20.46781	120.93166	 52.38589	 82.56956	  4.08152	161.69734	702.45001	 41.40	
 10.194	-151.526	154.33080	 23.17807	117.60886	 46.02295	 89.98267	  4.13293	161.72295	702.52002	 41.40	
 10.190	-142.105	154.53856	 27.17113	113.09692	 40.21008	 96.80297	  4.14362	161.77550	702.59998	 41.40	
 10.215	-132.646	154.71129	 32.03176	107.55455	 35.29314	103.11159	  4.21952	161.73071	702.53998	 41.50	
 10.203	-123.092	154.95865	 38.68473	101.56958	 31.26641	108.42485	  4.40188	161.70694	702.65002	 41.50	
 10.192	-113.678	155.18468	 45.40753	 94.25774	 28.17043	112.64900	  4.41606	161.69981	702.48999	 41.50	
 10.208	-104.249	155.38908	 52.48656	 86.88233	 26.10254	115.67273	  4.48451	161.68793	702.63000	 41.50	
 10.210	-94.801	155.65419	 60.09276	 79.30548	 25.37939	117.25346	  4.53807	161.70314	702.53003	 41.50	
 10.210	-85.199	155.93236	 67.69684	 71.70598	 25.74453	117.50398	  4.56035	161.69713	702.53998	 41.50	
 10.208	-75.751	156.22134	 75.64196	 64.49071	 27.13815	116.22949	  4.58131	161.70837	702.50000	 41.50	
 10.192	-66.322	156.47830	 83.53016	 57.82056	 29.40401	113.63920	  4.53617	161.74185	702.46997	 41.50	
 10.203	-56.908	156.71075	 90.81261	 51.72290	 32.90706	109.74006	  4.55139	161.71066	702.46997	 41.50	
 10.215	-47.354	156.89227	 97.66495	 46.10015	 37.39004	104.68429	  4.58712	161.71310	702.46002	 41.50	
 10.190	-37.895	157.07222	103.31034	 41.50480	 42.94286	 98.34914	  4.59756	161.69228	702.41998	 41.50	
 10.194	-28.474	157.24409	107.98450	 37.85096	 49.33358	 91.44535	  4.57969	161.72987	702.41998	 41.50	
 10.210	-18.966	157.26700	111.35348	 34.94530	 56.09423	 84.19044	  4.61841	161.67609	702.46002	 41.50	
 10.191	 -9.503	157.37712	113.53467	 33.50409	 63.54689	 76.30984	  4.65330	161.71103	702.54999	 41.40	
 10.200	  0.000	157.33566	114.25714	 33.07848	 71.28067	 68.37843	  4.59844	161.70903	702.47998	 41.40	
 10.191	  9.503	157.22040	113.21102	 33.45713	 79.29134	 60.79216	  4.50618	161.66516	702.39001	 41.50	
 10.210	 18.966	157.11876	111.07057	 34.96229	 86.93596	 53.39418	  4.51206	161.70973	702.46997	 41.50	
 10.194	 28.474	156.97435	107.48131	 37.89107	 94.11064	 46.70129	  4.46942	161.68892	702.46997	 41.50	
 10.190	 37.895	156.85370	102.80894	 41.58155	100.50166	 40.79958	  4.39893	161.72310	702.51001	 41.50	
 10.215	 47.354	156.66991	 97.37433	 46.08244	106.32660	 35.52404	  4.38893	161.75407	702.50000	 41.60	
 10.203	 56.908	156.46574	 90.22435	 51.77335	111.21631	 31.30766	  4.22664	161.74901	702.57001	 41.70	
 10.192	 66.322	156.25635	 82.94147	 57.97528	114.82542	 28.21529	  4.14179	161.75769	702.53998	 41.80	
 10.208	 75.751	156.04390	 75.18216	 64.75423	117.35574	 26.06046	  4.08232	161.76123	702.57001	 41.80	
 10.210	 85.199	155.81227	 67.38308	 71.94625	118.28083	 24.97498	  4.01839	161.79538	702.44000	 41.80	
 10.210	 94.801	155.54251	 59.55238	 79.43685	117.93793	 24.60762	  3.95012	161.79562	702.48999	 41.80	
 10.208	104.249	155.26349	 51.95294	 87.12884	116.18334	 25.60352	  3.97717	161.78719	702.39001	 41.80	
 10.192	113.678	155.06198	 44.89618	 94.52417	112.92077	 27.87285	  4.06500	161.81870	702.50000	 41.80	
 10.203	123.092	154.80188	 38.42894	101.61954	108.63692	 30.95208	  4.15554	161.80136	702.46997	 41.80	
 10.215	132.646	154.48778	 32.62649	107.77127	103.16711	 34.88913	  4.17767	161.77028	702.48999	 41.90	
 10.190	142.105	154.34360	 27.94435	113.23222	 96.82168	 39.97297	  4.19051	161.75568	702.53998	 42.00	
 10.194	151.526	154.24892	 24.30219	117.75973	 89.74207	 45.84702	  4.11792	161.80122	702.39001	 42.00	
 10.210	161.034	154.15611	 21.67451	121.01122	 82.31119	 52.26822	  4.06817	161.78059	702.39001	 42.00	
 10.191	170.497	154.13943	 20.20538	123.20658	 74.56561	 59.44110	  4.03684	161.79439	702.41998	 41.90	
 11.899	171.783	151.10394	 10.55595	129.11595	 72.03453	 56.85744	  4.25216	161.78485	702.46997	 41.90	
 11.890	163.610	151.12958	 11.80980	127.39674	 79.65665	 49.90216	  4.37705	161.78833	702.54999	 41.90	
 11.889	155.445	151.17590	 14.21393	124.30351	 87.44954	 43.27871	  4.44301	161.75711	702.53003	 41.90	
 11.909	147.299	151.25293	 17.55277	120.36378	 94.80567	 36.98031	  4.58166	161.80074	702.41998	 41.90	
 11.902	139.148	151.37436	 21.77313	115.42484	101.94096	 31.39351	  4.45018	161.76491	702.35999	 41.90	
 11.894	130.867	151.58389	 26.91500	109.50478	107.91260	 26.66306	  4.31507	161.76477	702.48999	 42.00	
 11.897	122.732	151.92853	 32.85315	103.18913	113.34515	 22.68320	  4.21180	161.83131	702.44000	 42.00	
 11.903	114.597	152.10156	 39.12020	 96.04099	117.89635	 19.44748	  4.19245	161.80945	702.48999	 42.10	
 11.893	106.346	152.36864	 46.11837	 88.61097	121.19212	 17.15282	  4.15917	161.80785	702.53998	 42.10	
 11.892	 98.155	152.62697	 53.79068	 80.81118	123.49397	 15.69517	  4.15284	161.81264	702.56000	 42.20	
 11.900	 90.000	152.81517	 61.32314	 73.39795	124.51942	 15.78984	  4.17479	161.76218	702.51001	 42.30	
 11.892	 81.845	153.16302	 69.03277	 66.27351	124.34332	 16.48189	  4.22630	161.80185	702.42999	 42.30	
 11.893	 73.654	153.35835	 77.13413	 59.08123	122.85101	 17.73225	  4.27168	161.78014	702.53003	 42.30	
 11.903	 65.403	153.60567	 84.84781	 52.35701	120.15638	 20.16751	  4.40690	161.80054	702.53003	 42.30	
 11.897	 57.268	153.87074	 92.21738	 46.21091	116.26719	 23.43204	  4.48713	161.74890	702.54999	 42.30	
 11.894	 49.133	154.12529	 99.29610	 40.66882	111.44327	 27.75563	  4.67528	161.76845	702.46002	 42.30	
 11.902	 40.852	154.38808	105.39220	 35.81335	105.66432	 32.75777	  4.67477	161.82956	702.54999	 42.30	
 11.909	 32.701	154.56691	110.60981	 31.80699	 99.68797	 38.42692	  4.68944	161.84163	702.53998	 42.40	
 11.889	 24.555	154.78979	114.83156	 28.67897	 92.54626	 44.67067	  4.72936	161.83562	702.47998	 42.40	
 11.890	 16.390	154.88916	117.89925	 26.35071	 85.11660	 51.48243	  4.76116	161.82684	702.42999	 42.50	
 11.899	  8.217	154.98164	119.89500	 25.02132	 77.38468	 58.77244	  4.78962	161.81369	702.42999	 42.50	
 11.900	  0.000	155.05084	120.56075	 24.79165	 69.52659	 66.53546	  4.82513	161.80988	702.46002	 42.60	
 11.899	 -8.217	155.07056	119.98250	 25.11944	 61.86897	 74.17738	  4.83759	161.77654	702.41998	 42.60	
 11.890	-16.390	155.07918	118.16499	 26.31322	 54.49387	 82.21584	  4.82534	161.79709	702.48999	 42.70	
 11.889	-24.555	154.99939	115.26723	 28.47239	 47.46454	 89.90439	  4.80337	161.80110	702.52002	 42.70	
 11.909	-32.701	154.89294	111.24745	 31.59670	 40.77021	 96.94756	  4.82726	161.92000	702.51001	 42.70	
 11.902	-40.852	154.59357	105.95352	 35.52401	 34.61878	103.79583	  4.88485	161.78166	702.51001	 42.70	
 11.894	-49.133	154.40404	 99.85560	 40.52902	 29.54255	109.90423	  4.83346	161.78229	702.50000	 42.70	
 11.897	-57.268	154.18106	 92.96593	 46.10257	 25.10917	114.95038	  4.78445	161.83704	702.50000	 42.80	
 11.903	-65.403	153.89076	 85.58829	 52.20736	 21.50066	118.98548	  4.78429	161.80392	702.44000	 42.80	
 11.893	-73.654	153.64481	 77.54909	 59.05414	 19.13656	121.93353	  4.73613	161.79497	702.47998	 42.70	
 11.892	-81.845	153.38519	 69.74658	 66.08884	 17.63012	123.66887	  4.79218	161.81012	702.37000	 42.80	
 11.900	-90.000	153.04773	 62.02143	 73.24488	 16.77593	124.14718	  4.72309	161.78165	702.38000	 42.80	
 11.892	-98.155	152.76988	 54.25276	 80.69446	 16.67775	123.30651	  4.73572	161.79820	702.58002	 42.80	
 11.893	-106.346	152.51230	 46.79713	 88.43823	 17.76959	120.99181	  4.78844	161.80171	702.46002	 42.90	
 11.903	-114.597	152.23199	 39.56956	 95.76727	 19.92528	117.67373	  4.70518	161.76747	702.50000	 42.90	
 11.897	-122.732	152.05641	 32.98501	103.12122	 23.06678	113.38687	  4.67755	161.77765	702.46997	 43.00	
 11.894	-130.867	151.86894	 27.23370	109.27723	 27.06674	108.08633	  4.55610	161.78291	702.59003	 43.10	
 11.902	-139.148	151.61162	 21.99781	115.29964	 31.79696	101.89326	  4.37048	161.79384	702.56000	 43.10	
 11.909	-147.299	151.40889	 16.61195	120.27644	 37.15051	 95.03909	  4.34825	161.79109	702.53998	 43.10	
 11.889	-155.445	151.32530	 13.33951	124.17906	 43.24198	 87.93829	  4.29918	161.74255	702.53998	 43.00	
 11.890	-163.610	151.23929	 11.02800	127.33160	 50.02648	 79.96562	  4.40413	161.80843	702.58002	 43.00	
 11.899	-171.783	151.12794	  9.68644	129.13210	 57.06671	 71.99548	  4.30356	161.77997	702.50000	 42.90	
 11.900	180.000	151.08682	  9.59955	129.66338	 64.48872	 64.36473	  4.27112	161.78281	702.63000	 43.00	
 13.600	180.000	147.59003	 -0.01717	135.08124	 61.77697	 61.19639	  4.49395	161.80661	702.56000	 43.00	
 13.608	-172.853	147.54700	  0.02076	134.63376	 54.29857	 69.07748	  4.63855	161.78969	702.56000	 43.10	
 13.611	-165.583	147.65318	  1.51122	132.95261	 46.97762	 76.89719	  4.62963	161.78401	702.57001	 43.10	
 13.601	-158.353	147.78989	  3.38971	130.30687	 40.07624	 85.34038	  4.58433	161.74916	702.50000	 43.10	
 13.609	-151.210	147.95381	  6.40364	126.64819	 33.70407	 92.64958	  4.54751	161.75110	702.46997	 43.10	
 13.611	-143.999	148.15683	 10.16350	122.09393	 28.03504	 99.78160	  4.63204	161.75406	702.57001	 43.10	
 13.601	-136.825	148.44568	 15.29346	116.68256	 23.08418	106.54045	  4.68480	161.79774	702.53998	 43.10	
 13.596	-129.640	148.59496	 21.18604	110.64899	 18.42417	112.54538	  4.75189	161.78180	702.50000	 43.00	
 13.611	-122.431	148.77985	 27.15607	104.25723	 14.07870	117.97057	  4.87356	161.82008	702.53003	 43.00	
 13.604	-115.211	149.02374	 33.75962	 96.81660	 10.91627	122.34454	  4.93639	161.83966	702.59998	 43.10	
 13.595	-108.042	149.18877	 40.62979	 89.58895	  8.62019	125.92747	  4.95145	161.79320	702.59003	 43.00	
 13.607	-100.793	149.39294	 48.05216	 81.68731	  7.02796	128.53134	  4.90134	161.78557	702.59003	 43.00	
 13.601	-93.617	149.73909	 55.73119	 74.23787	  6.90567	129.77054	  4.86385	161.79787	702.62000	 43.10	
 13.601	-86.383	150.04744	 63.17947	 67.20416	  7.56870	129.98210	  4.84212	161.82184	702.62000	 43.10	
 13.607	-79.207	150.24103	 71.03691	 59.93044	  8.30197	129.15173	  4.85686	161.79541	702.59998	 43.10	
 13.595	-71.958	150.61017	 79.07970	 53.01473	 10.55007	127.09538	  4.88727	161.78746	702.48999	 43.00	
 13.604	-64.789	150.76672	 87.04871	 46.21558	 13.24364	124.01965	  4.89933	161.75922	702.60999	 43.00	
 13.611	-57.569	151.07037	 94.58866	 40.05512	 16.79398	119.85605	  4.96679	161.83833	702.53998	 43.00	
 13.596	-50.360	151.29198	101.62198	 34.51925	 21.14898	114.69871	  4.98342	161.80656	702.51001	 43.00	
 13.601	-43.175	151.48668	107.90015	 29.47797	 26.16195	108.83852	  4.99228	161.77179	702.53998	 43.00	
 13.611	-36.001	151.72067	113.61598	 25.18329	 31.76935	102.51540	  4.97726	161.82619	702.56000	 43.10	
 13.609	-28.790	151.90149	118.25063	 21.56626	 38.14536	 95.04649	  4.91072	161.81029	702.62000	 43.10	
 13.601	-21.647	151.99078	122.02167	 18.93122	 45.06534	 87.63587	  4.86051	161.77834	702.59998	 43.10	
 13.611	-14.417	152.07999	124.68830	 17.12442	 52.41891	 79.69253	  4.92878	161.78474	702.57001	 43.10	
 13.608	 -7.147	152.09740	126.25342	 16.14894	 59.93606	 71.59462	  4.95158	161.77625	702.57001	 43.10	
 13.600	  0.000	152.12764	126.75956	 16.02894	 67.37626	 64.20127	  4.96396	161.79724	702.59998	 43.20	
 13.608	  7.147	151.96208	126.10806	 16.01059	 75.02310	 56.40090	  4.89682	161.76666	702.65002	 43.20	
 13.611	 14.417	151.83443	124.40247	 16.93061	 82.86954	 48.97304	  4.89607	161.78233	702.62000	 43.20	
 13.601	 21.647	151.70679	121.41769	 18.89905	 90.55755	 42.04971	  4.84896	161.77301	702.53003	 43.20	
 13.609	 28.790	151.53593	117.77657	 21.62078	 97.89697	 35.61723	  4.86783	161.82651	702.62000	 43.10	
 13.611	 36.001	151.41161	113.01192	 25.43817	104.37974	 29.60511	  4.88197	161.84567	702.64001	 43.10	
 13.601	 43.175	151.22772	107.26402	 29.74147	110.69618	 24.17490	  4.89809	161.85281	702.59003	 43.10	
 13.596	 50.360	150.98674	100.93418	 34.63771	116.31872	 19.21874	  4.87174	161.81326	702.46997	 43.20	
 13.611	 57.569	150.75304	 94.01773	 40.10334	121.23917	 14.62371	  4.68502	161.86952	702.60999	 43.20	
 13.604	 64.789	150.50525	 86.25317	 46.44988	125.24465	 11.32551	  4.67841	161.85942	702.60999	 43.10	
 13.595	 71.958	150.30676	 78.53867	 53.09627	128.08958	  9.01636	  4.57049	161.89055	702.65002	 43.10	
 13.607	 79.207	150.06885	 70.39902	 60.16505	129.84175	  7.45314	  4.41552	161.85306	702.53003	 43.10	
 13.601	 86.383	149.79134	 62.43322	 67.42517	130.43527	  6.66900	  4.39386	161.88387	702.62000	 43.10	
 13.601	 93.617	149.49486	 54.92055	 74.41448	130.04005	  6.11182	  4.49028	161.81909	702.59998	 43.10	
 13.607	100.793	149.25894	 47.11948	 82.01048	128.65157	  6.62971	  4.47636	161.86827	702.67999	 43.20	
 13.595	108.042	149.03900	 39.88371	 89.89541	125.99631	  8.29219	  4.46836	161.82784	702.71002	 43.20	
 13.604	115.211	148.82529	 33.20364	 97.25701	122.34303	 10.56251	  4.38777	161.88957	702.62000	 43.10	
 13.611	122.431	148.56790	 26.72729	104.53923	117.72709	 13.56547	  4.26553	161.85959	702.60999	 43.10	
 13.596	129.640	148.40674	 20.61740	111.06315	112.28963	 17.55667	  4.29520	161.85445	702.71002	 43.10	
 13.601	136.825	148.25322	 15.40003	116.98608	106.14674	 22.34801	  4.50171	161.85818	702.72998	 43.20	
 13.611	143.999	148.04823	 10.52773	122.26185	 99.67529	 27.88170	  4.76036	161.83096	702.71997	 43.20	
 13.609	151.210	147.96794	  6.69350	126.94503	 92.50887	 33.88242	  4.85961	161.87665	702.67999	 43.20	
 13.601	158.353	147.87491	  3.92566	130.47745	 84.76310	 40.48825	  4.76032	161.88525	702.59998	 43.20	
 13.611	165.583	147.80884	  1.96548	133.04422	 76.62265	 47.33601	  4.66589	161.89922	702.78003	 43.20	
 13.608	172.853	147.78355	  0.96080	134.73242	 69.10171	 54.15198	  4.58740	161.94122	702.63000	 43.20	
 15.298	173.587	143.59331	 -8.35960	139.44241	 65.90785	 51.41167	  4.64673	161.89909	702.60999	 43.30	
 15.291	167.167	143.68420	 -7.22529	138.17717	 73.19540	 44.60260	  4.68306	161.96143	702.63000	 43.30	
 15.307	160.676	143.66850	 -5.56370	136.03471	 81.34331	 37.36084	  4.80810	161.92827	702.76001	 43.40	
 15.300	154.261	143.75215	 -3.28105	132.77435	 89.43586	 30.64797	  4.91076	161.87152	702.78003	 43.50	
 15.288	147.854	143.95160	 -0.37401	128.76534	 96.80202	 24.34615	  4.89623	161.88564	702.59003	 43.50	
 15.293	141.428	144.22250	  3.42968	123.68668	104.27099	 18.25223	  4.65192	161.95509	702.73999	 43.50	
 15.299	134.985	144.31096	  8.53594	118.02969	110.51565	 13.11841	  4.40752	161.92657	702.59003	 43.60	
 15.305	128.583	144.40167	 14.22877	111.97286	116.55197	  8.77693	  4.40714	161.94032	702.70001	 43.60	
 15.309	122.142	144.67802	 20.42995	105.44902	121.86771	  5.19024	  4.42533	161.92461	702.65997	 43.60	
 15.304	115.711	144.91161	 26.87646	 97.96702	126.57279	  2.20953	  4.52767	161.85980	702.84998	 43.60	
 15.297	109.291	145.25070	 33.65735	 90.58651	130.24149	 -0.13588	  4.72889	161.89026	702.81000	 43.60	
 15.293	102.897	145.52687	 40.58179	 82.86727	132.96025	 -1.78072	  4.84390	161.88455	702.67999	 43.60	
 15.293	 96.458	145.85915	 48.29286	 75.03857	134.88005	 -2.81433	  4.83196	161.89778	702.72998	 43.60	
 15.300	 90.000	146.12877	 55.72256	 67.89886	135.75563	 -2.47379	  4.69346	161.88458	702.73999	 43.60	
 15.293	 83.542	146.39967	 63.44980	 60.84586	135.63962	 -2.11859	  4.68220	161.90070	702.72998	 43.60	
 15.293	 77.103	146.68921	 71.53495	 53.67516	134.56683	 -0.97425	  4.71641	161.88603	702.71002	 43.60	
 15.297	 70.709	146.91379	 79.46474	 46.71850	132.59068	  0.84242	  4.72310	161.87793	702.79999	 43.60	
 15.304	 64.289	147.12621	 87.38078	 40.17372	129.68393	  3.21023	  4.79086	161.84998	702.73999	 43.70	
 15.309	 57.858	147.37871	 95.12585	 33.95829	125.69115	  6.38073	  4.88230	161.88187	702.73999	 43.70	
 15.305	 51.417	147.58153	102.23033	 28.37149	120.88881	 10.23358	  4.95238	161.84741	702.70001	 43.80	
 15.299	 45.015	147.89630	108.69387	 23.51020	115.17149	 15.01551	  5.00092	161.83437	702.78003	 43.80	
 15.293	 38.572	148.10901	114.75665	 18.69204	108.92302	 20.75672	  5.04411	161.85304	702.83002	 43.80	
 15.288	 32.146	148.25870	119.81956	 14.26649	102.63829	 26.65935	  5.02557	161.81088	702.78003	 43.80	
 15.300	 25.739	148.42619	124.26595	 10.89374	 95.36572	 32.92175	  4.95585	161.81587	702.75000	 43.90	
 15.307	 19.324	148.56255	127.75863	  8.46139	 87.97883	 39.75105	  4.94712	161.86473	702.78003	 43.90	
 15.291	 12.833	148.68750	130.38583	  6.73860	 79.97932	 46.64475	  4.96878	161.88620	702.78003	 43.90	
 15.298	  6.413	148.87309	131.79544	  6.03698	 72.34805	 53.65959	  4.99259	161.82957	702.84998	 43.90	
 15.300	  0.000	148.89345	132.35435	  6.04625	 65.09096	 61.01830	  5.03726	161.81717	702.89001	 43.90	
 15.298	 -6.413	148.88234	131.82501	  5.93574	 57.63227	 68.82759	  5.00901	161.79736	702.82001	 43.90	
 15.291	-12.833	148.90009	130.44615	  7.11824	 50.17248	 76.50526	  4.98103	161.79144	702.76001	 43.90	
 15.307	-19.324	148.87256	128.10452	  8.98013	 42.73975	 84.96075	  4.97157	161.80382	702.84003	 43.90	
 15.300	-25.739	148.74051	124.82764	 11.47124	 35.67273	 92.74512	  4.95287	161.80859	702.77002	 43.90	
 15.288	-32.146	148.59947	120.43629	 14.69766	 29.07391	 99.83619	  4.95724	161.79399	702.82001	 43.80	
 15.293	-38.572	148.45506	115.39042	 18.75344	 23.03969	106.88329	  5.04189	161.80281	702.70001	 43.80	
 15.299	-45.015	148.26128	109.44543	 23.25702	 17.56481	113.29778	  5.03294	161.83147	702.72998	 43.90	
 15.305	-51.417	147.98900	102.88575	 28.29231	 12.65503	119.01572	  5.02130	161.79691	702.72998	 43.80	
 15.309	-57.858	147.70467	 95.80225	 33.89563	  8.12010	124.24019	  5.02452	161.84450	702.78998	 43.80	
 15.304	-64.289	147.52708	 88.29221	 40.15714	  4.49885	128.55147	  4.94362	161.86005	702.84998	 43.80	
 15.297	-70.709	147.23557	 80.02537	 46.70976	  1.70949	131.62514	  4.84899	161.84947	702.82001	 43.80	
 15.293	-77.103	146.91177	 72.20326	 53.54383	 -0.35965	133.73486	  4.82998	161.84329	702.78003	 43.80	
 15.293	-83.542	146.67638	 64.04755	 60.85083	 -1.57537	135.09308	  4.86711	161.84952	702.82001	 43.80	
 15.300	-90.000	146.36357	 56.27498	 68.04063	 -2.00551	135.41193	  4.86694	161.85504	702.71997	 43.80	
 15.293	-96.458	146.01546	 49.07585	 74.79025	 -2.28277	134.69243	  4.88184	161.83405	702.79999	 43.80	
 15.293	-102.897	145.66699	 41.44389	 82.49080	 -1.55058	132.86264	  4.86864	161.79239	702.81000	 43.80	
 15.297	-109.291	145.43353	 34.32211	 90.18004	  0.03875	130.36351	  4.91375	161.80229	702.83002	 43.80	
 15.304	-115.711	145.14171	 27.49622	 97.41769	  2.29831	126.77378	  4.93051	161.79761	702.79999	 43.80	
 15.309	-122.142	144.86746	 20.98648	104.94930	  5.21934	122.05700	  4.88592	161.79617	702.73999	 43.80	
 15.305	-128.583	144.60089	 14.68134	111.40467	  8.97061	116.75177	  4.80183	161.76976	702.78003	 43.80	
 15.299	-134.985	144.43217	  8.65227	117.63506	 13.57262	110.79055	  4.72952	161.75946	702.71002	 43.90	
 15.293	-141.428	144.30409	  3.96780	123.39545	 18.84519	104.35058	  4.66844	161.81944	702.65002	 43.90	
 15.288	-147.854	144.08456	 -0.17155	128.37929	 24.62836	 96.98222	  4.57516	161.79904	702.69000	 43.90	
 15.300	-154.261	143.91145	 -3.40247	132.54079	 30.41663	 89.75562	  4.54855	161.80571	702.64001	 43.80	
 15.307	-160.676	143.63402	 -6.09268	135.74345	 36.93499	 81.66616	  4.59484	161.79457	702.72998	 43.80	
 15.291	-167.167	143.57834	 -7.76676	137.90726	 43.95871	 73.68327	  4.62553	161.80721	702.72998	 43.70	
 15.298	-173.587	143.52025	 -8.87786	139.33897	 51.07731	 65.79035	  4.66676	161.82918	702.72998	 43.70	
 15.300	180.000	143.58083	 -9.10767	139.82448	 58.72424	 58.06440	  4.67147	161.83704	702.77002	 43.70	
 17.000	180.000	138.83562	-18.44070	144.29874	 55.18240	 54.96238	  4.63398	161.78151	702.73999	 43.70	
 16.990	-174.179	138.92136	-17.88704	143.82790	 47.68039	 62.33269	  4.58456	161.80806	702.78998	 43.70	
 17.009	-168.383	138.95399	-16.98047	142.58238	 40.61735	 70.18793	  4.58612	161.81520	702.77002	 43.70	
 17.000	-162.596	139.10243	-15.32038	140.44150	 33.53809	 78.11793	  4.53803	161.85071	702.84998	 43.60	
 16.990	-156.759	139.25090	-13.03151	137.58542	 27.03887	 86.21712	  4.46476	161.89688	702.83002	 43.60	
 16.995	-150.919	139.35365	-10.06057	133.92764	 20.64156	 94.12813	  4.46920	161.84454	702.75000	 43.60	
 16.988	-145.161	139.48260	 -6.66500	129.39819	 14.52257	101.14174	  4.46068	161.77791	702.83002	 43.70	
 17.014	-139.343	139.59465	 -2.61286	124.04539	  8.65656	108.54127	  4.54413	161.78438	702.66998	 43.70	
 17.007	-133.546	139.95279	  2.32129	118.18421	  4.38750	114.72461	  4.57969	161.84914	702.81000	 43.70	
 17.001	-127.699	140.11838	  7.75554	111.69884	  0.49827	120.56187	  4.66766	161.80573	702.72998	 43.70	
 17.006	-121.937	140.30333	 14.04384	105.24410	 -2.91538	125.87837	  4.76411	161.81187	702.76001	 43.70	
 17.002	-116.134	140.60136	 20.82650	 97.80729	 -5.77571	130.60786	  4.79543	161.79008	702.69000	 43.70	
 17.001	-110.310	140.78691	 27.61047	 90.37148	 -8.21682	134.27974	  4.78406	161.79039	702.70001	 43.80	
 16.988	-104.517	141.06714	 34.58041	 82.70199	 -9.87925	137.01843	  4.77737	161.76950	702.71997	 43.80	
 17.008	-98.662	141.34293	 42.29814	 74.84981	-11.04056	138.79231	  4.76090	161.79097	702.71997	 43.80	
 16.996	-92.909	141.69504	 49.20061	 68.18479	-10.97453	139.77409	  4.77844	161.76918	702.59998	 43.80	
 16.996	-87.091	141.97202	 56.62558	 61.23141	-10.78076	140.04070	  4.78763	161.76472	702.65997	 43.80	
 17.012	-81.253	142.23576	 64.84798	 53.85336	-10.01057	139.33994	  4.75596	161.77229	702.69000	 43.80	
 16.988	-75.483	142.67570	 72.80355	 47.05670	 -8.42541	137.84480	  4.75206	161.80832	702.65997	 43.80	
 17.001	-69.690	142.91133	 80.55547	 40.28067	 -6.35574	135.59038	  4.77638	161.76427	702.77002	 43.80	
 17.002	-63.866	143.20853	 88.95354	 33.66969	 -3.75681	132.41812	  4.83924	161.78282	702.69000	 43.80	
 17.006	-58.063	143.46629	 96.44861	 27.56669	 -0.48777	128.25635	  4.89301	161.76253	702.77002	 43.80	
 17.001	-52.301	143.76149	103.61743	 21.95781	  3.62908	123.06107	  4.97040	161.74554	702.75000	 43.80	
 17.007	-46.454	144.05072	110.25095	 16.78486	  8.45842	117.38193	  4.92024	161.75826	702.75000	 43.90	
 17.014	-40.657	144.12317	116.42703	 12.08701	 13.67821	111.12726	  4.93654	161.67831	702.73999	 43.90	
 16.988	-34.839	144.46216	121.90216	  8.15340	 19.82047	104.50793	  4.94591	161.75507	702.82001	 44.00	
 16.995	-29.081	144.65027	126.74718	  4.71328	 26.06667	 97.45438	  4.96717	161.75482	702.79999	 44.00	
 16.990	-23.241	144.79005	130.55432	  1.90644	 32.89585	 89.76102	  4.91215	161.74649	702.78003	 44.00	
 17.000	-17.404	144.84271	133.63824	 -0.23844	 40.08796	 81.37331	  4.89935	161.71109	702.81000	 44.00	
 17.009	-11.617	144.81186	135.81076	 -2.00156	 47.28122	 73.37433	  4.95224	161.68175	702.78003	 44.00	
 16.990	 -5.821	144.92891	137.01164	 -2.99334	 54.87470	 65.55012	  5.04225	161.76733	702.77002	 44.00	
 17.000	  0.000	144.84448	137.33055	 -2.96423	 62.40704	 57.55083	  5.06398	161.71120	702.76001	 44.00	
 16.990	  5.821	144.77116	136.76660	 -2.89873	 69.35640	 51.08466	  4.94091	161.72630	702.71002	 44.00	
 17.009	 11.617	144.55101	135.41469	 -2.25186	 76.86594	 43.87177	  4.93839	161.67638	702.70001	 44.00	
 17.000	 17.404	144.45897	133.21115	 -0.73029	 84.73409	 36.60462	  4.87519	161.70309	702.91998	 44.00	
 16.990	 23.241	144.34549	130.09258	  1.44059	 92.54719	 29.67146	  4.89441	161.74295	702.82001	 44.00	
 16.995	 29.081	144.16202	126.14762	  4.23128	 99.94432	 23.23992	  4.91569	161.72156	702.70001	 44.00	
 16.988	 34.839	144.00175	121.37070	  7.71771	106.62135	 16.89245	  4.99876	161.73888	702.78003	 43.90	
 17.014	 40.657	143.75565	115.72134	 11.96660	113.18692	 11.30484	  4.94868	161.73035	702.65997	 43.90	
 17.007	 46.454	143.51434	109.53945	 16.58396	119.25199	  6.39807	  4.91199	161.73486	702.76001	 43.90	
 17.001	 52.301	143.30408	102.88306	 21.88721	124.77577	  2.11691	  4.85539	161.73375	702.76001	 43.90	
 17.006	 58.063	143.00615	 95.74195	 27.61766	129.64784	 -1.59942	  4.78685	161.75922	702.78998	 43.90	
 17.002	 63.866	142.78543	 88.12301	 33.70439	133.49753	 -4.65510	  4.76321	161.74088	702.76001	 43.90	
 17.001	 69.690	142.46416	 79.95158	 40.22251	136.49615	 -7.31044	  4.70305	161.70932	702.66998	 43.90	
 16.988	 75.483	142.25287	 71.92471	 46.93206	138.56880	 -9.24799	  4.69940	161.73975	702.78998	 43.90	
 17.012	 81.253	141.85367	 63.88366	 53.82448	139.89328	-10.77671	  4.64211	161.68086	702.76001	 43.90	
 16.996	 87.091	141.66113	 55.86049	 61.18586	140.39104	-11.26871	  4.74280	161.73187	702.78998	 43.90	
 16.996	 92.909	141.29642	 48.77180	 67.71516	140.00665	-11.85384	  4.84333	161.68369	702.69000	 43.90	
 17.008	 98.662	140.98392	 41.39665	 75.08867	138.82800	-11.66843	  4.87987	161.70575	702.71002	 43.90	
 16.988	104.517	140.74123	 33.97223	 82.95518	136.74237	-10.33151	  4.87537	161.68349	702.65997	 43.90	
 17.001	110.310	140.41492	 26.98708	 90.78368	133.82484	 -8.57144	  4.73701	161.69217	702.72998	 43.90	
 17.002	116.134	140.18614	 20.29985	 98.29301	130.05757	 -6.11464	  4.53050	161.71399	702.76001	 43.90	
 17.006	121.937	139.88672	 13.64146	105.71097	125.22989	 -3.12429	  4.44520	161.69363	702.75000	 43.90	
 17.001	127.699	139.71616	  7.60550	112.20194	119.91573	  0.45913	  4.31124	161.67444	702.81000	 43.90	
 17.007	133.546	139.56544	  1.72291	118.60349	114.06226	  4.42969	  4.28595	161.74010	702.13000	 43.90	
 17.014	139.343	139.39340	 -3.12747	124.42628	107.56808	  8.96377	  4.45279	161.70163	702.96002	 43.90	
 16.988	145.161	139.27361	 -6.81805	129.76852	100.72381	 14.23379	  4.72850	161.70573	702.53003	 43.90	
 16.995	150.919	139.18134	 -9.86245	134.14966	 93.40554	 20.29309	  4.87304	161.70866	702.77002	 43.90	
 16.990	156.759	139.02336	-12.72005	137.77483	 85.49573	 27.17138	  4.86395	161.72464	702.76001	 43.90	
 17.000	162.596	138.87698	-14.80711	140.63239	 77.21284	 34.07588	  4.70330	161.73508	702.72998	 43.90	
 17.009	168.383	138.78288	-16.44810	142.73506	 69.45419	 41.05329	  4.58085	161.72267	702.72998	 44.00	
 16.990	174.179	138.82408	-17.48007	143.83002	 62.32056	 47.91476	  4.59156	161.70633	702.78003	 44.00	
 18.709	174.675	133.65388	-27.02178	147.88467	 58.22055	 43.77461	  4.52090	161.68713	702.75000	 44.00	
 18.703	169.441	133.73352	-25.52554	146.92056	 65.16999	 37.43561	  4.50941	161.71552	702.71997	 44.10	
 18.691	164.085	133.84160	-24.03498	145.02173	 73.24995	 29.80646	  4.59470	161.72899	702.70001	 44.10	
 18.706	158.818	133.95697	-22.21733	142.37523	 81.02792	 22.72061	  4.76120	161.70654	702.70001	 44.10	
 18.695	153.537	134.08798	-19.62185	138.99130	 89.18428	 16.54193	  4.80913	161.65279	702.73999	 44.10	
 18.704	148.255	134.32390	-16.45160	135.09886	 96.90921	 10.82889	  4.75683	161.72716	702.76001	 44.10	
 18.698	142.952	134.39528	-13.01292	130.23763	104.26164	  5.31862	  4.50496	161.67282	702.79999	 44.00	
 18.699	137.625	134.55110	 -9.14028	124.69373	110.73490	  0.33166	  4.31053	161.68098	702.71997	 44.00	
 18.705	132.343	134.72153	 -4.36355	118.72897	117.21566	 -4.11457	  4.26481	161.69661	702.81000	 43.90	
 18.713	127.067	134.83853	  0.96774	112.27927	123.07027	 -8.02093	  4.28687	161.65417	702.78998	 44.00	
 18.700	121.794	135.07550	  6.88990	105.64154	128.57899	-11.39735	  4.43078	161.69641	702.79999	 44.00	
 18.698	116.504	135.37724	 13.29333	 98.36067	133.14452	-14.36128	  4.56452	161.66109	702.48999	 44.10	
 18.707	111.165	135.61440	 20.14179	 90.66415	137.08429	-16.92530	  4.69554	161.66132	702.46002	 44.10	
 18.690	105.863	135.94446	 27.25953	 82.94937	139.96999	-18.66599	  4.80622	161.66101	702.72998	 44.10	
 18.696	100.583	136.17455	 34.26343	 75.29891	142.46550	-20.06168	  4.84212	161.69699	702.71997	 44.10	
 18.700	 95.309	136.34184	 41.72955	 67.47675	144.04007	-20.84897	  4.85617	161.65849	702.63000	 44.20	
 18.700	 90.000	136.58400	 48.78410	 60.66770	144.75287	-20.56901	  4.71841	161.64911	702.71997	 44.20	
 18.700	 84.691	136.82629	 55.97725	 54.11319	144.67059	-20.06666	  4.66341	161.59662	702.25000	 44.20	
 18.696	 79.417	137.05096	 64.02956	 46.99516	143.88629	-19.15990	  4.68496	161.59769	702.71997	 44.20	
 18.690	 74.137	137.30344	 71.87145	 40.08898	142.26418	-17.49074	  4.64694	161.56973	702.65997	 44.20	
 18.707	 68.835	137.54021	 79.99054	 33.39700	139.81593	-15.38680	  4.64780	161.55025	702.65997	 44.10	
 18.698	 63.496	137.84587	 88.11592	 26.83939	136.73123	-12.63206	  4.69292	161.56334	702.59003	 44.20	
 18.700	 58.206	138.20253	 95.76614	 20.91701	132.96153	 -9.46328	  4.72547	161.58626	702.65997	 44.20	
 18.713	 52.933	138.52298	103.09341	 15.31384	128.33168	 -5.97842	  4.78288	161.60001	702.71997	 44.20	
 18.705	 47.657	138.71935	109.85671	 10.03540	122.85364	 -1.92606	  4.80073	161.61931	702.70001	 44.20	
 18.699	 42.375	139.04782	116.17724	  5.68891	116.89089	  2.85830	  4.88124	161.66823	702.71997	 44.10	
 18.698	 37.048	139.26872	122.07949	  1.72242	110.39481	  7.91694	  4.93162	161.65625	702.70001	 44.10	
 18.704	 31.745	139.41432	127.33593	 -1.90092	103.79541	 13.51371	  4.91662	161.60425	701.94000	 44.10	
 18.695	 26.463	139.61966	131.71959	 -4.85720	 96.45972	 19.71196	  4.88610	161.57880	702.76001	 44.10	
 18.706	 21.182	139.69519	135.44458	 -7.64399	 88.94859	 26.30345	  4.83088	161.62973	701.95001	 44.10	
 18.691	 15.915	139.90585	138.09702	 -9.52551	 81.06538	 33.29509	  4.82165	161.62344	702.08002	 44.10	
 18.703	 10.559	139.93779	140.16148	-11.08421	 73.11028	 40.59941	  4.84908	161.55940	702.09003	 44.20	
 18.709	  5.325	140.05771	141.43301	-11.67186	 66.03330	 47.81397	  4.93462	161.57115	701.97998	 44.20	
 18.700	  0.000	140.11606	141.94223	-11.78855	 59.27285	 54.53317	  5.00978	161.57076	702.84003	 44.20	
 18.709	 -5.325	140.14812	141.62946	-11.62118	 51.66560	 61.69893	  4.98668	161.56917	701.97998	 44.20	
 18.703	-10.559	140.22185	140.58386	-10.73400	 44.45349	 69.68623	  4.94958	161.57513	702.03003	 44.20	
 18.691	-15.915	140.19194	138.56943	 -9.18188	 37.06933	 77.88548	  4.90149	161.57370	702.57001	 44.30	
 18.706	-21.182	140.10513	135.90785	 -7.27396	 29.90827	 85.82523	  4.90266	161.59038	702.84003	 44.30	
 18.695	-26.463	140.03610	132.31517	 -4.66772	 23.35528	 93.80909	  4.84614	161.55725	702.03003	 44.30	
 18.704	-31.745	139.78999	127.94995	 -1.82794	 16.48833	101.05556	  4.88506	161.54567	702.03998	 44.30	
 18.698	-37.048	139.61832	122.74924	  1.57935	 10.15749	108.34681	  4.81629	161.52281	702.84003	 44.30	
 18.699	-42.375	139.45493	117.02592	  5.64470	  4.68838	114.73302	  4.85167	161.52991	702.83002	 44.30	
 18.705	-47.657	139.18732	110.74756	 10.12162	 -0.22090	120.82926	  4.83695	161.59016	702.84003	 44.40	
 18.713	-52.933	138.94035	104.00262	 15.23212	 -4.36208	126.44843	  4.87630	161.56674	702.58002	 44.40	
 18.700	-58.206	138.71014	 96.80698	 20.80865	 -8.08418	131.55052	  4.77750	161.58798	702.83002	 44.50	
 18.698	-63.496	138.47331	 89.28021	 26.83687	-11.35023	135.63304	  4.73615	161.60452	702.81000	 44.50	
 18.707	-68.835	138.07132	 80.73312	 33.41450	-14.33315	138.82814	  4.73846	161.58318	702.71997	 44.50	
 18.690	-74.137	137.90208	 72.83247	 40.14595	-16.31466	141.42162	  4.72318	161.60376	702.78003	 44.40	
 18.696	-79.417	137.48390	 64.97787	 46.97867	-18.13075	143.17218	  4.71552	161.55730	702.87000	 44.40	
 18.700	-84.691	137.16763	 56.88163	 54.04037	-19.24384	144.21120	  4.70288	161.58755	702.71997	 44.40	
 18.700	-90.000	136.87567	 48.82594	 61.31689	-19.76111	144.38907	  4.70084	161.55803	702.78003	 44.30	
 18.700	-95.309	136.50311	 42.16674	 67.48062	-20.04243	143.78401	  4.70358	161.55484	702.81000	 44.30	
 18.696	-100.583	136.21324	 35.03515	 74.73522	-19.53992	142.38516	  4.63331	161.54245	702.83002	 44.30	
 18.690	-105.863	135.98956	 27.91557	 82.35886	-18.21880	140.17517	  4.65873	161.57524	702.82001	 44.30	
 18.707	-111.165	135.75197	 20.97321	 89.97868	-16.40836	137.39761	  4.63642	161.59483	702.82001	 44.30	
 18.698	-116.504	135.56389	 13.95259	 97.65200	-13.86478	133.77681	  4.64742	161.59412	702.85999	 44.30	
 18.700	-121.794	135.35065	  7.35411	104.70676	-11.05161	129.17947	  4.61112	161.61774	702.75000	 44.30	
 18.713	-127.067	135.02702	  1.59267	111.47683	 -7.80682	123.71688	  4.56820	161.54054	702.78003	 44.30	
 18.705	-132.343	134.83313	 -3.78011	117.90087	 -4.00075	117.95003	  4.57107	161.53171	702.77002	 44.40	
 18.699	-137.625	134.62430	 -8.66846	123.98878	  0.27092	111.54414	  4.52963	161.52812	702.07001	 44.40	
 18.698	-142.952	134.47653	-12.80981	129.53761	  5.00766	104.60309	  4.49727	161.50545	702.84998	 44.50	
 18.704	-148.255	134.28154	-16.57217	134.45709	 10.17374	 97.77348	  4.53134	161.55356	702.87000	 44.50	
 18.695	-153.537	134.13289	-19.65209	138.46069	 16.59512	 90.08279	  4.43457	161.56117	702.59003	 44.50	
 18.706	-158.818	134.00014	-22.26771	141.81654	 23.31335	 82.01679	  4.40875	161.56516	702.34003	 44.50	
 18.691	-164.085	133.88676	-24.35578	144.58562	 29.93987	 74.29872	  4.49720	161.58807	702.06000	 44.50	
 18.703	-169.441	133.71240	-25.88531	146.56541	 36.76622	 66.12478	  4.61553	161.56369	702.03003	 44.60	
 18.709	-174.675	133.59981	-26.92979	147.70621	 43.98384	 58.82656	  4.64594	161.57072	702.02002	 44.60	
 18.700	180.000	133.57954	-27.36367	148.06055	 51.28140	 50.96235	  4.57925	161.55145	701.92999	 44.60	
 20.400	180.000	128.48480	-35.70708	151.52432	 47.36846	 46.46738	  4.61212	161.54742	701.90002	 44.60	
 20.401	-175.153	128.50989	-35.26593	151.17755	 39.96892	 54.40886	  4.55340	161.56627	702.59998	 44.60	
 20.407	-170.264	128.50809	-34.17169	150.07581	 32.95141	 62.39294	  4.52535	161.53278	701.98999	 44.60	
 20.410	-165.423	128.50183	-32.86816	148.31841	 25.92498	 69.78186	  4.47089	161.53426	702.78003	 44.60	
 20.392	-160.496	128.52812	-30.98590	145.79182	 18.72782	 77.80577	  4.39649	161.49362	701.98999	 44.60	
 20.401	-155.705	128.86859	-28.72503	142.71852	 12.12318	 85.50126	  4.40508	161.55127	702.02002	 44.50	
 20.405	-150.835	128.96245	-25.99216	138.97514	  6.47859	 93.55876	  4.39231	161.54732	701.90997	 44.50	
 20.397	-145.903	129.24899	-22.47327	134.48442	  1.25358	100.97767	  4.47509	161.56787	701.95001	 44.50	
 20.392	-141.062	129.49370	-18.62036	129.29774	 -3.55096	107.98470	  4.49982	161.55888	702.06000	 44.40	
 20.396	-136.227	129.54413	-14.41020	123.64413	 -8.05547	114.56778	  4.48622	161.52408	702.00000	 44.40	
 20.408	-131.372	129.64662	 -9.68418	117.56499	-12.23457	120.89256	  4.58225	161.54355	701.98999	 44.40	
 20.410	-126.511	129.74374	 -4.36872	111.18449	-15.92208	126.61409	  4.54079	161.49783	702.84003	 44.50	
 20.400	-121.604	130.24153	  1.36909	104.07990	-18.91416	131.91495	  4.57789	161.51508	702.10999	 44.50	
 20.403	-116.741	130.27950	  7.19013	 97.17021	-21.82396	136.42291	  4.58490	161.52063	702.08002	 44.50	
 20.413	-111.900	130.48119	 13.58948	 89.30328	-24.31716	140.02754	  4.57421	161.50401	701.98999	 44.50	
 20.398	-107.004	130.67479	 20.78618	 81.64879	-26.30613	143.23016	  4.60105	161.49792	702.15997	 44.60	
 20.394	-102.132	130.86151	 28.00339	 74.02135	-27.76479	145.56990	  4.58634	161.46277	702.09998	 44.60	
 20.403	-97.332	131.03517	 35.12096	 66.64201	-28.73678	147.23314	  4.62363	161.49850	702.03003	 44.60	
 20.392	-92.440	131.36841	 41.13450	 60.64027	-28.74515	148.03636	  4.67446	161.48087	702.04999	 44.60	
 20.392	-87.560	131.69040	 48.73375	 53.68743	-28.50601	148.28226	  4.70338	161.50525	702.02002	 44.60	
 20.403	-82.668	131.95229	 56.91298	 46.38733	-27.68593	147.79005	  4.74446	161.50076	702.01001	 44.60	
 20.394	-77.868	132.35556	 64.82533	 39.71423	-26.26147	146.54303	  4.68754	161.44525	702.04999	 44.60	
 20.398	-72.996	132.64494	 72.78680	 32.90837	-24.44164	144.57991	  4.66997	161.45438	702.08002	 44.60	
 20.413	-68.100	132.89041	 80.80363	 26.10747	-22.13044	141.74750	  4.67966	161.41968	702.10999	 44.60	
 20.403	-63.259	133.29265	 88.91422	 19.84556	-19.18047	138.36044	  4.76353	161.41910	702.12000	 44.70	
 20.400	-58.396	133.55615	 96.54993	 13.98236	-15.91927	134.35313	  4.75660	161.38432	702.10999	 44.70	
 20.410	-53.489	133.80530	103.94329	  8.62739	-12.37647	129.47878	  4.80227	161.44240	702.10999	 44.70	
 20.408	-48.628	134.06310	110.71843	  3.75099	 -8.32985	123.92753	  4.78928	161.44424	702.12000	 44.60	
 20.396	-43.773	134.41209	117.10918	 -0.62498	 -3.82798	118.02349	  4.82558	161.46422	701.98999	 44.70	
 20.392	-38.938	134.67198	123.12221	 -4.58757	  1.11995	111.56561	  4.79739	161.46263	702.04999	 44.60	
 20.397	-34.097	134.80826	128.54436	 -8.22456	  6.54518	104.58472	  4.79318	161.48149	702.07001	 44.60	
 20.405	-29.165	134.90813	133.33791	-11.32889	 13.02869	 97.35742	  4.80985	161.44044	702.07001	 44.60	
 20.401	-24.295	135.03885	137.22620	-14.02682	 19.75939	 89.83613	  4.86021	161.43352	702.12000	 44.60	
 20.392	-19.504	135.20099	140.32677	-16.19385	 26.68149	 81.85249	  4.86574	161.39500	702.08002	 44.50	
 20.410	-14.577	135.23340	143.02390	-18.14918	 33.75402	 73.60165	  4.86242	161.41696	701.95001	 44.50	
 20.407	 -9.736	135.27405	144.75230	-19.57766	 41.04484	 65.52998	  4.88944	161.41988	701.94000	 44.50	
 20.401	 -4.847	135.26172	145.80409	-20.47281	 48.44176	 58.25039	  4.99004	161.44113	701.92999	 44.50	
 20.400	  0.000	135.16591	146.06415	-20.68940	 55.76369	 50.50005	  4.97265	161.43381	702.07001	 44.50	
 20.401	  4.847	135.17860	145.48462	-20.53217	 62.22213	 44.02982	  4.91678	161.40981	702.04999	 44.40	
 20.407	  9.736	134.97528	144.44595	-19.97976	 69.33300	 36.88937	  4.82773	161.42894	702.06000	 44.40	
 20.410	 14.577	134.88602	142.53790	-18.60032	 76.98194	 29.70200	  4.85629	161.40601	702.01001	 44.50	
 20.392	 19.504	134.75513	139.88414	-16.70574	 84.86136	 22.45872	  4.78232	161.43330	702.08002	 44.50	
 20.401	 24.295	134.58856	136.70450	-14.41732	 92.61652	 15.97156	  4.82774	161.42574	702.00000	 44.50	
 20.405	 29.165	134.37491	132.57108	-11.67147	100.09055	  9.95869	  4.76109	161.41087	702.03998	 44.50	
 20.397	 34.097	134.18840	127.65607	 -8.31168	107.38967	  4.35969	  4.82338	161.39545	702.02002	 44.50	
 20.392	 38.938	134.05644	122.15759	 -4.68586	113.62629	 -0.69560	  4.84033	161.41751	702.02002	 44.50	
 20.396	 43.773	133.71217	116.21936	 -0.81090	119.86573	 -5.65162	  4.74498	161.38174	702.02002	 44.50	
 20.408	 48.628	133.53882	109.76247	  3.63694	125.80074	-10.04858	  4.74224	161.41635	702.09998	 44.60	
 20.410	 53.489	133.26498	102.94778	  8.45456	131.18034	-13.97494	  4.69225	161.40009	702.07001	 44.50	
 20.400	 58.396	132.96182	 95.46596	 13.86076	135.83223	-17.51265	  4.68702	161.40233	702.02002	 44.50	
 20.403	 63.259	132.64572	 87.88450	 19.69301	139.53447	-20.67507	  4.64673	161.42087	702.03003	 44.50	
 20.413	 68.100	132.23454	 79.74450	 25.97446	142.84306	-23.55588	  4.62625	161.38194	701.98999	 44.50	
 20.398	 72.996	132.04065	 71.69376	 32.77273	145.41614	-25.75375	  4.66538	161.39931	702.01001	 44.60	
 20.394	 77.868	131.79526	 63.74749	 39.61004	147.14236	-27.44300	  4.62916	161.41522	701.97998	 44.60	
 20.403	 82.668	131.55244	 55.86138	 46.54515	148.13998	-28.65848	  4.63545	161.42525	702.06000	 44.60	
 20.392	 87.560	131.34521	 48.32192	 53.64687	148.42624	-29.30494	  4.65504	161.41991	701.98999	 44.60	
 20.392	 92.440	131.03171	 41.49374	 59.75069	148.14511	-29.79365	  4.83813	161.40286	701.92999	 44.70	
 20.403	 97.332	130.68689	 34.30503	 66.86828	147.13377	-29.59265	  4.84176	161.40819	702.06000	 44.70	
 20.394	102.132	130.56561	 27.09225	 74.80676	145.36311	-28.43641	  4.77192	161.43538	702.03998	 44.70	
 20.398	107.004	130.38278	 19.91363	 82.40278	142.75058	-26.93546	  4.69781	161.41023	701.90997	 44.70	
 20.413	111.900	130.21632	 13.08179	 90.07362	139.48366	-25.11328	  4.66523	161.40056	702.04999	 44.70	
 20.403	116.741	130.04610	  6.34894	 97.74038	135.66196	-22.72111	  4.55851	161.38773	701.98999	 44.70	
 20.400	121.604	129.88910	  0.37075	104.77003	131.18654	-19.76337	  4.46662	161.41635	702.00000	 44.70	
 20.410	126.511	129.67459	 -5.33848	111.84693	125.73910	-16.45531	  4.28892	161.45927	702.04999	 44.70	
 20.408	131.372	129.43390	-10.47924	118.23122	119.77988	-12.69523	  4.28166	161.38391	701.92999	 44.70	
 20.396	136.227	129.33424	-15.19366	124.37392	113.41373	 -8.41033	  4.37233	161.38486	702.15002	 44.70	
 20.392	141.062	129.13553	-19.37617	129.94153	107.03297	 -3.71690	  4.39400	161.37987	702.09998	 44.70	
 20.397	145.903	128.92049	-23.09321	135.00311	100.10371	  1.38521	  4.53858	161.43829	702.09003	 44.70	
 20.405	150.835	128.71092	-26.50567	139.37909	 92.33498	  7.12535	  4.69681	161.36568	702.00000	 44.80	
 20.401	155.705	128.52641	-29.37626	143.15498	 84.19837	 13.15252	  4.76381	161.39703	702.04999	 44.80	
 20.392	160.496	128.57971	-31.36636	146.14191	 76.61826	 19.09067	  4.64010	161.40359	702.02002	 44.90	
 20.410	165.423	128.45816	-32.90472	148.56789	 68.31342	 25.81525	  4.57515	161.40604	702.09998	 44.90	
 20.407	170.264	128.31102	-34.25315	150.17181	 60.47020	 33.17190	  4.52039	161.38817	701.96997	 45.00	
 20.401	175.153	128.33722	-35.54558	151.05707	 53.75849	 39.86639	  4.51127	161.35162	702.10999	 45.00	
  0.141	 45.000	161.52956	 69.63118	 81.54144	 75.29929	 73.22688	  6.17591	161.36111	701.96997	 45.00	
  4.001	128.691	160.67412	 56.83730	 92.30408	 88.16658	 58.37574	  5.38903	161.34183	702.03003	 44.90	
  4.002	 76.995	161.04587	 72.41273	 76.71982	 92.78362	 54.91915	  5.58827	161.34286	702.10999	 44.90	
  4.002	 25.892	161.33286	 85.97868	 64.70158	 83.25206	 64.54408	  5.50977	161.38028	701.96997	 44.80	
  4.002	-25.892	161.35596	 85.75327	 64.78816	 66.51284	 81.30242	  5.34198	161.33820	702.14001	 44.70	
  4.002	-76.995	161.13098	 72.14558	 76.82478	 56.20967	 91.44707	  5.31560	161.33310	702.14001	 44.70	
  4.001	-128.691	160.74780	 56.43536	 92.39193	 59.22203	 87.36967	  5.25707	161.32933	702.10999	 44.70	
  4.000	180.000	160.51266	 50.04825	 99.54167	 72.93078	 72.34560	  5.15229	161.33897	702.02002	 44.70	
  8.000	180.000	156.91991	 30.34764	115.23727	 69.57597	 69.18148	  3.91653	161.34117	702.10999	 44.80	
  7.991	-152.370	157.14905	 33.60942	110.73782	 53.38718	 86.87996	  4.06441	161.34143	701.98999	 44.80	
  7.997	-124.550	157.50024	 45.49812	 99.01894	 41.44935	101.05282	  4.20988	161.30971	702.00000	 44.80	
  8.006	-96.837	158.02534	 61.47120	 82.12557	 36.28404	108.35296	  4.35000	161.32825	702.03003	 44.90	
  7.988	-69.228	158.59697	 79.65700	 65.19231	 38.63979	106.36098	  4.39918	161.32082	702.10999	 44.90	
  7.997	-41.563	159.05621	 95.05116	 51.90808	 48.51811	 95.72717	  4.38975	161.29639	702.13000	 44.90	
  8.008	-13.821	159.21944	104.05826	 44.20567	 64.01728	 79.38349	  4.42293	161.28404	702.03998	 44.90	
  8.008	 13.821	159.10732	103.84947	 44.20447	 82.11459	 61.35147	  4.36848	161.27797	702.08002	 44.90	
  7.997	 41.563	158.86021	 94.78622	 52.03398	 97.90240	 46.56159	  4.37162	161.33720	702.21997	 44.90	
  7.988	 69.228	158.31895	 78.89679	 65.40206	107.58884	 37.53879	  4.26443	161.29132	702.06000	 44.90	
  8.006	 96.837	157.77156	 61.05730	 82.18590	108.95964	 35.38296	  4.13210	161.30031	702.12000	 44.90	
  7.997	124.550	157.30362	 45.18776	 99.00955	101.43056	 41.07146	  4.19726	161.29323	702.12000	 44.90	
  7.991	152.370	156.93456	 34.11893	110.77798	 86.87312	 52.91721	  3.97058	161.27066	702.17999	 44.90	
 12.009	161.059	150.41388	 11.70019	126.49480	 81.94534	 47.23210	  4.40333	161.25754	702.14001	 45.00	
 12.013	142.081	150.64284	 19.70913	117.04831	 99.43150	 32.69579	  4.51657	161.28470	702.13000	 45.00	
 12.006	123.113	151.12923	 31.95734	103.10114	113.05807	 22.15243	  4.21301	161.27104	702.13000	 45.00	
 12.007	104.200	151.65608	 47.54542	 86.24401	121.98752	 15.91181	  4.17676	161.26846	702.07001	 45.10	
 11.989	 85.301	152.33435	 65.24857	 68.93959	124.52502	 15.67360	  4.19492	161.26515	702.10999	 45.10	
 12.013	 66.294	152.82494	 83.73931	 52.42765	120.48148	 19.19983	  4.43363	161.22591	702.15997	 45.00	
 12.012	 47.388	153.51097	100.49711	 38.96510	110.25239	 28.14458	  4.69555	161.29979	702.17999	 45.00	
 11.990	 28.440	154.00800	112.78878	 29.47492	 95.79150	 41.12014	  4.69617	161.28302	702.12000	 45.00	
 11.991	  9.464	154.28255	119.63934	 24.58138	 78.27914	 57.25135	  4.78253	161.28453	702.20001	 45.00	
 11.991	 -9.464	154.42923	119.68495	 24.71502	 60.30038	 75.08158	  4.81666	161.22891	702.19000	 45.00	
 11.990	-28.440	154.27316	113.31317	 29.29177	 43.80872	 92.91214	  4.79259	161.25557	702.06000	 45.00	
 12.012	-47.388	153.74542	101.00880	 38.78093	 30.10068	108.51443	  4.85306	161.18062	702.13000	 45.00	
 12.013	-66.294	153.12672	 84.61031	 52.36522	 20.65881	119.12362	  4.75667	161.19359	702.17999	 45.00	
 11.989	-85.301	152.52943	 66.03583	 68.73206	 16.79248	123.88017	  4.70537	161.19785	702.07001	 45.00	
 12.007	-104.200	151.91487	 48.27765	 86.10525	 16.87158	121.63045	  4.77597	161.22385	702.03998	 45.00	
 12.006	-123.113	151.35750	 32.19140	103.13794	 22.61805	113.10680	  4.65462	161.26501	702.00000	 45.00	
 12.013	-142.081	150.89177	 19.60598	117.00753	 33.22905	 99.02876	  4.35364	161.23917	702.12000	 45.00	
 12.009	-161.059	150.50558	 10.94021	126.40774	 47.41155	 82.25900	  4.43839	161.19699	702.04999	 45.00	
 16.000	180.000	141.12363	-12.92742	141.17337	 57.10929	 56.43954	  4.64134	161.18954	702.06000	 45.00	
 15.990	-165.604	141.26897	-11.08723	138.74924	 40.13304	 74.68554	  4.63667	161.23595	702.09998	 45.00	
 16.002	-151.165	141.56691	 -5.56797	131.72647	 24.79688	 93.20121	  4.52191	161.27068	702.16998	 45.00	
 16.002	-136.836	142.07022	  3.94345	119.84878	 11.41326	109.54154	  4.67347	161.19998	702.12000	 45.00	
 15.995	-122.439	142.63046	 17.83453	105.17043	  2.01966	122.87465	  4.83065	161.22745	702.08002	 45.10	
 15.993	-107.966	143.12680	 33.42708	 87.72074	 -3.94968	132.33240	  4.86888	161.17488	702.15002	 45.10	
 16.005	-93.629	143.76479	 50.64234	 70.20640	 -5.95898	136.55382	  4.80358	161.19696	702.12000	 45.00	
 15.992	-79.234	144.45430	 68.45226	 53.78297	 -4.44311	135.84724	  4.78247	161.18599	702.09003	 45.10	
 16.009	-64.774	145.10924	 87.44376	 37.95667	  0.52617	130.09569	  4.88634	161.18190	702.04999	 45.10	
 15.997	-50.364	145.90143	104.48378	 24.45546	  9.99422	118.99925	  5.01098	161.20575	702.06000	 45.20	
 15.997	-36.045	146.36787	118.43047	 13.47828	 22.34105	104.82378	  4.94864	161.20053	702.03998	 45.20	
 16.000	-21.597	146.78137	128.48140	  6.09229	 37.75569	 87.43510	  4.88574	161.20171	702.13000	 45.10	
 16.003	 -7.169	146.93993	133.48021	  2.29933	 54.97865	 68.65317	  4.98075	161.26053	702.06000	 45.10	
 16.003	  7.169	146.73212	133.18217	  2.20028	 72.07761	 51.13195	  4.94828	161.17793	702.06000	 45.10	
 16.000	 21.597	146.34795	127.92754	  5.51475	 90.37464	 34.74985	  4.83246	161.16237	702.09998	 45.20	
 15.997	 36.045	145.94717	117.87834	 13.21023	106.74345	 19.86346	  4.98781	161.16399	702.21002	 45.20	
 15.997	 50.364	145.39041	103.76072	 24.49770	120.85257	  7.73207	  4.92048	161.15961	702.12000	 45.10	
 16.009	 64.774	144.70174	 86.47636	 38.03956	131.20512	 -0.47040	  4.73019	161.16048	702.20001	 45.10	
 15.992	 79.234	144.12019	 67.59930	 53.81537	136.40735	 -5.20493	  4.60526	161.18985	702.12000	 45.10	
 16.005	 93.629	143.50595	 49.90316	 70.09405	136.73199	 -6.69027	  4.81985	161.21446	702.21997	 45.10	
 15.993	107.966	142.87421	 32.63303	 88.15042	132.16888	 -4.21601	  4.76021	161.20673	702.10999	 45.10	
 15.995	122.439	142.19188	 17.19853	105.64382	122.44333	  1.86113	  4.40075	161.22440	702.16998	 45.10	
 16.002	136.836	141.75972	  3.23977	120.27094	108.87153	 11.26432	  4.39669	161.19382	702.22998	 45.10	
 16.002	151.165	141.31438	 -5.49161	131.92203	 92.87486	 24.61724	  4.92291	161.17995	702.10999	 45.20	
 15.990	165.604	141.13266	-10.51853	138.83563	 73.99126	 40.61161	  4.65753	161.18095	702.07001	 45.20	
 20.003	168.362	129.53049	-31.58504	148.60722	 64.21848	 31.45924	  4.46508	161.15915	702.15002	 45.20	
 20.008	156.764	129.61327	-27.86642	143.03897	 82.73736	 15.70241	  4.67865	161.19078	702.06000	 45.10	
 20.000	145.147	130.03795	-20.47251	133.53304	101.07836	  2.23053	  4.45625	161.17218	702.06000	 45.00	
 19.995	133.545	130.31825	-10.88679	120.60178	116.53275	 -9.03154	  4.29158	161.16330	702.12000	 45.00	
 20.009	121.926	130.72089	  1.66794	105.20651	130.07835	-17.56444	  4.43111	161.18736	702.08002	 44.90	
 20.005	110.327	131.22578	 16.63053	 87.85735	139.68274	-23.74878	  4.66292	161.17686	702.08002	 44.80	
 19.989	 98.733	131.86214	 33.25529	 69.90747	145.61159	-27.05769	  4.76760	161.19366	702.06000	 44.80	
 19.999	 87.075	132.40898	 49.81047	 53.84619	147.42960	-27.12334	  4.69423	161.22176	702.12000	 44.80	
 19.992	 75.457	133.00674	 68.16665	 37.48981	145.32173	-24.59306	  4.64567	161.17151	702.14001	 44.80	
 20.009	 63.844	133.69807	 86.92567	 22.10598	139.01102	-19.07101	  4.69278	161.16518	702.01001	 44.90	
 19.989	 52.269	134.47333	104.40310	  8.98960	129.19057	-11.15516	  4.71202	161.17528	702.03003	 44.90	
 19.999	 40.602	134.96109	119.52271	 -1.58797	115.41071	 -0.84703	  4.78044	161.16814	702.12000	 45.00	
 20.004	 29.051	135.41861	131.81859	 -9.77262	 99.69630	 11.67521	  4.79273	161.14784	702.06000	 45.00	
 20.005	 17.433	135.79303	140.08437	-15.57944	 81.74062	 26.77533	  4.80947	161.19182	702.08002	 45.00	
 20.006	  5.780	136.09561	144.22998	-18.47764	 64.03326	 43.74961	  4.86150	161.18771	702.03998	 45.00	
 20.006	 -5.780	136.14871	144.44234	-18.32540	 47.85070	 59.93931	  4.95252	161.13055	702.10999	 45.00	
 20.005	-17.433	136.11212	140.51057	-15.19373	 30.75604	 78.63905	  4.84224	161.13625	702.08002	 45.00	
 20.004	-29.051	135.82172	132.39162	 -9.58531	 14.83137	 97.10868	  4.83454	161.12776	702.28003	 45.00	
 19.999	-40.602	135.52876	120.40885	 -1.54264	  1.07979	113.28369	  4.78182	161.13284	702.09003	 45.10	
 19.989	-52.269	134.91528	105.47327	  9.00778	 -9.47330	127.19794	  4.80762	161.17661	702.07001	 45.20	
 20.009	-63.844	134.26074	 88.01402	 22.14053	-17.63925	137.81834	  4.71025	161.14642	702.08002	 45.20	
 19.992	-75.457	133.45573	 69.21072	 37.50705	-23.39930	144.45142	  4.65719	161.10278	702.03003	 45.20	
 19.999	-87.075	132.67590	 50.20924	 53.88534	-26.34991	147.07651	  4.66292	161.13094	702.03998	 45.20	
 19.989	-98.733	132.06139	 34.07983	 69.33652	-26.41943	145.63640	  4.62902	161.18442	702.03998	 45.30	
 20.005	-110.327	131.44954	 17.41069	 87.14030	-23.03333	140.00728	  4.60619	161.17143	702.13000	 45.40	
 20.009	-121.926	130.96228	  2.45800	104.39358	-16.95920	130.75574	  4.56618	161.17586	701.98999	 45.40	
 19.995	-133.545	130.50275	-10.23970	119.85330	 -8.54743	117.46895	  4.48517	161.14919	702.10999	 45.40	
 20.000	-145.147	130.09534	-20.02436	132.94302	  1.97444	101.89430	  4.45174	161.21935	702.07001	 45.50	
 20.008	-156.764	129.69736	-27.39904	142.52368	 15.06311	 83.95174	  4.36604	161.21025	702.12000	 45.50	
 20.003	-168.362	129.54556	-31.65036	148.32219	 31.40830	 65.45944	  4.51266	161.12453	702.21997	 45.50	
 20.000	180.000	129.40105	-33.72206	150.30228	 48.32459	 47.28960	  4.53327	161.11687	702.10999	 45.50	
