FileType=PCF
NHL=14
Date=08/27/17	14:05:45
Facility=APL
Serial=16328-9
Customer=NASA
NP=6
Mach=0.250000
Calibration=1:1
CalPts=490
TstPts=95
PortNumbering=AP Standard
Units=Torr C m/s kg/m^3 deg mm 
Theta[deg]	Phi[deg]	P1[Torr]	P2[Torr]	P3[Torr]	P4[Torr]	P5[Torr]	P6[Torr]	Pt[Torr]	Ps[Abs,Torr]	Ts[C]	
  0.000	  0.000	 30.33965	 16.20369	 16.09245	 16.33037	 16.11393	  0.30660	 30.29809	709.48999	 24.80	
  1.691	128.401	 30.33920	 15.25617	 16.98308	 17.51129	 14.89434	  0.30580	 30.29907	709.34100	 24.80	
  1.692	 77.194	 30.33986	 16.52700	 15.68429	 17.83936	 14.60271	  0.30008	 30.30260	709.35999	 24.80	
  1.699	 26.182	 30.29194	 17.55282	 14.66696	 16.97589	 15.36777	  0.30172	 30.24567	709.30200	 24.80	
  1.699	-26.182	 30.31956	 17.54260	 14.71739	 15.59954	 16.76098	  0.29374	 30.27451	709.48700	 24.80	
  1.692	-77.194	 30.33059	 16.47649	 15.74032	 14.81487	 17.59189	  0.28643	 30.28797	709.45599	 24.80	
  1.691	-128.401	 30.31467	 15.21198	 17.00127	 15.07204	 17.28692	  0.30215	 30.28304	709.42798	 24.80	
  1.700	180.000	 30.32799	 14.67799	 17.60128	 16.24553	 16.09483	  0.30603	 30.28574	709.42297	 24.80	
  3.400	180.000	 30.34188	 13.12441	 19.11551	 16.09200	 15.98110	  0.25745	 30.33948	709.47400	 24.80	
  3.388	-152.325	 30.29771	 13.41425	 18.71160	 14.67125	 17.39904	  0.24939	 30.29261	709.50702	 24.80	
  3.397	-124.529	 30.32660	 14.32811	 17.73576	 13.68813	 18.57027	  0.22633	 30.33127	709.47400	 24.80	
  3.399	-96.763	 30.28627	 15.63683	 16.31462	 13.20391	 19.06818	  0.18778	 30.28675	709.39502	 24.80	
  3.394	-69.283	 30.28592	 17.09369	 14.91132	 13.38120	 18.89870	  0.19908	 30.28488	709.34900	 24.80	
  3.400	-41.398	 30.26963	 18.37658	 13.70220	 14.16088	 18.01220	  0.20561	 30.28249	709.56897	 24.80	
  3.401	-14.021	 30.27518	 19.11725	 13.05834	 15.38654	 16.71464	  0.22992	 30.28106	709.43402	 24.80	
  3.401	 14.021	 30.26339	 19.12178	 13.01723	 16.91599	 15.19242	  0.25616	 30.27524	709.48102	 24.80	
  3.400	 41.398	 30.29835	 18.45381	 13.63478	 18.24994	 13.96784	  0.24951	 30.29927	709.56000	 24.80	
  3.394	 69.283	 30.27362	 17.16350	 14.76099	 19.10759	 13.15902	  0.25315	 30.27262	709.65100	 24.80	
  3.399	 96.763	 30.28948	 15.74893	 16.17042	 19.30659	 13.00717	  0.24857	 30.30077	709.41101	 24.80	
  3.397	124.529	 30.28767	 14.36703	 17.62257	 18.72899	 13.49203	  0.24445	 30.29458	709.51501	 24.80	
  3.388	152.325	 30.31355	 13.41493	 18.72451	 17.55220	 14.57494	  0.24467	 30.32166	709.45001	 24.70	
  5.099	161.165	 30.20159	 11.59060	 20.25517	 17.38769	 14.24102	  0.10361	 30.33390	709.44000	 24.70	
  5.109	142.013	 30.13505	 12.26192	 19.42357	 18.79416	 12.91549	  0.10020	 30.27352	709.36700	 24.70	
  5.095	123.033	 30.11337	 13.36781	 18.18966	 19.87729	 11.96976	  0.08120	 30.26224	709.46503	 24.70	
  5.105	104.191	 30.13852	 14.74416	 16.73500	 20.58330	 11.39372	  0.06475	 30.29664	709.53302	 24.70	
  5.093	 85.207	 30.13069	 16.19473	 15.18995	 20.71303	 11.30581	  0.08653	 30.27978	709.43103	 24.70	
  5.104	 66.290	 30.13342	 17.70724	 13.75022	 20.32636	 11.62241	  0.10073	 30.27035	709.51202	 24.70	
  5.094	 47.331	 30.15067	 19.09067	 12.54893	 19.44309	 12.41095	  0.12057	 30.29199	709.45001	 24.70	
  5.089	 28.397	 30.13420	 20.07684	 11.66823	 18.18734	 13.54256	  0.10039	 30.27276	709.53802	 24.70	
  5.096	  9.576	 30.15671	 20.60364	 11.25895	 16.70066	 14.95595	  0.09630	 30.30295	709.47900	 24.70	
  5.096	 -9.576	 30.13026	 20.57073	 11.28139	 15.10974	 16.48740	  0.05777	 30.29028	709.37799	 24.70	
  5.089	-28.397	 30.13183	 20.04136	 11.74820	 13.77197	 17.95686	  0.03643	 30.29785	709.38098	 24.70	
  5.094	-47.331	 30.13350	 19.02736	 12.64777	 12.62613	 19.23621	  0.00047	 30.28442	709.44202	 24.70	
  5.104	-66.290	 30.14074	 17.65944	 13.90168	 11.84013	 20.14265	 -0.02222	 30.29167	709.44800	 24.70	
  5.093	-85.207	 30.16375	 16.13284	 15.34459	 11.52199	 20.53930	 -0.02373	 30.30593	709.43298	 24.70	
  5.105	-104.191	 30.15645	 14.64545	 16.83358	 11.59118	 20.40951	  0.00276	 30.29697	709.40900	 24.70	
  5.095	-123.033	 30.16277	 13.30802	 18.28844	 12.12498	 19.73724	  0.04387	 30.28513	709.39203	 24.70	
  5.109	-142.013	 30.19487	 12.22074	 19.50547	 13.04372	 18.66313	  0.08407	 30.29941	709.38898	 24.70	
  5.099	-161.165	 30.18096	 11.58150	 20.25911	 14.30370	 17.23418	  0.11082	 30.28015	709.36700	 24.70	
  5.100	180.000	 30.18226	 11.36846	 20.52207	 15.79516	 15.70135	  0.10691	 30.29146	709.43402	 24.70	
  6.800	180.000	 29.95783	  9.52530	 21.90251	 15.48180	 15.39913	 -0.05533	 30.29485	709.54102	 24.70	
  6.796	-166.229	 29.94588	  9.66681	 21.69436	 13.99260	 16.88667	 -0.05462	 30.26009	709.37500	 24.70	
  6.808	-152.311	 29.96976	 10.13136	 21.15677	 12.67848	 18.37123	 -0.05391	 30.29051	709.34698	 24.70	
  6.795	-138.383	 29.98206	 10.95271	 20.26130	 11.52358	 19.71474	 -0.08792	 30.31225	709.43103	 24.70	
  6.792	-124.591	 29.93823	 12.03297	 19.05555	 10.61342	 20.77644	 -0.13228	 30.29731	709.35498	 24.70	
  6.787	-110.754	 29.91273	 13.30592	 17.65404	 10.02731	 21.50624	 -0.18133	 30.30671	709.41699	 24.70	
  6.800	-96.985	 29.87244	 14.67392	 16.15327	  9.72955	 21.86610	 -0.22752	 30.27308	709.41498	 24.70	
  6.800	-83.015	 29.89791	 16.19290	 14.69101	  9.75371	 21.88542	 -0.24963	 30.29922	709.47900	 24.70	
  6.787	-69.246	 29.87744	 17.68864	 13.28039	 10.07623	 21.50162	 -0.24820	 30.28391	709.49902	 24.70	
  6.792	-55.409	 29.85467	 19.07792	 11.97515	 10.67978	 20.76123	 -0.23302	 30.27015	709.37701	 24.70	
  6.795	-41.617	 29.85206	 20.28665	 10.89001	 11.61568	 19.69643	 -0.19343	 30.27216	709.50201	 24.70	
  6.808	-27.689	 29.87242	 21.23976	 10.06683	 12.79934	 18.37384	 -0.15966	 30.29886	709.38000	 24.70	
  6.796	-13.771	 29.86520	 21.80074	  9.59193	 14.12820	 16.90543	 -0.12939	 30.28894	709.37500	 24.70	
  6.800	  0.000	 29.85678	 22.00241	  9.39137	 15.59292	 15.39736	 -0.10115	 30.28399	709.48999	 24.70	
  6.796	 13.771	 29.90453	 21.84755	  9.53123	 17.15348	 13.98265	 -0.06917	 30.32523	709.48499	 24.70	
  6.808	 27.689	 29.88282	 21.27975	  9.96528	 18.60556	 12.58942	 -0.04403	 30.30082	709.40302	 24.70	
  6.795	 41.617	 29.85856	 20.34294	 10.75076	 19.87836	 11.40190	 -0.03971	 30.27119	709.49799	 24.60	
  6.792	 55.409	 29.89789	 19.18290	 11.82622	 20.95583	 10.45466	 -0.04462	 30.30524	709.44299	 24.60	
  6.787	 69.246	 29.85598	 17.76417	 13.08556	 21.66974	  9.77696	 -0.07688	 30.26348	709.42297	 24.60	
  6.800	 83.015	 29.86110	 16.27356	 14.49294	 22.07052	  9.44585	 -0.09351	 30.28109	709.22601	 24.70	
  6.800	 96.985	 29.82920	 14.81566	 15.97295	 22.04191	  9.43541	 -0.11521	 30.25266	709.27100	 24.70	
  6.787	110.754	 29.85141	 13.42091	 17.49842	 21.64025	  9.79491	 -0.12401	 30.27041	709.31598	 24.70	
  6.792	124.591	 29.87123	 12.13515	 18.91945	 20.88874	 10.44026	 -0.10698	 30.28021	709.33301	 24.70	
  6.795	138.383	 29.91389	 11.06471	 20.14668	 19.82401	 11.41131	 -0.07445	 30.30267	709.30499	 24.70	
  6.808	152.311	 29.90931	 10.20626	 21.08545	 18.50132	 12.57531	 -0.05645	 30.28560	709.33197	 24.70	
  6.796	166.229	 29.91723	  9.70981	 21.66309	 17.01476	 13.92919	 -0.04628	 30.27706	709.37701	 24.60	
  8.491	168.704	 29.55967	  7.83204	 22.95695	 16.67023	 13.50434	 -0.27353	 30.25566	709.35199	 24.70	
  8.502	157.493	 29.58317	  8.25171	 22.51315	 18.21250	 12.11561	 -0.26653	 30.31016	709.32898	 24.70	
  8.494	146.194	 29.55219	  8.94290	 21.70810	 19.62840	 10.81696	 -0.29356	 30.29858	709.25098	 24.70	
  8.495	135.039	 29.51988	  9.86164	 20.64738	 20.88654	  9.66718	 -0.33893	 30.28188	709.37799	 24.70	
  8.487	123.723	 29.47381	 11.00078	 19.34638	 21.90686	  8.77861	 -0.37098	 30.25548	709.41998	 24.70	
  8.492	112.575	 29.49891	 12.31274	 17.95661	 22.70669	  8.15474	 -0.38610	 30.28700	709.33197	 24.70	
  8.510	101.220	 29.48804	 13.73824	 16.41359	 23.19596	  7.73958	 -0.40362	 30.27969	709.24200	 24.70	
  8.500	 90.000	 29.46441	 15.17689	 14.86720	 23.32483	  7.65007	 -0.37346	 30.25448	709.27698	 24.60	
  8.510	 78.780	 29.48922	 16.69866	 13.38762	 23.20005	  7.75629	 -0.32709	 30.27921	709.24500	 24.70	
  8.492	 67.425	 29.48524	 18.21663	 11.94916	 22.71843	  8.15212	 -0.29798	 30.27348	709.37701	 24.60	
  8.487	 56.277	 29.48306	 19.60803	 10.66461	 21.97596	  8.79492	 -0.26410	 30.27391	709.31000	 24.60	
  8.495	 44.961	 29.43842	 20.84019	  9.50593	 20.91706	  9.68941	 -0.25550	 30.23549	709.38800	 24.60	
  8.494	 33.806	 29.46198	 21.87740	  8.64452	 19.69883	 10.83607	 -0.26014	 30.27060	709.27600	 24.60	
  8.502	 22.507	 29.47819	 22.66785	  8.01685	 18.30907	 12.15601	 -0.26870	 30.28636	709.26001	 24.60	
  8.491	 11.296	 29.44836	 23.11028	  7.66649	 16.79788	 13.54539	 -0.30203	 30.26519	709.27002	 24.60	
  8.500	  0.000	 29.46488	 23.27661	  7.58704	 15.23461	 15.03871	 -0.31521	 30.28167	709.40802	 24.60	
  8.491	-11.296	 29.46300	 23.09535	  7.74103	 13.71492	 16.55483	 -0.34690	 30.27523	709.32202	 24.60	
  8.502	-22.507	 29.45257	 22.61793	  8.12585	 12.32418	 18.05221	 -0.36873	 30.26803	709.26202	 24.60	
  8.494	-33.806	 29.44260	 21.82263	  8.81210	 11.02605	 19.49014	 -0.39514	 30.25073	709.40900	 24.60	
  8.495	-44.961	 29.46635	 20.79771	  9.72407	  9.92371	 20.75860	 -0.45123	 30.25985	709.22601	 24.60	
  8.487	-56.277	 29.46512	 19.52129	 10.85138	  9.04883	 21.77532	 -0.48495	 30.25839	709.43103	 24.60	
  8.492	-67.425	 29.46682	 18.11089	 12.14064	  8.41788	 22.54155	 -0.52320	 30.24953	709.50201	 24.60	
  8.510	-78.780	 29.48105	 16.58218	 13.57281	  7.99758	 23.03103	 -0.53329	 30.27283	709.37799	 24.60	
  8.500	-90.000	 29.47294	 15.03281	 15.04519	  7.87604	 23.15368	 -0.51038	 30.26031	709.41101	 24.60	
  8.510	-101.220	 29.49452	 13.58209	 16.55834	  7.97971	 23.01642	 -0.46723	 30.27246	709.52100	 24.60	
  8.492	-112.575	 29.50979	 12.17224	 18.08784	  8.34727	 22.52691	 -0.40526	 30.26826	709.39398	 24.60	
  8.487	-123.723	 29.53751	 10.88260	 19.48363	  8.94517	 21.78506	 -0.35389	 30.26201	709.44800	 24.60	
  8.495	-135.039	 29.59143	  9.73452	 20.76153	  9.81500	 20.78856	 -0.31641	 30.28442	709.41199	 24.60	
  8.494	-146.194	 29.60060	  8.79234	 21.77109	 10.90889	 19.51030	 -0.28383	 30.26285	709.33002	 24.60	
  8.502	-157.493	 29.59285	  8.13443	 22.52552	 12.18389	 18.05260	 -0.26110	 30.23677	709.42603	 24.60	
  8.491	-168.704	 29.64254	  7.80541	 23.00788	 13.59785	 16.58198	 -0.26631	 30.29637	709.36902	 24.60	
  8.500	180.000	 29.59529	  7.68266	 23.15015	 15.10866	 15.02351	 -0.26986	 30.27167	709.29901	 24.60	
 10.200	180.000	 29.10735	  5.92139	 24.30806	 14.64950	 14.56863	 -0.52651	 30.24949	709.32202	 24.60	
 10.191	-170.497	 29.14264	  6.01152	 24.19523	 13.13106	 16.13124	 -0.50741	 30.26392	709.21399	 24.60	
 10.210	-161.034	 29.15263	  6.26832	 23.82442	 11.68213	 17.65941	 -0.48303	 30.27807	709.45898	 24.60	
 10.194	-151.526	 29.15808	  6.78641	 23.16186	 10.33097	 19.17084	 -0.49637	 30.28268	709.48102	 24.60	
 10.190	-142.105	 29.12347	  7.49585	 22.25481	  9.11726	 20.52354	 -0.52532	 30.25905	709.41199	 24.60	
 10.215	-132.646	 29.11473	  8.43273	 21.18800	  8.06695	 21.75599	 -0.54127	 30.27923	709.37500	 24.60	
 10.203	-123.092	 29.07034	  9.62488	 19.87503	  7.21614	 22.76457	 -0.57098	 30.28143	709.35498	 24.60	
 10.192	-113.678	 29.02798	 10.95966	 18.44650	  6.58913	 23.54196	 -0.62570	 30.27762	709.33301	 24.60	
 10.208	-104.249	 29.02491	 12.37012	 16.95069	  6.18436	 24.10342	 -0.70431	 30.30515	709.37701	 24.60	
 10.210	-94.801	 29.00896	 13.82950	 15.39749	  5.99248	 24.38214	 -0.76240	 30.29988	709.42798	 24.60	
 10.210	-85.199	 29.01466	 15.37481	 13.87773	  5.99590	 24.40587	 -0.81035	 30.31531	709.38800	 24.60	
 10.208	-75.751	 28.93887	 16.89842	 12.35235	  6.22050	 24.08283	 -0.80357	 30.24065	709.41101	 24.60	
 10.192	-66.322	 28.95171	 18.42791	 10.95201	  6.67253	 23.53799	 -0.77605	 30.24456	709.39398	 24.60	
 10.203	-56.908	 28.95926	 19.86433	  9.64040	  7.31334	 22.75424	 -0.75810	 30.25072	709.36902	 24.60	
 10.215	-47.354	 28.95967	 21.18512	  8.47096	  8.17269	 21.73932	 -0.70278	 30.25426	709.21997	 24.60	
 10.190	-37.895	 28.96213	 22.29716	  7.55711	  9.22955	 20.53238	 -0.65726	 30.26239	709.26801	 24.60	
 10.194	-28.474	 28.92655	 23.19220	  6.78803	 10.43702	 19.15623	 -0.61146	 30.24496	709.19202	 24.60	
 10.210	-18.966	 28.96710	 23.91932	  6.22985	 11.82253	 17.66969	 -0.59702	 30.29088	709.29901	 24.60	
 10.191	 -9.503	 28.96325	 24.30710	  5.94337	 13.26334	 16.12707	 -0.58245	 30.28278	709.22302	 24.60	
 10.200	  0.000	 28.94095	 24.44206	  5.80059	 14.79136	 14.60213	 -0.57858	 30.26770	709.23401	 24.60	
 10.191	  9.503	 28.92421	 24.31179	  5.85913	 16.35787	 13.08555	 -0.55009	 30.25279	709.22302	 24.60	
 10.210	 18.966	 28.96920	 23.96623	  6.13982	 17.91244	 11.65117	 -0.51319	 30.29703	709.34900	 24.60	
 10.194	 28.474	 28.97178	 23.28992	  6.66993	 19.37157	 10.26850	 -0.49599	 30.29805	709.30798	 24.60	
 10.190	 37.895	 28.92339	 22.35092	  7.36680	 20.68241	  9.03981	 -0.48266	 30.23180	709.37701	 24.60	
 10.215	 47.354	 28.95447	 21.28321	  8.26463	 21.91160	  7.98916	 -0.47823	 30.26041	709.32397	 24.60	
 10.203	 56.908	 28.97907	 20.00347	  9.41080	 22.92533	  7.17629	 -0.48579	 30.28279	709.28998	 24.60	
 10.192	 66.322	 28.99212	 18.58303	 10.71548	 23.68786	  6.56067	 -0.50765	 30.27947	709.23700	 24.60	
 10.208	 75.751	 28.98505	 17.07692	 12.12483	 24.23600	  6.11116	 -0.57463	 30.28310	709.33801	 24.60	
 10.210	 85.199	 28.95493	 15.50918	 13.59996	 24.48667	  5.88350	 -0.64356	 30.25628	709.42798	 24.60	
 10.210	 94.801	 28.95303	 14.01129	 15.16251	 24.46879	  5.87714	 -0.69263	 30.24666	709.27600	 24.60	
 10.208	104.249	 28.97182	 12.54418	 16.73805	 24.20357	  6.08404	 -0.70029	 30.26289	709.28699	 24.60	
 10.192	113.678	 29.03372	 11.17608	 18.29114	 23.68377	  6.53377	 -0.67375	 30.31278	709.15802	 24.60	
 10.203	123.092	 28.99304	  9.86246	 19.68748	 22.86967	  7.13150	 -0.64744	 30.26173	709.31299	 24.60	
 10.215	132.646	 29.01350	  8.64800	 21.02107	 21.86366	  7.96651	 -0.60910	 30.27104	709.27399	 24.60	
 10.190	142.105	 29.07707	  7.70528	 22.17394	 20.66992	  9.04443	 -0.56197	 30.31371	709.28699	 24.60	
 10.194	151.526	 29.07047	  6.95460	 23.06735	 19.27361	 10.24681	 -0.51427	 30.27776	709.21100	 24.60	
 10.210	161.034	 29.05504	  6.35647	 23.73485	 17.77011	 11.55784	 -0.49296	 30.24725	709.26202	 24.60	
 10.191	170.497	 29.12621	  6.05009	 24.18396	 16.26254	 13.04035	 -0.51683	 30.29632	709.25299	 24.60	
 11.899	171.783	 28.50199	  4.24099	 25.26841	 15.72280	 12.47462	 -0.75880	 30.25592	709.20300	 24.60	
 11.890	163.610	 28.50060	  4.55692	 24.90278	 17.29623	 11.04442	 -0.73314	 30.26626	709.23901	 24.60	
 11.889	155.445	 28.46523	  5.03089	 24.29712	 18.80378	  9.67106	 -0.71765	 30.25713	709.22803	 24.60	
 11.909	147.299	 28.43343	  5.63071	 23.50071	 20.25254	  8.37341	 -0.75497	 30.25849	709.29401	 24.60	
 11.902	139.148	 28.42640	  6.45225	 22.49718	 21.57761	  7.25295	 -0.82261	 30.27184	709.30103	 24.60	
 11.894	130.867	 28.44432	  7.40365	 21.30867	 22.74772	  6.30443	 -0.86467	 30.29446	709.29797	 24.60	
 11.897	122.732	 28.40528	  8.50964	 19.97011	 23.73088	  5.52575	 -0.91463	 30.28332	709.30499	 24.60	
 11.903	114.597	 28.38324	  9.85977	 18.53864	 24.54156	  4.87632	 -0.96474	 30.27714	709.29102	 24.60	
 11.893	106.346	 28.34877	 11.28229	 16.97265	 25.10199	  4.44152	 -0.98554	 30.24801	709.30701	 24.60	
 11.892	 98.155	 28.40219	 12.78069	 15.43505	 25.50565	  4.20247	 -1.00147	 30.30171	709.28497	 24.60	
 11.900	 90.000	 28.36199	 14.25359	 13.85853	 25.59803	  4.11858	 -0.97433	 30.27303	709.21997	 24.60	
 11.892	 81.845	 28.40337	 15.79697	 12.34521	 25.50934	  4.23226	 -0.89640	 30.30979	709.15198	 24.60	
 11.893	 73.654	 28.36458	 17.32883	 10.84079	 25.11739	  4.53023	 -0.81344	 30.26569	709.28497	 24.60	
 11.903	 65.403	 28.39720	 18.86831	  9.47833	 24.57325	  5.00241	 -0.73245	 30.29921	709.20001	 24.60	
 11.897	 57.268	 28.32797	 20.25273	  8.18888	 23.72731	  5.61103	 -0.68253	 30.23992	709.12701	 24.60	
 11.894	 49.133	 28.33151	 21.57057	  7.05878	 22.75176	  6.39941	 -0.68245	 30.25328	709.26202	 24.60	
 11.902	 40.852	 28.35914	 22.77037	  6.13360	 21.63121	  7.29994	 -0.71418	 30.29949	709.24500	 24.60	
 11.909	 32.701	 28.31369	 23.72113	  5.35892	 20.29970	  8.40399	 -0.73735	 30.25741	709.17499	 24.60	
 11.889	 24.555	 28.37734	 24.55168	  4.80063	 18.91298	  9.69986	 -0.73886	 30.32416	709.28198	 24.60	
 11.890	 16.390	 28.31807	 25.07487	  4.34569	 17.39959	 11.05166	 -0.76384	 30.27575	709.13501	 24.60	
 11.899	  8.217	 28.31225	 25.42383	  4.07244	 15.86350	 12.54066	 -0.78802	 30.27544	709.05402	 24.60	
 11.900	  0.000	 28.32257	 25.53123	  4.02140	 14.27660	 14.08714	 -0.79797	 30.27743	709.17999	 24.60	
 11.899	 -8.217	 28.33718	 25.41008	  4.15128	 12.74391	 15.62156	 -0.80494	 30.28348	709.26001	 24.60	
 11.890	-16.390	 28.38976	 25.09458	  4.42505	 11.28520	 17.19719	 -0.81237	 30.33514	709.38599	 24.60	
 11.889	-24.555	 28.35851	 24.48837	  4.85633	  9.85389	 18.70577	 -0.80549	 30.30486	709.28497	 24.60	
 11.909	-32.701	 28.33551	 23.66729	  5.47059	  8.53661	 20.12583	 -0.83818	 30.26337	709.30200	 24.60	
 11.902	-40.852	 28.35979	 22.66602	  6.31438	  7.41868	 21.43850	 -0.87193	 30.26288	709.30200	 24.60	
 11.894	-49.133	 28.38063	 21.48715	  7.26988	  6.44146	 22.64907	 -0.92312	 30.28481	709.18903	 24.60	
 11.897	-57.268	 28.35850	 20.15367	  8.33918	  5.63942	 23.63123	 -0.96110	 30.27452	709.30798	 24.60	
 11.903	-65.403	 28.35328	 18.70754	  9.60238	  4.99779	 24.42527	 -0.99203	 30.25900	709.39398	 24.60	
 11.893	-73.654	 28.36682	 17.18153	 11.06824	  4.56035	 25.00454	 -1.00084	 30.26960	709.25897	 24.60	
 11.892	-81.845	 28.36080	 15.60790	 12.57736	  4.28983	 25.33169	 -1.01580	 30.25377	709.26202	 24.60	
 11.900	-90.000	 28.39193	 14.06810	 14.11270	  4.18660	 25.46829	 -1.00112	 30.29513	709.28400	 24.60	
 11.892	-98.155	 28.35792	 12.56366	 15.61528	  4.25967	 25.30678	 -0.95712	 30.24389	709.34601	 24.60	
 11.893	-106.346	 28.37188	 11.06097	 17.17982	  4.49622	 24.97469	 -0.89502	 30.25234	709.26001	 24.60	
 11.903	-114.597	 28.43765	  9.61366	 18.73014	  4.91237	 24.44685	 -0.82417	 30.29429	709.30499	 24.60	
 11.897	-122.732	 28.45667	  8.34077	 20.13704	  5.53197	 23.61675	 -0.76829	 30.25736	709.26202	 24.60	
 11.894	-130.867	 28.53645	  7.21445	 21.48343	  6.33333	 22.63828	 -0.75122	 30.30238	709.28497	 24.60	
 11.902	-139.148	 28.54816	  6.26960	 22.64771	  7.31432	 21.42150	 -0.73288	 30.28183	709.21198	 24.60	
 11.909	-147.299	 28.56923	  5.49738	 23.62900	  8.43127	 20.11795	 -0.74141	 30.28057	709.33801	 24.60	
 11.889	-155.445	 28.57907	  4.89242	 24.40628	  9.71318	 18.68009	 -0.72497	 30.27702	709.35699	 24.60	
 11.890	-163.610	 28.58508	  4.47186	 24.97612	 11.13016	 17.15093	 -0.73319	 30.28678	709.41199	 24.60	
 11.899	-171.783	 28.57901	  4.22796	 25.32980	 12.61051	 15.60792	 -0.76970	 30.29244	709.22302	 24.60	
 11.900	180.000	 28.53156	  4.13369	 25.41649	 14.13532	 14.03291	 -0.79430	 30.26627	709.26202	 24.60	
 13.600	180.000	 27.80284	  2.35225	 26.37183	 13.53295	 13.41562	 -1.02291	 30.23963	709.43103	 24.60	
 13.608	-172.853	 27.82278	  2.42097	 26.28840	 12.02250	 14.94707	 -1.02102	 30.24395	709.24597	 24.60	
 13.611	-165.583	 27.87256	  2.63196	 26.03527	 10.53801	 16.53280	 -0.97947	 30.27788	709.24200	 24.60	
 13.601	-158.353	 27.84965	  3.01956	 25.49675	  9.10235	 18.07049	 -0.96122	 30.24936	709.11902	 24.60	
 13.609	-151.210	 27.87934	  3.55391	 24.84546	  7.81362	 19.56312	 -0.97033	 30.29388	709.14899	 24.60	
 13.611	-143.999	 27.87640	  4.23931	 23.96710	  6.62006	 20.95772	 -0.95519	 30.29336	709.30798	 24.60	
 13.601	-136.825	 27.82515	  5.04090	 22.89182	  5.53504	 22.22440	 -0.93010	 30.26775	709.19702	 24.50	
 13.596	-129.640	 27.80911	  5.99505	 21.68711	  4.65106	 23.39611	 -0.93301	 30.28530	709.25299	 24.60	
 13.611	-122.431	 27.74594	  7.06349	 20.34060	  3.90656	 24.36314	 -0.95508	 30.26980	709.23401	 24.60	
 13.604	-115.211	 27.71569	  8.31861	 18.90686	  3.34370	 25.16562	 -1.00146	 30.26681	709.20300	 24.60	
 13.595	-108.042	 27.67844	  9.68454	 17.39079	  2.91024	 25.76272	 -1.05334	 30.25832	709.17200	 24.60	
 13.607	-100.793	 27.68005	 11.17529	 15.84720	  2.55847	 26.21300	 -1.10440	 30.28992	709.09601	 24.60	
 13.601	-93.617	 27.66017	 12.66589	 14.28419	  2.40873	 26.42099	 -1.11414	 30.28521	709.35498	 24.60	
 13.601	-86.383	 27.63012	 14.22812	 12.71865	  2.40356	 26.42040	 -1.10873	 30.26485	709.29303	 24.60	
 13.607	-79.207	 27.64422	 15.79910	 11.18897	  2.61209	 26.23802	 -1.09976	 30.27211	709.23401	 24.60	
 13.595	-71.958	 27.65020	 17.36867	  9.73601	  2.94391	 25.81535	 -1.09712	 30.27226	709.25299	 24.60	
 13.604	-64.789	 27.64520	 18.88991	  8.35473	  3.39330	 25.21037	 -1.09783	 30.27218	709.29901	 24.60	
 13.611	-57.569	 27.64382	 20.36283	  7.12270	  4.00102	 24.41917	 -1.09124	 30.27763	709.27899	 24.60	
 13.596	-50.360	 27.60786	 21.66609	  6.05634	  4.74929	 23.40675	 -1.06481	 30.24161	709.28198	 24.60	
 13.601	-43.175	 27.62926	 22.90035	  5.07584	  5.63626	 22.28306	 -1.03361	 30.26808	709.27698	 24.60	
 13.611	-36.001	 27.63775	 23.97209	  4.24018	  6.72227	 21.00515	 -1.00485	 30.27617	709.30798	 24.60	
 13.609	-28.790	 27.63012	 24.87487	  3.52902	  7.93416	 19.61560	 -0.98739	 30.28793	709.24500	 24.60	
 13.601	-21.647	 27.60440	 25.55837	  3.01197	  9.23778	 18.13419	 -0.98813	 30.27213	709.21198	 24.60	
 13.611	-14.417	 27.61378	 26.09907	  2.61890	 10.67505	 16.58955	 -0.99036	 30.28910	709.30103	 24.60	
 13.608	 -7.147	 27.57646	 26.38956	  2.36180	 12.15541	 15.00248	 -0.99001	 30.26418	709.37201	 24.60	
 13.600	  0.000	 27.55610	 26.48865	  2.23759	 13.67192	 13.46429	 -0.97703	 30.25124	709.31000	 24.60	
 13.608	  7.147	 27.57979	 26.43399	  2.30965	 15.24923	 11.92351	 -0.96644	 30.29425	709.36902	 24.60	
 13.611	 14.417	 27.59396	 26.13326	  2.57779	 16.80453	 10.46870	 -0.95696	 30.29872	709.30103	 24.60	
 13.601	 21.647	 27.54808	 25.57911	  2.95824	 18.29043	  9.07094	 -0.93458	 30.24420	709.14600	 24.60	
 13.609	 28.790	 27.58735	 24.93201	  3.43757	 19.78490	  7.77128	 -0.94346	 30.28670	709.23102	 24.60	
 13.611	 36.001	 27.55121	 24.02110	  4.07869	 21.13118	  6.62817	 -0.93486	 30.24220	709.21399	 24.60	
 13.601	 43.175	 27.62983	 23.01727	  4.92052	 22.42674	  5.68016	 -0.90221	 30.30006	709.31299	 24.60	
 13.596	 50.360	 27.64082	 21.82091	  5.85817	 23.56463	  4.78664	 -0.87634	 30.30611	709.24500	 24.60	
 13.611	 57.569	 27.60704	 20.47631	  6.90153	 24.53244	  3.97372	 -0.89106	 30.27672	709.22900	 24.60	
 13.604	 64.789	 27.60919	 19.02515	  8.16179	 25.31598	  3.35863	 -0.92098	 30.25190	709.33002	 24.60	
 13.595	 71.958	 27.65970	 17.55582	  9.52539	 25.94756	  2.90883	 -1.00351	 30.29582	709.36401	 24.60	
 13.607	 79.207	 27.65792	 15.99560	 10.96824	 26.36261	  2.57387	 -1.12176	 30.30091	709.28198	 24.60	
 13.601	 86.383	 27.62754	 14.43184	 12.46267	 26.51536	  2.42426	 -1.18048	 30.25334	709.30798	 24.60	
 13.601	 93.617	 27.66249	 12.93836	 14.05195	 26.54608	  2.39486	 -1.23032	 30.28678	709.28497	 24.60	
 13.607	100.793	 27.65164	 11.40899	 15.59965	 26.33758	  2.52405	 -1.24910	 30.26871	709.26202	 24.60	
 13.595	108.042	 27.65414	  9.90652	 17.15097	 25.90752	  2.85809	 -1.22844	 30.26471	709.31500	 24.60	
 13.604	115.211	 27.67221	  8.53979	 18.67464	 25.32600	  3.27640	 -1.20426	 30.28586	709.20599	 24.50	
 13.611	122.431	 27.65015	  7.26761	 20.11358	 24.49240	  3.85715	 -1.17482	 30.25113	709.03198	 24.60	
 13.596	129.640	 27.72974	  6.25498	 21.50356	 23.55702	  4.64422	 -1.12766	 30.29784	709.29303	 24.60	
 13.601	136.825	 27.72275	  5.25064	 22.71081	 22.39947	  5.52262	 -1.06705	 30.27029	709.36902	 24.50	
 13.611	143.999	 27.75270	  4.39088	 23.80527	 21.15137	  6.54615	 -1.01780	 30.30165	709.37201	 24.50	
 13.609	151.210	 27.76302	  3.70271	 24.71077	 19.74784	  7.74376	 -0.95301	 30.28612	709.33899	 24.50	
 13.601	158.353	 27.77597	  3.16291	 25.41502	 18.25524	  9.04473	 -0.93486	 30.26294	709.21802	 24.50	
 13.611	165.583	 27.78746	  2.73844	 25.94412	 16.70614	 10.42221	 -0.95735	 30.25369	709.19202	 24.60	
 13.608	172.853	 27.82117	  2.44595	 26.29028	 15.13609	 11.90007	 -0.99865	 30.27585	709.30499	 24.50	
 15.298	173.587	 27.06460	  0.75781	 27.19625	 14.48654	 11.26652	 -1.19421	 30.31233	709.25299	 24.50	
 15.291	167.167	 27.02161	  1.01491	 26.87465	 16.01399	  9.81480	 -1.16963	 30.27889	709.28699	 24.50	
 15.307	160.676	 27.00146	  1.35236	 26.42291	 17.60554	  8.39590	 -1.15636	 30.28953	709.09399	 24.50	
 15.300	154.261	 26.94617	  1.83055	 25.73219	 19.10391	  7.06189	 -1.16682	 30.24368	709.24597	 24.50	
 15.288	147.854	 26.94433	  2.43794	 24.93468	 20.54034	  5.86807	 -1.19875	 30.26659	709.30103	 24.50	
 15.293	141.428	 26.93276	  3.18416	 23.96770	 21.89537	  4.80330	 -1.23472	 30.28563	709.24902	 24.50	
 15.299	134.985	 26.90183	  4.04639	 22.83994	 23.12662	  3.82948	 -1.28763	 30.26948	709.23102	 24.60	
 15.305	128.583	 26.86909	  5.03607	 21.58104	 24.22597	  2.98049	 -1.33606	 30.26263	709.39203	 24.50	
 15.309	122.142	 26.86696	  6.12684	 20.22417	 25.19949	  2.24555	 -1.36364	 30.28702	709.23102	 24.50	
 15.304	115.711	 26.84799	  7.25972	 18.77271	 25.96299	  1.67755	 -1.36097	 30.26921	709.24597	 24.50	
 15.297	109.291	 26.82647	  8.57506	 17.24964	 26.57976	  1.24376	 -1.35081	 30.26103	709.26300	 24.60	
 15.293	102.897	 26.84467	  9.99462	 15.71974	 27.05592	  0.94634	 -1.34298	 30.27902	709.41199	 24.50	
 15.293	 96.458	 26.82542	 11.45090	 14.16039	 27.31616	  0.74102	 -1.35246	 30.25419	709.30200	 24.50	
 15.300	 90.000	 26.81741	 13.00068	 12.58884	 27.42907	  0.59539	 -1.37172	 30.27494	709.38397	 24.50	
 15.293	 83.542	 26.83145	 14.56193	 11.06730	 27.32685	  0.74685	 -1.33538	 30.28583	709.34698	 24.60	
 15.293	 77.103	 26.82759	 16.11190	  9.60084	 27.04870	  0.96494	 -1.25885	 30.28103	709.34900	 24.50	
 15.297	 70.709	 26.77524	 17.60938	  8.20304	 26.54670	  1.31572	 -1.16851	 30.21785	709.25403	 24.50	
 15.304	 64.289	 26.79705	 19.13376	  6.87857	 25.96609	  1.79150	 -1.10278	 30.25845	709.27100	 24.60	
 15.309	 57.858	 26.74534	 20.54496	  5.66859	 25.16401	  2.38197	 -1.05645	 30.24685	709.27600	 24.50	
 15.305	 51.417	 26.77339	 21.90767	  4.63922	 24.24031	  3.13126	 -1.03824	 30.28638	709.23401	 24.50	
 15.299	 45.015	 26.74259	 23.11353	  3.69885	 23.10790	  3.98941	 -1.04834	 30.25331	709.26300	 24.50	
 15.293	 38.572	 26.73405	 24.20307	  2.87441	 21.85260	  4.96186	 -1.06327	 30.23613	709.19702	 24.50	
 15.288	 32.146	 26.75671	 25.17836	  2.16752	 20.55192	  6.01824	 -1.03864	 30.27904	709.18103	 24.50	
 15.300	 25.739	 26.72540	 25.95774	  1.60054	 19.13821	  7.12112	 -1.02403	 30.27462	709.15601	 24.50	
 15.307	 19.324	 26.72050	 26.57914	  1.16249	 17.63843	  8.43303	 -1.03482	 30.28203	709.22900	 24.50	
 15.291	 12.833	 26.72988	 27.02688	  0.85410	 16.11119	  9.83745	 -1.04972	 30.27183	709.15198	 24.50	
 15.298	  6.413	 26.71466	 27.27167	  0.63243	 14.58070	 11.27053	 -1.03836	 30.25483	709.19800	 24.50	
 15.300	  0.000	 26.73857	 27.37480	  0.56668	 13.02284	 12.80049	 -1.06768	 30.27245	709.15802	 24.50	
 15.298	 -6.413	 26.78540	 27.31511	  0.63638	 11.52737	 14.36111	 -1.07365	 30.31242	709.24500	 24.50	
 15.291	-12.833	 26.74982	 26.98993	  0.85332	 10.03491	 15.88207	 -1.06480	 30.26239	709.20599	 24.50	
 15.307	-19.324	 26.77304	 26.55653	  1.18278	  8.60010	 17.46632	 -1.07189	 30.28117	709.09601	 24.60	
 15.300	-25.739	 26.79849	 25.91116	  1.66384	  7.28857	 18.97572	 -1.05968	 30.28010	709.26801	 24.60	
 15.288	-32.146	 26.82940	 25.10933	  2.27607	  6.06803	 20.41099	 -1.08030	 30.28876	709.29797	 24.60	
 15.293	-38.572	 26.81422	 24.13313	  3.00063	  4.91982	 21.76240	 -1.07192	 30.27373	709.35498	 24.60	
 15.299	-45.015	 26.78395	 23.00005	  3.83298	  3.95720	 22.98678	 -1.08015	 30.24095	709.30798	 24.60	
 15.305	-51.417	 26.80407	 21.78161	  4.80900	  3.14811	 24.08831	 -1.08497	 30.25711	709.21100	 24.50	
 15.309	-57.858	 26.83608	 20.44413	  5.91083	  2.42782	 25.07512	 -1.10742	 30.28128	709.27899	 24.60	
 15.304	-64.289	 26.79790	 18.96821	  7.05886	  1.79410	 25.84408	 -1.08219	 30.23998	709.20398	 24.50	
 15.297	-70.709	 26.80167	 17.43580	  8.38745	  1.34498	 26.47070	 -1.07821	 30.23977	709.22900	 24.50	
 15.293	-77.103	 26.84681	 15.93103	  9.80786	  1.00813	 26.97224	 -1.06725	 30.29475	709.26801	 24.50	
 15.293	-83.542	 26.84299	 14.36020	 11.28979	  0.79394	 27.24323	 -1.06596	 30.30174	709.20398	 24.60	
 15.300	-90.000	 26.81720	 12.77223	 12.81007	  0.67947	 27.31050	 -1.10750	 30.27278	709.19800	 24.50	
 15.293	-96.458	 26.83726	 11.24171	 14.37801	  0.74277	 27.21190	 -1.12073	 30.28149	709.15997	 24.50	
 15.293	-102.897	 26.83489	  9.76067	 15.93498	  0.94337	 26.92296	 -1.13751	 30.26406	709.23102	 24.50	
 15.297	-109.291	 26.88156	  8.36520	 17.48085	  1.27778	 26.48895	 -1.12980	 30.27958	709.16699	 24.50	
 15.304	-115.711	 26.92126	  7.03212	 18.99788	  1.75420	 25.84519	 -1.10792	 30.29143	709.33899	 24.50	
 15.309	-122.142	 26.90895	  5.82866	 20.40565	  2.32037	 24.98907	 -1.09100	 30.22981	709.33002	 24.50	
 15.305	-128.583	 26.96838	  4.78798	 21.77097	  3.01971	 24.03275	 -1.07173	 30.25946	709.25299	 24.50	
 15.299	-134.985	 27.00270	  3.82696	 22.99604	  3.82975	 22.95107	 -1.09396	 30.26460	709.24500	 24.50	
 15.293	-141.428	 27.05260	  2.99897	 24.12158	  4.80469	 21.69909	 -1.11988	 30.27105	709.21198	 24.50	
 15.288	-147.854	 27.03824	  2.30904	 25.05400	  5.93282	 20.30492	 -1.14534	 30.24183	709.22198	 24.60	
 15.300	-154.261	 27.07885	  1.71004	 25.87874	  7.14936	 18.90904	 -1.14780	 30.28103	709.26202	 24.50	
 15.307	-160.676	 27.05759	  1.22951	 26.47892	  8.45595	 17.40610	 -1.13808	 30.26201	709.31598	 24.60	
 15.291	-167.167	 27.11426	  0.92253	 26.96811	  9.92743	 15.86952	 -1.16609	 30.31107	709.23102	 24.50	
 15.298	-173.587	 27.07383	  0.72053	 27.20628	 11.38714	 14.31546	 -1.20647	 30.28820	709.34601	 24.60	
 15.300	180.000	 27.06353	  0.66070	 27.29340	 12.90755	 12.79313	 -1.20719	 30.29746	709.21503	 24.60	
 17.000	180.000	 26.13770	 -0.91506	 28.02958	 12.17372	 12.04766	 -1.31555	 30.27083	709.22302	 24.60	
 16.990	-174.179	 26.15947	 -0.89466	 27.96930	 10.66888	 13.55893	 -1.29246	 30.26848	709.28400	 24.60	
 17.009	-168.383	 26.16299	 -0.78894	 27.75888	  9.19336	 15.08907	 -1.25156	 30.27899	709.26300	 24.60	
 17.000	-162.596	 26.14531	 -0.51628	 27.32979	  7.77190	 16.61268	 -1.22427	 30.24596	709.24902	 24.60	
 16.990	-156.759	 26.18190	 -0.11315	 26.79263	  6.46595	 18.14489	 -1.25373	 30.28063	709.19501	 24.60	
 16.995	-150.919	 26.16933	  0.38365	 26.07511	  5.21610	 19.60796	 -1.26766	 30.26599	709.17200	 24.60	
 16.988	-145.161	 26.16146	  1.00748	 25.21262	  4.08386	 21.01838	 -1.27522	 30.28230	709.23901	 24.50	
 17.014	-139.343	 26.11589	  1.72463	 24.18682	  3.07713	 22.32344	 -1.25320	 30.26316	709.13300	 24.50	
 17.007	-133.546	 26.12934	  2.61077	 23.07936	  2.20831	 23.54788	 -1.22214	 30.30048	709.26202	 24.50	
 17.001	-127.699	 26.03311	  3.57244	 21.76029	  1.40668	 24.59297	 -1.20200	 30.23802	709.18402	 24.50	
 17.006	-121.937	 26.01707	  4.62593	 20.43203	  0.73424	 25.57419	 -1.19976	 30.26587	709.36298	 24.50	
 17.002	-116.134	 25.95077	  5.71568	 18.97644	  0.18271	 26.35947	 -1.18071	 30.23342	709.18903	 24.50	
 17.001	-110.310	 25.93222	  6.95578	 17.48692	 -0.29056	 27.03928	 -1.14806	 30.24565	709.21399	 24.50	
 16.988	-104.517	 25.93649	  8.34272	 15.98046	 -0.60397	 27.53393	 -1.10212	 30.26859	709.32202	 24.50	
 17.008	-98.662	 25.93912	  9.79056	 14.43147	 -0.84969	 27.91250	 -1.04092	 30.31181	709.18701	 24.50	
 16.996	-92.909	 25.88482	 11.26688	 12.87121	 -0.94084	 28.00993	 -1.01491	 30.23611	709.29797	 24.50	
 16.996	-87.091	 25.91180	 12.82644	 11.34323	 -0.91209	 28.06355	 -0.96717	 30.28823	709.24597	 24.50	
 17.012	-81.253	 25.83349	 14.33576	  9.81167	 -0.79088	 27.85223	 -0.94226	 30.21423	709.13501	 24.50	
 16.988	-75.483	 25.91496	 15.91279	  8.41932	 -0.54505	 27.60584	 -0.96968	 30.28885	709.23901	 24.50	
 17.001	-69.690	 25.86629	 17.42699	  7.03233	 -0.26291	 27.09598	 -0.95295	 30.25105	709.20300	 24.50	
 17.002	-63.866	 25.90794	 18.95955	  5.81639	  0.21844	 26.47081	 -0.97221	 30.29059	709.18298	 24.50	
 17.006	-58.063	 25.90586	 20.40215	  4.65777	  0.82988	 25.66958	 -1.01584	 30.27415	709.19800	 24.50	
 17.001	-52.301	 25.89269	 21.75513	  3.59655	  1.55993	 24.69793	 -1.03841	 30.25563	709.28699	 24.50	
 17.007	-46.454	 25.88625	 23.02498	  2.60508	  2.34350	 23.60599	 -1.03890	 30.25279	709.16901	 24.50	
 17.014	-40.657	 25.88121	 24.17526	  1.73461	  3.20278	 22.42209	 -1.03763	 30.25989	709.10999	 24.50	
 16.988	-34.839	 25.85491	 25.17446	  1.01329	  4.21443	 21.08359	 -1.02499	 30.23915	709.16400	 24.50	
 16.995	-29.081	 25.87005	 26.07970	  0.34678	  5.35269	 19.73645	 -1.06028	 30.26962	709.20599	 24.50	
 16.990	-23.241	 25.84851	 26.80204	 -0.19098	  6.60185	 18.25543	 -1.05895	 30.26147	709.19702	 24.50	
 17.000	-17.404	 25.81656	 27.36895	 -0.58526	  7.92729	 16.72187	 -1.06292	 30.24430	709.16901	 24.50	
 17.009	-11.617	 25.81824	 27.79854	 -0.85943	  9.34168	 15.17772	 -1.05045	 30.26514	709.25897	 24.50	
 16.990	 -5.821	 25.79356	 28.00922	 -1.00495	 10.79164	 13.63177	 -1.04094	 30.23779	709.22198	 24.50	
 17.000	  0.000	 25.79927	 28.11905	 -1.06719	 12.29587	 12.12421	 -1.03149	 30.26999	709.14899	 24.50	
 16.990	  5.821	 25.78610	 28.03792	 -0.98860	 13.84497	 10.58467	 -1.01370	 30.26297	709.14099	 24.50	
 17.009	 11.617	 25.78755	 27.83972	 -0.83315	 15.36729	  9.15435	 -0.99170	 30.27988	709.15302	 24.50	
 17.000	 17.404	 25.77470	 27.42475	 -0.52830	 16.87662	  7.78468	 -0.99254	 30.25837	709.27399	 24.50	
 16.990	 23.241	 25.76882	 26.85735	 -0.16287	 18.38739	  6.47542	 -1.01573	 30.25059	709.17700	 24.50	
 16.995	 29.081	 25.78875	 26.16467	  0.30942	 19.84456	  5.36089	 -1.04247	 30.27296	709.18903	 24.50	
 16.988	 34.839	 25.82469	 25.31611	  0.94609	 21.23241	  4.28169	 -1.08981	 30.28324	709.21100	 24.50	
 17.014	 40.657	 25.78610	 24.27701	  1.65495	 22.51047	  3.24440	 -1.13016	 30.24248	709.19202	 24.50	
 17.007	 46.454	 25.79070	 23.13747	  2.48688	 23.70382	  2.31795	 -1.15188	 30.23964	709.18103	 24.50	
 17.001	 52.301	 25.81231	 21.89591	  3.42809	 24.78366	  1.49183	 -1.17129	 30.24856	709.25299	 24.50	
 17.006	 58.063	 25.84496	 20.57736	  4.45222	 25.75264	  0.75529	 -1.20129	 30.28078	709.16901	 24.50	
 17.002	 63.866	 25.84269	 19.13764	  5.55829	 26.54625	  0.12627	 -1.25316	 30.27467	709.29102	 24.50	
 17.001	 69.690	 25.83602	 17.63506	  6.80970	 27.18059	 -0.36662	 -1.29448	 30.24607	709.34399	 24.50	
 16.988	 75.483	 25.84115	 16.11555	  8.16406	 27.65790	 -0.71849	 -1.34835	 30.24901	709.36902	 24.50	
 17.012	 81.253	 25.81922	 14.57470	  9.55418	 27.98425	 -0.98110	 -1.38501	 30.25079	709.22803	 24.50	
 16.996	 87.091	 25.86841	 13.05753	 11.06289	 28.16265	 -1.08756	 -1.36776	 30.27287	709.15802	 24.50	
 16.996	 92.909	 25.89025	 11.51340	 12.59526	 28.16898	 -1.09428	 -1.34785	 30.28023	709.34698	 24.50	
 17.008	 98.662	 25.86128	 10.03789	 14.11779	 27.97618	 -0.98180	 -1.32832	 30.23793	709.26202	 24.50	
 16.988	104.517	 25.92069	  8.62091	 15.70742	 27.69028	 -0.74406	 -1.32176	 30.29415	709.14398	 24.50	
 17.001	110.310	 25.87245	  7.23945	 17.20928	 27.16010	 -0.42125	 -1.35296	 30.23365	709.20398	 24.50	
 17.002	116.134	 25.93278	  6.06588	 18.73886	 26.56144	  0.02807	 -1.41741	 30.28686	709.28998	 24.50	
 17.006	121.937	 25.92475	  4.91666	 20.17513	 25.73837	  0.62268	 -1.44041	 30.23953	709.21997	 24.50	
 17.001	127.699	 25.97060	  3.86526	 21.55739	 24.83059	  1.32711	 -1.45925	 30.26511	709.24200	 24.50	
 17.007	133.546	 25.98510	  2.87275	 22.84215	 23.75647	  2.12867	 -1.44483	 30.27425	709.27698	 24.50	
 17.014	139.343	 26.00187	  1.96670	 24.02036	 22.54800	  3.04215	 -1.42125	 30.26743	709.26703	 24.50	
 16.988	145.161	 26.03814	  1.21406	 25.05061	 21.20922	  4.08480	 -1.38187	 30.27238	709.22302	 24.50	
 16.995	150.919	 26.06925	  0.55598	 25.94842	 19.83411	  5.15276	 -1.36393	 30.28619	709.28400	 24.50	
 16.990	156.759	 26.06892	  0.06197	 26.64470	 18.34418	  6.38090	 -1.35659	 30.25996	709.28400	 24.50	
 17.000	162.596	 26.10119	 -0.32230	 27.24733	 16.81733	  7.70915	 -1.33684	 30.26488	709.29102	 24.50	
 17.009	168.383	 26.10242	 -0.61372	 27.66215	 15.27193	  9.07826	 -1.33527	 30.25175	709.11298	 24.50	
 16.990	174.179	 26.09922	 -0.78678	 27.89121	 13.73042	 10.52295	 -1.34179	 30.23378	709.19202	 24.50	
 18.709	174.675	 25.13389	 -2.40714	 28.60080	 12.96845	  9.78263	 -1.37353	 30.27785	709.21198	 24.50	
 18.703	169.441	 25.11157	 -2.27357	 28.35677	 14.45488	  8.36876	 -1.40167	 30.25831	709.11102	 24.50	
 18.691	164.085	 25.10470	 -2.04607	 27.98193	 15.99845	  6.98485	 -1.42654	 30.26697	709.21997	 24.50	
 18.706	158.818	 25.09702	 -1.74601	 27.49080	 17.51847	  5.67243	 -1.46078	 30.30251	709.16602	 24.50	
 18.695	153.537	 25.04965	 -1.31715	 26.80267	 18.95086	  4.46934	 -1.47201	 30.25660	709.23700	 24.50	
 18.704	148.255	 25.02125	 -0.76581	 25.99340	 20.38838	  3.34964	 -1.49100	 30.26858	709.09003	 24.50	
 18.698	142.952	 24.98726	 -0.07342	 25.01733	 21.75529	  2.28034	 -1.49840	 30.24553	709.15601	 24.50	
 18.699	137.625	 24.99961	  0.75126	 23.96038	 23.07467	  1.29506	 -1.49632	 30.28298	709.32501	 24.50	
 18.705	132.343	 24.97794	  1.67293	 22.75964	 24.22839	  0.44088	 -1.50239	 30.25749	709.21802	 24.50	
 18.713	127.067	 24.94507	  2.63912	 21.46659	 25.28958	 -0.35190	 -1.49449	 30.26556	709.28198	 24.50	
 18.700	121.794	 24.88351	  3.70995	 20.05021	 26.18518	 -1.01550	 -1.43647	 30.21551	709.22900	 24.50	
 18.698	116.504	 24.88364	  4.82020	 18.62432	 26.99232	 -1.57631	 -1.36642	 30.24361	709.17999	 24.50	
 18.707	111.165	 24.88448	  5.98147	 17.15271	 27.67558	 -2.03693	 -1.29021	 30.26960	709.24500	 24.50	
 18.690	105.863	 24.89306	  7.22931	 15.63831	 28.17647	 -2.34367	 -1.25376	 30.27990	709.32501	 24.50	
 18.696	100.583	 24.86386	  8.60647	 14.09804	 28.50611	 -2.55869	 -1.22530	 30.24950	709.27399	 24.50	
 18.700	 95.309	 24.89083	 10.04354	 12.59885	 28.75517	 -2.70476	 -1.22007	 30.28802	709.21802	 24.50	
 18.700	 90.000	 24.86067	 11.53027	 11.07388	 28.80538	 -2.72196	 -1.27454	 30.27288	709.13202	 24.50	
 18.700	 84.691	 24.84023	 13.04244	  9.58027	 28.72325	 -2.64569	 -1.33681	 30.26708	709.17200	 24.50	
 18.696	 79.417	 24.82933	 14.56300	  8.15012	 28.50373	 -2.49658	 -1.37543	 30.26295	709.27698	 24.50	
 18.690	 74.137	 24.83123	 16.07486	  6.78811	 28.15150	 -2.25463	 -1.39168	 30.26178	709.26703	 24.50	
 18.707	 68.835	 24.80421	 17.56941	  5.47273	 27.64963	 -1.93809	 -1.38349	 30.25299	709.15302	 24.50	
 18.698	 63.496	 24.82278	 19.08248	  4.28923	 27.02136	 -1.47080	 -1.36019	 30.29636	709.20801	 24.50	
 18.700	 58.206	 24.80981	 20.49916	  3.20370	 26.22160	 -0.88656	 -1.31077	 30.28704	709.23602	 24.50	
 18.713	 52.933	 24.75443	 21.81526	  2.17406	 25.24198	 -0.17635	 -1.26298	 30.24071	709.22302	 24.50	
 18.705	 47.657	 24.78944	 23.10155	  1.27750	 24.20639	  0.72072	 -1.20891	 30.26528	709.21503	 24.50	
 18.699	 42.375	 24.81141	 24.27115	  0.46433	 23.09316	  1.57736	 -1.17246	 30.30427	709.18298	 24.50	
 18.698	 37.048	 24.76947	 25.28719	 -0.26078	 21.80643	  2.51355	 -1.10416	 30.26963	709.26001	 24.50	
 18.704	 31.745	 24.76057	 26.22127	 -0.90193	 20.45088	  3.56491	 -1.03382	 30.26442	709.12500	 24.50	
 18.695	 26.463	 24.74516	 27.00421	 -1.46565	 19.03382	  4.69192	 -0.97470	 30.26295	709.40302	 24.50	
 18.706	 21.182	 24.74020	 27.65763	 -1.89850	 17.58527	  5.81252	 -0.93840	 30.27268	709.31000	 24.50	
 18.691	 15.915	 24.74765	 28.15720	 -2.22654	 16.08363	  7.08505	 -0.92593	 30.27585	709.27698	 24.50	
 18.703	 10.559	 24.71696	 28.48302	 -2.49490	 14.53686	  8.45470	 -0.90457	 30.24770	709.26801	 24.50	
 18.709	  5.325	 24.75628	 28.73077	 -2.66302	 13.07434	  9.84472	 -0.93369	 30.28016	709.28998	 24.50	
 18.700	  0.000	 24.73165	 28.74293	 -2.69028	 11.52487	 11.33206	 -0.92240	 30.23206	709.39697	 24.50	
 18.709	 -5.325	 24.75904	 28.69104	 -2.64689	 10.04939	 12.84170	 -0.97098	 30.26934	709.28198	 24.50	
 18.703	-10.559	 24.79421	 28.50478	 -2.52997	  8.64063	 14.36554	 -1.00135	 30.28967	709.33600	 24.50	
 18.691	-15.915	 24.82480	 28.13185	 -2.29101	  7.23110	 15.92893	 -1.00151	 30.29781	709.32501	 24.50	
 18.706	-21.182	 24.80849	 27.59937	 -1.98719	  5.91462	 17.41803	 -1.00142	 30.26398	709.22198	 24.50	
 18.695	-26.463	 24.81895	 26.91782	 -1.47394	  4.67326	 18.89191	 -1.01926	 30.24612	709.26202	 24.50	
 18.704	-31.745	 24.83246	 26.12578	 -0.92464	  3.51194	 20.33483	 -0.97367	 30.24567	709.14203	 24.50	
 18.698	-37.048	 24.88387	 25.20221	 -0.24157	  2.50059	 21.73019	 -0.96610	 30.28419	709.17499	 24.50	
 18.699	-42.375	 24.86564	 24.09797	  0.53462	  1.56856	 22.96103	 -0.95739	 30.22923	709.27698	 24.50	
 18.705	-47.657	 24.89217	 22.95729	  1.39668	  0.70141	 24.17471	 -0.95861	 30.27236	709.25299	 24.50	
 18.713	-52.933	 24.89249	 21.68619	  2.34590	 -0.04834	 25.24232	 -0.91746	 30.28859	709.23602	 24.50	
 18.700	-58.206	 24.89653	 20.33010	  3.39349	 -0.68144	 26.15810	 -0.90253	 30.28535	709.20001	 24.50	
 18.698	-63.496	 24.86442	 18.87491	  4.51869	 -1.22280	 26.87766	 -0.86107	 30.23441	709.22302	 24.50	
 18.707	-68.835	 24.86259	 17.38781	  5.73038	 -1.67856	 27.53159	 -0.85307	 30.22903	709.26202	 24.50	
 18.690	-74.137	 24.89840	 15.89006	  7.02586	 -2.02030	 28.06468	 -0.84730	 30.26818	709.20599	 24.50	
 18.696	-79.417	 24.90801	 14.35816	  8.40170	 -2.29018	 28.44081	 -0.88607	 30.29378	709.22900	 24.50	
 18.700	-84.691	 24.90841	 12.81767	  9.85463	 -2.47966	 28.66669	 -0.87905	 30.29821	709.24200	 24.50	
 18.700	-90.000	 24.89704	 11.26231	 11.34776	 -2.57096	 28.70968	 -0.90504	 30.27739	709.21198	 24.50	
 18.700	-95.309	 24.91013	  9.77012	 12.88933	 -2.51056	 28.63834	 -0.92667	 30.29348	709.31500	 24.50	
 18.696	-100.583	 24.90070	  8.32865	 14.40427	 -2.35771	 28.38968	 -0.98694	 30.26488	709.31000	 24.50	
 18.690	-105.863	 24.93798	  6.93372	 15.94228	 -2.10082	 28.03111	 -1.05094	 30.27618	709.32202	 24.50	
 18.707	-111.165	 24.93337	  5.64912	 17.43726	 -1.77102	 27.49822	 -1.13763	 30.25380	709.25598	 24.50	
 18.698	-116.504	 24.98166	  4.51699	 18.93416	 -1.35462	 26.84349	 -1.20448	 30.27086	709.28497	 24.50	
 18.700	-121.794	 24.99511	  3.39667	 20.32522	 -0.85789	 26.03616	 -1.24812	 30.25505	709.23102	 24.50	
 18.713	-127.067	 25.03830	  2.32868	 21.69446	 -0.24123	 25.11683	 -1.26250	 30.26943	709.29102	 24.50	
 18.705	-132.343	 25.06150	  1.35304	 22.95789	  0.52528	 24.02188	 -1.27023	 30.24438	709.21503	 24.50	
 18.699	-137.625	 25.09870	  0.48572	 24.12402	  1.39601	 22.83937	 -1.30840	 30.24399	709.28699	 24.50	
 18.698	-142.952	 25.15902	 -0.27695	 25.21313	  2.34793	 21.59107	 -1.31316	 30.28032	709.28400	 24.50	
 18.704	-148.255	 25.14859	 -0.93491	 26.13156	  3.34089	 20.21323	 -1.30503	 30.26150	709.26202	 24.50	
 18.695	-153.537	 25.20195	 -1.47176	 26.96545	  4.52209	 18.80805	 -1.27948	 30.30983	709.19202	 24.50	
 18.706	-158.818	 25.15950	 -1.88370	 27.57219	  5.73793	 17.30724	 -1.23165	 30.26388	709.22900	 24.50	
 18.691	-164.085	 25.17223	 -2.18889	 28.06975	  7.05825	 15.82628	 -1.23342	 30.27030	709.25897	 24.50	
 18.703	-169.441	 25.15738	 -2.39004	 28.42279	  8.47307	 14.28054	 -1.25168	 30.26577	709.26300	 24.50	
 18.709	-174.675	 25.13318	 -2.47493	 28.60415	  9.89550	 12.78374	 -1.29015	 30.24460	709.31500	 24.50	
 18.700	180.000	 25.18274	 -2.46321	 28.71351	 11.42854	 11.31190	 -1.32778	 30.30481	709.25403	 24.50	
 20.400	180.000	 24.03988	 -4.12926	 29.20333	 10.57945	 10.47115	 -1.24424	 30.24712	709.19702	 24.50	
 20.401	-175.153	 24.04701	 -4.13568	 29.14928	  9.11941	 11.93978	 -1.19493	 30.23976	709.26300	 24.50	
 20.407	-170.264	 24.06279	 -4.05467	 28.99160	  7.68503	 13.44593	 -1.16380	 30.25650	709.11798	 24.50	
 20.410	-165.423	 24.08224	 -3.86997	 28.69204	  6.31246	 14.96425	 -1.15462	 30.27093	709.18402	 24.50	
 20.392	-160.496	 24.08252	 -3.58953	 28.22986	  5.01096	 16.45289	 -1.16276	 30.26453	709.22198	 24.50	
 20.401	-155.705	 24.10595	 -3.23399	 27.69230	  3.79234	 17.92292	 -1.18089	 30.31128	709.16901	 24.50	
 20.405	-150.835	 24.09742	 -2.76496	 26.95940	  2.61077	 19.36034	 -1.21530	 30.30124	709.25403	 24.50	
 20.397	-145.903	 24.04305	 -2.17685	 26.04858	  1.54604	 20.75428	 -1.25961	 30.23443	709.30499	 24.50	
 20.392	-141.062	 24.02757	 -1.51034	 25.07213	  0.58995	 22.06385	 -1.27645	 30.23265	709.28699	 24.50	
 20.396	-136.227	 23.99458	 -0.77363	 24.00399	 -0.32327	 23.32398	 -1.26137	 30.26117	709.22601	 24.50	
 20.408	-131.372	 23.96700	  0.07868	 22.82675	 -1.16320	 24.48886	 -1.26272	 30.27921	709.18103	 24.50	
 20.410	-126.511	 23.91680	  1.05631	 21.53337	 -1.86721	 25.49878	 -1.25440	 30.24634	709.22900	 24.50	
 20.400	-121.604	 23.90372	  2.10777	 20.18416	 -2.45278	 26.39493	 -1.24275	 30.26576	709.24902	 24.50	
 20.403	-116.741	 23.86874	  3.24593	 18.76623	 -2.94166	 27.19443	 -1.17985	 30.26464	709.16699	 24.50	
 20.413	-111.900	 23.82739	  4.36977	 17.31415	 -3.35593	 27.87637	 -1.09944	 30.26688	709.26202	 24.50	
 20.398	-107.004	 23.79661	  5.54421	 15.79946	 -3.68998	 28.40283	 -1.00502	 30.25379	709.30798	 24.50	
 20.394	-102.132	 23.76577	  6.84609	 14.27680	 -3.94608	 28.80295	 -0.92045	 30.24464	709.15002	 24.50	
 20.403	-97.332	 23.76449	  8.22908	 12.78492	 -4.12295	 29.08376	 -0.86925	 30.26185	709.24597	 24.50	
 20.392	-92.440	 23.76998	  9.67468	 11.27459	 -4.20997	 29.22402	 -0.85032	 30.26565	709.13501	 24.50	
 20.392	-87.560	 23.75255	 11.16588	  9.78213	 -4.18305	 29.22065	 -0.83846	 30.25429	709.18701	 24.50	
 20.403	-82.668	 23.75496	 12.69515	  8.32519	 -4.07867	 29.13227	 -0.82840	 30.27490	709.21997	 24.50	
 20.394	-77.868	 23.75721	 14.20204	  6.96018	 -3.87327	 28.87299	 -0.82102	 30.27191	709.18103	 24.50	
 20.398	-72.996	 23.75497	 15.73701	  5.69753	 -3.59716	 28.47606	 -0.79498	 30.25949	709.11102	 24.50	
 20.413	-68.100	 23.75783	 17.24209	  4.41873	 -3.25799	 27.95866	 -0.77451	 30.26825	709.17200	 24.50	
 20.403	-63.259	 23.81133	 18.71663	  3.28345	 -2.80782	 27.34088	 -0.77985	 30.30457	709.14099	 24.50	
 20.400	-58.396	 23.78186	 20.10955	  2.18241	 -2.28404	 26.53158	 -0.80247	 30.26288	709.21399	 24.50	
 20.410	-53.489	 23.79351	 21.48207	  1.12813	 -1.69330	 25.65608	 -0.85284	 30.29138	709.21100	 24.50	
 20.408	-48.628	 23.74677	 22.71615	  0.20004	 -0.99556	 24.59133	 -0.88164	 30.24096	709.18103	 24.50	
 20.396	-43.773	 23.80571	 23.95865	 -0.63714	 -0.16809	 23.48726	 -0.87894	 30.28204	709.21100	 24.50	
 20.392	-38.938	 23.77814	 25.02696	 -1.39129	  0.75683	 22.22583	 -0.91994	 30.24283	709.30499	 24.50	
 20.397	-34.097	 23.73797	 25.99658	 -2.07892	  1.72684	 20.89250	 -0.91965	 30.22959	709.26703	 24.50	
 20.405	-29.165	 23.73684	 26.91347	 -2.70495	  2.78206	 19.51037	 -0.91016	 30.26475	709.18701	 24.50	
 20.401	-24.295	 23.72168	 27.64667	 -3.17762	  3.97130	 18.04286	 -0.91079	 30.25750	709.35303	 24.50	
 20.392	-19.504	 23.68736	 28.21885	 -3.54328	  5.17747	 16.57170	 -0.91990	 30.24504	709.09399	 24.50	
 20.410	-14.577	 23.67068	 28.72773	 -3.86524	  6.47944	 15.06638	 -0.90617	 30.27000	709.02802	 24.50	
 20.407	 -9.736	 23.67534	 29.06905	 -4.05271	  7.87154	 13.56051	 -0.88255	 30.28371	709.12500	 24.50	
 20.401	 -4.847	 23.64252	 29.23192	 -4.17260	  9.28507	 12.06052	 -0.88139	 30.25177	709.10400	 24.50	
 20.400	  0.000	 23.63482	 29.30642	 -4.24219	 10.73153	 10.59579	 -0.85012	 30.26142	709.09003	 24.50	
 20.401	  4.847	 23.62791	 29.27103	 -4.22131	 12.22205	  9.11721	 -0.83672	 30.27687	709.10498	 24.50	
 20.407	  9.736	 23.58773	 29.05518	 -4.09157	 13.69943	  7.70420	 -0.83496	 30.24928	709.01099	 24.50	
 20.410	 14.577	 23.57785	 28.74733	 -3.87565	 15.19110	  6.34641	 -0.82812	 30.24416	709.15997	 24.50	
 20.392	 19.504	 23.60086	 28.30824	 -3.59051	 16.73254	  5.09098	 -0.84323	 30.27510	709.28198	 24.50	
 20.401	 24.295	 23.59533	 27.72160	 -3.27545	 18.13179	  3.95072	 -0.85167	 30.25514	709.15802	 24.50	
 20.405	 29.165	 23.60027	 27.00958	 -2.84846	 19.57471	  2.82212	 -0.91488	 30.25269	709.16602	 24.50	
 20.397	 34.097	 23.59631	 26.14175	 -2.27861	 20.97364	  1.74070	 -0.99627	 30.24753	709.22198	 24.50	
 20.392	 38.938	 23.62920	 25.22054	 -1.63783	 22.27919	  0.76655	 -1.05507	 30.26106	709.28998	 24.40	
 20.396	 43.773	 23.63655	 24.15639	 -0.89104	 23.49149	 -0.13637	 -1.12762	 30.25833	709.13501	 24.50	
 20.408	 48.628	 23.62605	 22.97416	 -0.07847	 24.63315	 -1.01439	 -1.19836	 30.25471	709.08801	 24.40	
 20.410	 53.489	 23.61946	 21.70303	  0.83393	 25.65756	 -1.77598	 -1.27124	 30.26082	709.29901	 24.40	
 20.400	 58.396	 23.64128	 20.34704	  1.86212	 26.56179	 -2.44133	 -1.33650	 30.25713	709.08197	 24.40	
 20.403	 63.259	 23.67585	 18.96746	  2.95596	 27.35989	 -2.94302	 -1.36340	 30.27516	709.22803	 24.40	
 20.413	 68.100	 23.66818	 17.51400	  4.09180	 27.98880	 -3.36756	 -1.38197	 30.24275	709.15302	 24.40	
 20.398	 72.996	 23.72569	 16.06049	  5.35098	 28.56948	 -3.70381	 -1.34141	 30.29703	709.24902	 24.40	
 20.394	 77.868	 23.70478	 14.51165	  6.68132	 28.92233	 -3.96083	 -1.29859	 30.25261	709.18701	 24.40	
 20.403	 82.668	 23.74221	 13.04078	  8.06419	 29.20861	 -4.11973	 -1.22599	 30.29083	709.09601	 24.40	
 20.392	 87.560	 23.73572	 11.52695	  9.50804	 29.29434	 -4.18790	 -1.15656	 30.24781	709.15302	 24.40	
 20.392	 92.440	 23.78593	 10.04672	 11.03380	 29.33097	 -4.19380	 -1.12564	 30.28754	709.18903	 24.40	
 20.403	 97.332	 23.81045	  8.59316	 12.54616	 29.22519	 -4.11546	 -1.11324	 30.29990	709.08197	 24.40	
 20.394	102.132	 23.81981	  7.21484	 14.04461	 28.95930	 -3.94230	 -1.11285	 30.29149	709.17499	 24.40	
 20.398	107.004	 23.77415	  5.93350	 15.53787	 28.51044	 -3.68441	 -1.14964	 30.23110	709.22900	 24.40	
 20.413	111.900	 23.79455	  4.70104	 17.04971	 28.00274	 -3.35178	 -1.19556	 30.24537	709.13501	 24.40	
 20.403	116.741	 23.78995	  3.55005	 18.48903	 27.34595	 -2.93567	 -1.26792	 30.22828	709.10498	 24.40	
 20.400	121.604	 23.85660	  2.45662	 19.94618	 26.62597	 -2.44208	 -1.35187	 30.29560	709.15002	 24.40	
 20.410	126.511	 23.85830	  1.38344	 21.31037	 25.68781	 -1.85566	 -1.41187	 30.27484	709.17297	 24.40	
 20.408	131.372	 23.88719	  0.43669	 22.60436	 24.64879	 -1.18502	 -1.43777	 30.27134	709.17999	 24.40	
 20.396	136.227	 23.92122	 -0.45017	 23.80652	 23.49496	 -0.32728	 -1.47639	 30.28613	709.14398	 24.40	
 20.392	141.062	 23.92832	 -1.24529	 24.90287	 22.25691	  0.54806	 -1.49234	 30.27850	709.30701	 24.50	
 20.397	145.903	 23.91228	 -1.97413	 25.87812	 20.91572	  1.50571	 -1.50105	 30.25623	709.14899	 24.50	
 20.405	150.835	 23.94030	 -2.56383	 26.77768	 19.50598	  2.59599	 -1.51045	 30.25682	709.18402	 24.40	
 20.401	155.705	 23.96834	 -3.02249	 27.51415	 18.07380	  3.72942	 -1.50186	 30.25767	709.23700	 24.50	
 20.392	160.496	 23.99840	 -3.37424	 28.11021	 16.64468	  4.91567	 -1.46641	 30.26031	709.21198	 24.50	
 20.410	165.423	 24.06393	 -3.67813	 28.65030	 15.15277	  6.23703	 -1.40833	 30.31545	709.26202	 24.50	
 20.407	170.264	 24.02344	 -3.88214	 28.92018	 13.61264	  7.58158	 -1.35830	 30.24637	709.11902	 24.40	
 20.401	175.153	 24.02189	 -4.04674	 29.12419	 12.09433	  8.99416	 -1.29699	 30.24157	709.23102	 24.50	
  0.141	 45.000	 30.30082	 16.26172	 16.00149	 16.38997	 16.01879	  0.32615	 30.24220	709.16699	 24.40	
  4.001	128.691	 30.22019	 13.76825	 18.08682	 18.92940	 13.11844	  0.18779	 30.26325	709.23602	 24.40	
  4.002	 76.995	 30.21979	 16.77974	 14.94008	 19.70768	 12.48742	  0.21518	 30.26302	709.20398	 24.40	
  4.002	 25.892	 30.20525	 19.35900	 12.62738	 17.66930	 14.29647	  0.24017	 30.23483	709.21198	 24.40	
  4.002	-25.892	 30.18812	 19.31301	 12.68959	 14.50296	 17.43140	  0.18774	 30.23151	709.33301	 24.50	
  4.002	-76.995	 30.22340	 16.71662	 15.08321	 12.67745	 19.51005	  0.16818	 30.25798	709.17999	 24.50	
  4.001	-128.691	 30.25714	 13.73445	 18.18242	 13.29821	 18.78722	  0.20374	 30.28337	709.27100	 24.50	
  4.000	180.000	 30.26879	 12.50124	 19.59755	 15.98090	 15.86077	  0.23228	 30.29909	709.03400	 24.50	
  8.000	180.000	 29.70857	  8.21025	 22.79271	 15.22286	 15.12567	 -0.21008	 30.27526	709.07703	 24.50	
  7.991	-152.370	 29.72359	  8.91855	 21.91430	 11.92421	 18.62240	 -0.19454	 30.26745	709.09601	 24.50	
  7.997	-124.550	 29.65037	 11.14736	 19.42773	  9.46558	 21.44176	 -0.28796	 30.26119	709.04602	 24.50	
  8.006	-96.837	 29.56386	 14.27006	 15.99580	  8.40876	 22.73836	 -0.40415	 30.21902	709.16400	 24.50	
  7.988	-69.228	 29.61474	 17.81824	 12.65858	  8.83147	 22.34074	 -0.44126	 30.28327	709.09601	 24.50	
  7.997	-41.563	 29.58768	 20.89358	  9.86289	 10.64050	 20.20287	 -0.36086	 30.26254	709.20001	 24.50	
  8.008	-13.821	 29.56644	 22.66089	  8.30495	 13.59758	 16.89425	 -0.27744	 30.25843	709.10999	 24.50	
  8.008	 13.821	 29.59741	 22.70678	  8.23745	 17.15331	 13.45029	 -0.21722	 30.28643	709.13202	 24.50	
  7.997	 41.563	 29.56198	 20.93818	  9.65697	 20.36216	 10.41495	 -0.18331	 30.23105	709.19098	 24.50	
  7.988	 69.228	 29.56205	 17.89935	 12.41829	 22.46794	  8.53558	 -0.22772	 30.24183	709.29102	 24.50	
  8.006	 96.837	 29.56445	 14.47206	 15.82347	 22.93451	  8.14984	 -0.30361	 30.24225	709.16602	 24.50	
  7.997	124.550	 29.60917	 11.28329	 19.29569	 21.59070	  9.27844	 -0.27766	 30.27907	709.27100	 24.50	
  7.991	152.370	 29.65433	  9.03449	 21.84011	 18.74420	 11.82725	 -0.19802	 30.27205	709.17200	 24.50	
 12.009	161.059	 28.46022	  4.57801	 24.81302	 17.76568	 10.55367	 -0.73206	 30.27820	709.20599	 24.50	
 12.013	142.081	 28.34649	  6.02648	 22.88917	 21.11333	  7.53941	 -0.80890	 30.23180	709.21802	 24.50	
 12.006	123.113	 28.31695	  8.36215	 20.02352	 23.69944	  5.44400	 -0.93642	 30.23103	709.30499	 24.50	
 12.007	104.200	 28.31582	 11.61015	 16.56456	 25.29005	  4.25196	 -1.00304	 30.26136	709.23401	 24.50	
 11.989	 85.301	 28.30129	 15.08275	 12.92293	 25.57766	  4.07661	 -0.93734	 30.24594	709.15198	 24.50	
 12.013	 66.294	 28.30763	 18.68165	  9.54665	 24.64177	  4.84457	 -0.72522	 30.24826	709.10498	 24.50	
 12.012	 47.388	 28.29503	 21.87171	  6.76157	 22.55195	  6.50534	 -0.70667	 30.25871	709.17499	 24.40	
 11.990	 28.440	 28.25328	 24.18001	  4.94510	 19.55300	  8.98210	 -0.75415	 30.24286	709.14203	 24.40	
 11.991	  9.464	 28.26813	 25.43514	  4.00398	 16.07652	 12.26186	 -0.80671	 30.27566	709.20398	 24.40	
 11.991	 -9.464	 28.29160	 25.41544	  4.08752	 12.47039	 15.83252	 -0.82775	 30.26867	709.19098	 24.40	
 11.990	-28.440	 28.27074	 24.13526	  5.01782	  9.11485	 19.38627	 -0.83259	 30.24403	709.15997	 24.40	
 12.012	-47.388	 28.29025	 21.75929	  6.95111	  6.51212	 22.41552	 -0.91850	 30.24480	709.13800	 24.40	
 12.013	-66.294	 28.32447	 18.55787	  9.67479	  4.83308	 24.57057	 -1.00308	 30.27924	709.17297	 24.40	
 11.989	-85.301	 28.31001	 14.91432	 13.17107	  4.12091	 25.44382	 -1.00988	 30.24275	709.41901	 24.40	
 12.007	-104.200	 28.32338	 11.40486	 16.75869	  4.32098	 25.12458	 -0.92724	 30.24156	709.27002	 24.40	
 12.006	-123.113	 28.40989	  8.19979	 20.21233	  5.46604	 23.60529	 -0.76625	 30.25198	709.19501	 24.40	
 12.013	-142.081	 28.50657	  5.88081	 23.05686	  7.61777	 20.97766	 -0.75553	 30.27221	709.17200	 24.40	
 12.009	-161.059	 28.50535	  4.45791	 24.86288	 10.59305	 17.60725	 -0.74572	 30.24982	709.15002	 24.40	
 16.000	180.000	 26.67167	 -0.01912	 27.59056	 12.59604	 12.47296	 -1.27220	 30.26362	709.16901	 24.40	
 15.990	-165.604	 26.72116	  0.29804	 27.15840	  9.13375	 16.07212	 -1.20695	 30.28142	709.22601	 24.40	
 16.002	-151.165	 26.70042	  1.31472	 25.76789	  6.01697	 19.57363	 -1.21723	 30.27114	709.19098	 24.40	
 16.002	-136.836	 26.65762	  2.96272	 23.51235	  3.50779	 22.72091	 -1.18016	 30.28194	709.15997	 24.40	
 15.995	-122.439	 26.56248	  5.27488	 20.51580	  1.71803	 25.17727	 -1.13310	 30.25182	709.11298	 24.40	
 15.993	-107.966	 26.45367	  8.15685	 17.03492	  0.50910	 26.84350	 -1.14526	 30.23240	709.06500	 24.40	
 16.005	-93.629	 26.45536	 11.56180	 13.44188	 -0.01433	 27.63012	 -1.08215	 30.29456	709.19098	 24.40	
 15.992	-79.234	 26.43894	 15.18447	  9.89251	  0.20664	 27.41041	 -1.03520	 30.28472	709.23602	 24.40	
 16.009	-64.774	 26.40999	 18.77550	  6.66791	  1.03610	 26.20994	 -1.03984	 30.26070	709.15601	 24.40	
 15.997	-50.364	 26.45890	 22.08942	  4.08069	  2.66027	 24.14002	 -1.08512	 30.28408	709.02600	 24.40	
 15.997	-36.045	 26.41008	 24.72055	  2.05456	  4.76146	 21.29899	 -1.07725	 30.24570	709.15997	 24.40	
 16.000	-21.597	 26.37743	 26.58521	  0.66029	  7.62211	 17.93278	 -1.08009	 30.25009	709.10797	 24.40	
 16.003	 -7.169	 26.36592	 27.57572	 -0.03967	 10.96707	 14.30572	 -1.06720	 30.26670	709.16101	 24.40	
 16.003	  7.169	 26.34660	 27.59890	 -0.02622	 14.53424	 10.74919	 -1.02718	 30.27775	709.19800	 24.40	
 16.000	 21.597	 26.36569	 26.69630	  0.63962	 18.11542	  7.49141	 -1.02749	 30.30207	709.14203	 24.40	
 15.997	 36.045	 26.38630	 24.84869	  1.95066	 21.43970	  4.83810	 -1.08975	 30.28957	709.12500	 24.40	
 15.997	 50.364	 26.36773	 22.19545	  3.90791	 24.21471	  2.64322	 -1.09870	 30.25036	709.24902	 24.40	
 16.009	 64.774	 26.38432	 18.97350	  6.44539	 26.27826	  1.01887	 -1.17145	 30.24733	709.12097	 24.40	
 15.992	 79.234	 26.41757	 15.40734	  9.64539	 27.47905	  0.10758	 -1.33461	 30.27248	709.24902	 24.40	
 16.005	 93.629	 26.41353	 11.78787	 13.15170	 27.70579	 -0.07565	 -1.37636	 30.24629	709.14398	 24.40	
 15.993	107.966	 26.45774	  8.42795	 16.79303	 27.00115	  0.45115	 -1.37078	 30.26276	709.25098	 24.40	
 15.995	122.439	 26.50141	  5.56961	 20.30313	 25.37566	  1.63106	 -1.41180	 30.27191	709.15302	 24.40	
 16.002	136.836	 26.53442	  3.21015	 23.31719	 22.92194	  3.49815	 -1.34911	 30.26386	709.03497	 24.40	
 16.002	151.165	 26.58655	  1.45400	 25.62121	 19.80845	  5.93932	 -1.25861	 30.27388	709.08197	 24.40	
 15.990	165.604	 26.64732	  0.44201	 27.06418	 16.22318	  9.04607	 -1.23374	 30.26071	709.08197	 24.40	
 20.003	168.362	 24.29313	 -3.46246	 28.69935	 14.32909	  7.30205	 -1.37118	 30.26027	709.05603	 24.40	
 20.008	156.764	 24.23225	 -2.77860	 27.57063	 17.83123	  4.26197	 -1.48074	 30.26189	709.16602	 24.40	
 20.000	145.147	 24.16694	 -1.54514	 25.67381	 21.14522	  1.65390	 -1.49887	 30.25613	709.02600	 24.40	
 19.995	133.545	 24.17011	  0.34754	 23.15241	 24.10772	 -0.48925	 -1.47353	 30.28652	709.10999	 24.40	
 20.009	121.926	 24.12465	  2.68232	 20.08873	 26.50278	 -2.08329	 -1.36935	 30.30104	708.99799	 24.40	
 20.005	110.327	 24.10720	  5.37189	 16.70612	 28.14423	 -3.13392	 -1.20315	 30.30279	709.08197	 24.40	
 19.989	 98.733	 24.08798	  8.41104	 13.14908	 29.02982	 -3.69295	 -1.12877	 30.28589	709.08502	 24.40	
 19.999	 87.075	 24.02973	 11.84816	  9.59682	 29.19977	 -3.83050	 -1.18998	 30.28053	709.07001	 24.40	
 19.992	 75.457	 24.00283	 15.38695	  6.32379	 28.63448	 -3.46292	 -1.33990	 30.25818	709.15002	 24.40	
 20.009	 63.844	 23.94475	 18.81830	  3.41928	 27.32962	 -2.64632	 -1.37145	 30.23500	709.10999	 24.40	
 19.989	 52.269	 23.95193	 22.05688	  0.98349	 25.37866	 -1.19157	 -1.26381	 30.29069	709.19702	 24.40	
 19.999	 40.602	 23.88457	 24.78693	 -1.00108	 22.69095	  0.79352	 -1.10356	 30.23100	709.04797	 24.40	
 20.004	 29.051	 23.89680	 26.96129	 -2.44608	 19.61874	  3.14969	 -0.93230	 30.27294	708.98999	 24.40	
 20.005	 17.433	 23.88835	 28.41865	 -3.34375	 16.21589	  5.85197	 -0.86326	 30.28074	709.17200	 24.40	
 20.006	  5.780	 23.89381	 29.12093	 -3.83773	 12.68627	  9.04044	 -0.86266	 30.27171	709.00598	 24.40	
 20.006	 -5.780	 23.88988	 29.06685	 -3.78429	  9.22319	 12.46831	 -0.89084	 30.23465	709.11102	 24.40	
 20.005	-17.433	 23.94695	 28.35641	 -3.35979	  5.97740	 16.03987	 -0.92040	 30.26461	709.12402	 24.40	
 20.004	-29.051	 24.01374	 26.86472	 -2.38618	  3.11669	 19.50982	 -0.93899	 30.28057	709.18903	 24.40	
 19.999	-40.602	 24.05905	 24.63548	 -0.81646	  0.78147	 22.64240	 -0.91342	 30.25996	709.15198	 24.40	
 19.989	-52.269	 24.05127	 21.81584	  1.21929	 -1.12778	 25.31734	 -0.86925	 30.26348	709.10797	 24.40	
 20.009	-63.844	 24.03947	 18.59760	  3.67075	 -2.45932	 27.27689	 -0.78826	 30.24883	709.09399	 24.40	
 19.992	-75.457	 24.04818	 15.10912	  6.57418	 -3.32989	 28.55478	 -0.82458	 30.25835	709.17999	 24.40	
 19.999	-87.075	 24.01040	 11.52192	  9.83106	 -3.76428	 29.05069	 -0.82712	 30.21901	709.13501	 24.40	
 19.989	-98.733	 24.04018	  8.07022	 13.37730	 -3.65499	 28.87316	 -0.87838	 30.23786	709.07300	 24.40	
 20.005	-110.327	 24.10512	  5.02694	 16.93415	 -3.06829	 27.96272	 -1.07241	 30.26508	709.17200	 24.40	
 20.009	-121.926	 24.17604	  2.40394	 20.29004	 -2.05598	 26.28053	 -1.23603	 30.26909	709.26300	 24.40	
 19.995	-133.545	 24.23345	  0.03918	 23.32304	 -0.43374	 23.92568	 -1.26834	 30.23797	709.10101	 24.40	
 20.000	-145.147	 24.28398	 -1.74368	 25.81617	  1.70129	 20.97598	 -1.26656	 30.21421	709.09601	 24.40	
 20.008	-156.764	 24.34028	 -2.95667	 27.70045	  4.33751	 17.69158	 -1.21185	 30.26997	709.11102	 24.40	
 20.003	-168.362	 24.33929	 -3.59336	 28.76516	  7.39215	 14.18301	 -1.15382	 30.25976	709.11603	 24.40	
 20.000	180.000	 24.31498	 -3.76850	 29.10156	 10.78037	 10.66475	 -1.24827	 30.26370	709.15198	 24.40	
