FileType=PCF
NHL=14
Date=05/30/19	11:39:30
Facility=APL
Serial=16071-1
Customer=NASA
NP=6
Mach=0.550000
Calibration=1:1
CalPts=490
TstPts=95
PortNumbering=AP Standard
Units=Torr C m/s kg/m^3 deg mm 
Theta[deg]	Phi[deg]	P1[Torr]	P2[Torr]	P3[Torr]	P4[Torr]	P5[Torr]	P6[Torr]	Pt[Torr]	Ps[Abs,Torr]	Ts[C]	
  0.000	  0.000	162.60788	 74.43887	 80.68880	 70.67951	 77.76234	  5.54109	162.49748	702.53003	 41.10	
  1.691	128.401	162.60847	 70.01093	 85.08521	 77.10127	 71.14446	  5.44051	162.50610	702.56000	 41.10	
  1.692	 77.194	162.65550	 76.75511	 78.57676	 78.80492	 69.82285	  5.51274	162.54640	702.60999	 41.00	
  1.699	 26.182	162.69043	 81.66527	 73.66975	 74.35727	 74.06046	  5.46016	162.56592	702.46997	 41.10	
  1.699	-26.182	162.67194	 81.28091	 73.90163	 67.06866	 81.21896	  5.40901	162.57811	702.52002	 41.10	
  1.692	-77.194	162.61519	 75.56572	 79.16294	 63.01089	 85.26192	  5.38237	162.56305	702.47998	 41.10	
  1.691	-128.401	162.56190	 69.07174	 85.54945	 64.69975	 83.71259	  5.34476	162.55165	702.62000	 41.20	
  1.700	180.000	162.59048	 66.61723	 88.28190	 70.36469	 77.34073	  5.35857	162.56673	702.53003	 41.20	
  3.400	180.000	162.25581	 58.22735	 95.79996	 70.25809	 76.54350	  4.86357	162.58876	702.58002	 41.30	
  3.388	-152.325	162.16040	 59.67178	 94.10497	 63.17474	 83.77849	  4.89019	162.59656	702.56000	 41.30	
  3.397	-124.529	162.19415	 64.35919	 89.22388	 57.21215	 89.58403	  4.94756	162.66096	702.57001	 41.30	
  3.399	-96.763	162.17316	 71.01508	 82.34808	 54.65913	 92.72501	  4.94120	162.61174	702.51001	 41.30	
  3.394	-69.283	162.32213	 78.57872	 75.16883	 55.36811	 92.47244	  4.91431	162.64438	702.60999	 41.30	
  3.400	-41.398	162.54079	 85.39639	 69.02853	 59.77497	 88.19201	  4.83810	162.71373	702.63000	 41.40	
  3.401	-14.021	162.63422	 88.77871	 65.51562	 66.39524	 81.61143	  4.89060	162.70923	702.66998	 41.40	
  3.401	 14.021	162.73848	 89.20708	 65.31779	 74.46922	 73.70834	  4.97951	162.72958	702.50000	 41.30	
  3.400	 41.398	162.79256	 86.65340	 68.31992	 81.56517	 66.91525	  5.09632	162.77792	702.52002	 41.30	
  3.394	 69.283	162.79463	 80.64598	 74.20805	 86.47408	 62.28276	  5.19919	162.78209	702.56000	 41.30	
  3.399	 96.763	162.75543	 73.28188	 81.38190	 87.69228	 61.05137	  5.16127	162.77440	702.46002	 41.30	
  3.397	124.529	162.62784	 66.13013	 88.40812	 84.62965	 63.34133	  5.04792	162.71426	702.40997	 41.40	
  3.388	152.325	162.54456	 60.95493	 93.70773	 77.92799	 68.93166	  4.94237	162.76508	702.44000	 41.40	
  5.099	161.165	161.78093	 51.54895	101.41266	 77.45988	 67.59109	  4.23230	162.81451	702.42999	 41.50	
  5.109	142.013	161.97826	 55.98618	 97.41353	 85.55155	 60.67256	  4.34581	162.80310	702.57001	 41.50	
  5.095	123.033	162.19580	 62.10040	 91.37097	 91.68111	 55.75953	  4.49576	162.83444	702.47998	 41.60	
  5.105	104.191	162.33936	 69.27081	 84.11722	 95.06506	 53.03852	  4.61606	162.84001	702.50000	 41.60	
  5.093	 85.207	162.42619	 76.89825	 76.56374	 95.45813	 52.83480	  4.71189	162.82973	702.47998	 41.70	
  5.104	 66.290	162.39998	 84.32227	 69.34435	 93.44669	 54.77038	  4.69356	162.84009	702.47998	 41.70	
  5.094	 47.331	162.44917	 90.60917	 63.35714	 88.62569	 58.95764	  4.56512	162.88574	702.57001	 41.70	
  5.089	 28.397	162.50621	 94.38674	 59.21919	 81.60941	 65.09583	  4.41489	162.89066	702.48999	 41.70	
  5.096	  9.576	162.44168	 96.50458	 57.13843	 73.62296	 72.70719	  4.34069	162.87131	702.48999	 41.70	
  5.096	 -9.576	162.34088	 96.01289	 57.48804	 65.45818	 80.80537	  4.26351	162.91245	702.41998	 41.70	
  5.089	-28.397	162.16594	 92.77119	 60.07420	 58.30687	 88.20696	  4.21130	162.89030	702.53003	 41.70	
  5.094	-47.331	161.92773	 88.20883	 64.59713	 52.06044	 94.68980	  4.21401	162.86780	702.45001	 41.70	
  5.104	-66.290	161.79161	 81.56574	 70.83442	 47.87841	 99.13380	  4.29894	162.91718	702.52002	 41.70	
  5.093	-85.207	161.62958	 73.84742	 78.17709	 46.13282	100.74912	  4.32358	162.93903	702.46002	 41.70	
  5.105	-104.191	161.48540	 66.16417	 85.65923	 46.72793	 99.79259	  4.36386	162.95345	702.40997	 41.70	
  5.095	-123.033	161.45381	 59.08789	 92.67521	 49.86199	 96.00618	  4.32189	162.92595	702.50000	 41.70	
  5.109	-142.013	161.47501	 53.48272	 98.44959	 54.98291	 90.22977	  4.28418	162.94991	702.35999	 41.70	
  5.099	-161.165	161.52922	 49.99570	102.04877	 62.25413	 83.11227	  4.20317	162.90532	702.32001	 41.70	
  5.100	180.000	161.73589	 49.23327	103.00513	 69.86694	 75.33176	  4.19192	162.94632	702.40997	 41.70	
  6.800	180.000	160.32538	 40.61575	109.50980	 68.91187	 73.74387	  3.63786	162.96136	702.40002	 41.70	
  6.796	-166.229	160.15382	 40.92169	108.84496	 61.42303	 81.51180	  3.64434	162.96133	702.52002	 41.70	
  6.808	-152.311	160.03371	 43.13799	106.47216	 53.84914	 88.66489	  3.74780	162.95302	702.50000	 41.70	
  6.795	-138.383	159.98184	 46.95803	102.24901	 47.66019	 95.42223	  3.80071	162.95825	702.44000	 41.80	
  6.792	-124.591	160.01213	 52.24252	 96.62843	 43.17019	101.09605	  3.83713	163.00685	702.46002	 41.80	
  6.787	-110.754	160.03082	 58.93010	 89.88663	 39.68927	105.14170	  3.83381	162.98380	702.60999	 41.80	
  6.800	-96.985	160.16316	 65.85179	 82.80677	 37.78944	107.46770	  3.86719	163.02335	702.45001	 41.80	
  6.800	-83.015	160.27382	 73.74632	 75.41456	 37.73466	107.82825	  3.79276	162.99489	702.51001	 41.80	
  6.787	-69.246	160.45425	 81.21860	 68.36601	 39.38452	106.30325	  3.78412	162.96783	702.54999	 41.80	
  6.792	-55.409	160.66576	 88.11908	 62.04005	 42.77643	102.82094	  3.73013	162.97322	702.59998	 41.80	
  6.795	-41.617	160.89133	 93.87490	 56.64515	 47.72533	 97.55630	  3.71540	162.95691	702.52002	 41.80	
  6.808	-27.689	161.14040	 98.93085	 52.51147	 53.76113	 90.99860	  3.69560	162.98444	702.53003	 41.80	
  6.796	-13.771	161.32443	102.45338	 49.71404	 60.80729	 83.77521	  3.71080	162.97548	702.38000	 41.80	
  6.800	  0.000	161.52374	104.03363	 48.55246	 68.29696	 76.07386	  3.73026	163.02583	702.44000	 41.80	
  6.796	 13.771	161.67856	103.54426	 49.20532	 76.20640	 68.24055	  3.73251	163.02829	702.47998	 41.80	
  6.808	 27.689	161.68381	101.20418	 51.36665	 83.95871	 60.75866	  3.78216	163.02428	702.51001	 41.80	
  6.795	 41.617	161.65440	 96.71312	 55.21055	 91.26180	 54.77268	  3.90984	163.00388	702.50000	 41.80	
  6.792	 55.409	161.62677	 91.77434	 60.39244	 96.72735	 50.11054	  3.96437	163.01112	702.46002	 41.80	
  6.787	 69.246	161.65192	 85.37977	 66.55944	100.53563	 46.66527	  4.06053	163.03839	702.52002	 41.80	
  6.800	 83.015	161.67635	 78.06895	 73.53113	102.71610	 44.59642	  4.11431	163.03754	702.50000	 41.90	
  6.800	 96.985	161.63943	 70.60355	 80.87842	102.96745	 44.32494	  4.04824	163.07774	702.45001	 41.90	
  6.787	110.754	161.56042	 63.49128	 88.13517	101.21154	 45.79341	  4.02000	163.11198	702.54999	 41.90	
  6.792	124.591	161.32399	 56.63271	 95.15854	 97.33636	 48.81582	  3.94658	163.05208	702.48999	 41.90	
  6.795	138.383	161.15204	 50.94219	101.06710	 91.50600	 53.34876	  3.84065	163.07947	702.46997	 41.80	
  6.808	152.311	160.91431	 45.62461	105.61208	 84.46533	 58.96594	  3.69076	163.10054	702.50000	 41.90	
  6.796	166.229	160.71846	 42.28659	108.29753	 76.59744	 66.03252	  3.60886	163.09189	702.46002	 41.90	
  8.491	168.704	158.82199	 34.91782	115.61757	 75.05502	 64.00840	  3.44840	163.08191	702.35999	 42.00	
  8.502	157.493	159.07825	 37.43565	112.96003	 83.05598	 56.88670	  3.50057	163.10016	702.40997	 42.10	
  8.494	146.194	159.37556	 40.92777	108.47782	 90.95794	 50.71363	  3.61687	163.09520	702.47998	 42.10	
  8.495	135.039	159.68896	 46.08088	103.60098	 97.87927	 45.40193	  3.63977	163.19777	702.47998	 42.10	
  8.487	123.723	159.85190	 52.20439	 97.31589	103.34203	 41.21712	  3.68366	163.14546	702.46002	 42.10	
  8.492	112.575	160.07361	 58.68472	 90.53706	107.31286	 38.32067	  3.66890	163.18747	702.46002	 42.10	
  8.510	101.220	160.22456	 65.98010	 82.96747	109.58596	 36.58425	  3.65568	163.18021	702.46002	 42.10	
  8.500	 90.000	160.33076	 73.44768	 75.51141	109.85838	 36.27657	  3.70322	163.17073	702.45001	 42.20	
  8.510	 78.780	160.33832	 81.02529	 68.13191	108.88722	 37.14919	  3.71246	163.16592	702.45001	 42.20	
  8.492	 67.425	160.29758	 88.43809	 61.13934	106.30901	 39.47473	  3.66689	163.12195	702.35999	 42.30	
  8.487	 56.277	160.31805	 94.66352	 55.07484	102.28780	 42.90707	  3.55902	163.14449	702.44000	 42.30	
  8.495	 44.961	160.36172	100.18249	 49.52295	 96.86496	 47.43693	  3.56252	163.12166	702.46997	 42.30	
  8.494	 33.806	160.43237	105.30418	 44.33176	 90.28477	 53.19829	  3.55269	163.11423	702.52002	 42.20	
  8.502	 22.507	160.45934	108.84547	 41.87525	 82.60190	 59.61689	  3.55707	163.18204	702.44000	 42.20	
  8.491	 11.296	160.36053	110.68651	 40.62977	 74.75219	 66.84894	  3.52314	163.15666	702.51001	 42.20	
  8.500	  0.000	160.18153	111.17204	 40.13838	 66.72987	 74.92030	  3.58319	163.18613	702.53998	 42.10	
  8.491	-11.296	160.02046	109.66034	 41.03161	 59.14186	 82.95043	  3.59354	163.21515	702.57001	 42.10	
  8.502	-22.507	159.76787	106.76181	 42.67345	 51.84647	 90.32143	  3.58109	163.21518	702.57001	 42.10	
  8.494	-33.806	159.55336	102.38143	 45.52061	 45.42743	 97.44481	  3.59358	163.20677	702.45001	 42.20	
  8.495	-44.961	159.31908	 96.67131	 51.18636	 39.74502	103.66478	  3.60415	163.17270	702.48999	 42.30	
  8.487	-56.277	159.06485	 90.31207	 56.96890	 35.02043	108.63021	  3.59469	163.17740	702.60999	 42.40	
  8.492	-67.425	158.83516	 83.43663	 63.44271	 31.77507	112.34920	  3.60391	163.12469	702.41998	 42.50	
  8.510	-78.780	158.56410	 75.65833	 70.44467	 29.69290	114.62506	  3.63711	163.14592	702.46002	 42.50	
  8.500	-90.000	158.46771	 67.58791	 77.87576	 29.37883	115.03059	  3.68699	163.16093	702.57001	 42.50	
  8.510	-101.220	158.29718	 60.44055	 85.09057	 29.98955	113.82810	  3.66997	163.21556	702.57001	 42.50	
  8.492	-112.575	158.18219	 53.15699	 92.45948	 31.95233	110.78598	  3.65577	163.12668	702.56000	 42.50	
  8.487	-123.723	158.19316	 46.87075	 99.21190	 35.20609	106.51737	  3.62676	163.14011	702.50000	 42.40	
  8.495	-135.039	158.18529	 41.40799	105.15750	 39.91168	101.14198	  3.61713	163.20340	702.46997	 42.40	
  8.494	-146.194	158.27802	 36.67677	109.52435	 46.05995	 94.40676	  3.58353	163.19745	702.50000	 42.40	
  8.502	-157.493	158.33678	 34.98034	113.98685	 52.29663	 87.28088	  3.48240	163.24870	702.59003	 42.40	
  8.491	-168.704	158.54610	 33.67010	116.23213	 59.65732	 79.79308	  3.46584	163.17975	702.47998	 42.40	
  8.500	180.000	158.72516	 33.67194	116.81911	 67.79330	 71.85124	  3.48625	163.23576	702.53003	 42.40	
 10.200	180.000	156.29179	 25.44386	122.89740	 65.95692	 69.66835	  3.66354	163.23320	702.54999	 42.40	
 10.191	-170.497	156.01912	 24.93552	122.46233	 57.96718	 77.50026	  3.63934	163.24272	702.51001	 42.50	
 10.210	-161.034	155.88091	 25.96597	120.64165	 50.46939	 85.32491	  3.70773	163.22621	702.41998	 42.50	
 10.194	-151.526	155.78278	 28.49575	117.58809	 44.01854	 92.60507	  3.68269	163.20457	702.45001	 42.50	
 10.190	-142.105	155.76212	 32.12716	112.21078	 37.08879	 99.86160	  3.67474	163.23930	702.42999	 42.50	
 10.215	-132.646	155.80533	 35.38223	107.55490	 31.88888	106.18310	  3.83633	163.25404	702.40997	 42.50	
 10.203	-123.092	155.83754	 41.11684	101.28667	 27.51118	111.71984	  3.92924	163.28842	702.53003	 42.50	
 10.192	-113.678	155.81055	 47.38115	 94.49055	 24.13711	116.30494	  3.92567	163.31079	702.46002	 42.50	
 10.208	-104.249	155.81947	 54.25023	 87.01553	 21.94443	119.57936	  3.94052	163.24794	702.45001	 42.50	
 10.210	-94.801	155.95105	 61.86316	 79.54464	 20.96875	121.49059	  3.94041	163.31488	702.37000	 42.50	
 10.210	-85.199	156.16170	 69.37820	 72.04554	 20.88563	121.86437	  3.96814	163.32050	702.29999	 42.50	
 10.208	-75.751	156.39565	 77.63261	 64.86004	 21.80454	120.91651	  3.92516	163.34993	702.38000	 42.50	
 10.192	-66.322	156.62302	 85.40078	 57.54472	 24.29160	118.34277	  3.84260	163.30888	702.44000	 42.60	
 10.203	-56.908	156.87549	 92.09586	 50.24125	 27.38784	114.45547	  3.79886	163.28409	702.40997	 42.60	
 10.215	-47.354	157.14267	 99.03905	 44.64445	 31.38800	109.35848	  3.77123	163.36316	702.44000	 42.70	
 10.190	-37.895	157.39874	105.02959	 40.97375	 36.76037	103.57195	  3.82477	163.35231	702.40002	 42.70	
 10.194	-28.474	157.64299	110.13593	 37.44902	 42.90523	 96.63631	  3.83198	163.32698	702.54999	 42.70	
 10.210	-18.966	157.90187	113.92923	 34.41348	 49.72857	 89.29411	  3.87581	163.31258	702.45001	 42.60	
 10.191	 -9.503	158.12764	116.45463	 32.63380	 57.18326	 81.74602	  3.83704	163.30670	702.45001	 42.60	
 10.200	  0.000	158.33995	117.70837	 31.88750	 64.88165	 73.71781	  3.78504	163.37367	702.47998	 42.60	
 10.191	  9.503	158.52887	117.51894	 32.30880	 72.80807	 65.66096	  3.74580	163.33595	702.45001	 42.60	
 10.210	 18.966	158.62163	116.02814	 33.53400	 80.72860	 58.31626	  3.71743	163.36058	702.45001	 42.60	
 10.194	 28.474	158.74519	112.85522	 36.09214	 88.73084	 51.20095	  3.67214	163.37694	702.48999	 42.60	
 10.190	 37.895	158.68810	108.76190	 39.54149	 96.09753	 45.05988	  3.60374	163.34999	702.52002	 42.60	
 10.215	 47.354	158.65237	103.22862	 43.17300	102.51779	 40.04282	  3.57466	163.37056	702.39001	 42.50	
 10.203	 56.908	158.56250	 96.87727	 48.33764	107.72150	 35.60674	  3.54873	163.39639	702.50000	 42.50	
 10.192	 66.322	158.59198	 90.94526	 55.33739	111.90716	 32.04812	  3.58859	163.41283	702.47998	 42.50	
 10.208	 75.751	158.57642	 83.59694	 62.45699	115.20694	 29.53527	  3.66808	163.41083	702.46997	 42.40	
 10.210	 85.199	158.56563	 76.13229	 69.83216	116.79783	 28.29912	  3.68480	163.40942	702.41998	 42.40	
 10.210	 94.801	158.51709	 68.33911	 77.43488	116.97651	 28.29950	  3.71070	163.41031	702.40997	 42.40	
 10.208	104.249	158.34709	 61.07384	 84.78190	115.62341	 28.92893	  3.67738	163.35323	702.42999	 42.40	
 10.192	113.678	158.21309	 53.73428	 92.33472	112.60528	 30.83235	  3.64836	163.35329	702.50000	 42.50	
 10.203	123.092	157.99976	 46.92236	 99.36281	108.48708	 33.73341	  3.67202	163.37112	702.40002	 42.50	
 10.215	132.646	157.76605	 41.30646	105.73386	103.83582	 37.71654	  3.73515	163.36055	702.39001	 42.50	
 10.190	142.105	157.52345	 36.64602	110.93710	 97.05980	 42.49849	  3.79300	163.34027	702.53998	 42.50	
 10.194	151.526	157.29364	 32.16899	116.47221	 89.77482	 48.29432	  3.80083	163.38313	702.46002	 42.50	
 10.210	161.034	156.97169	 28.82891	119.86490	 81.36809	 55.05814	  3.67043	163.37888	702.50000	 42.50	
 10.191	170.497	156.70755	 26.93702	122.05887	 73.48756	 61.79062	  3.62231	163.36969	702.47998	 42.50	
 11.899	171.783	153.79118	 17.90404	127.96176	 71.65665	 59.75154	  3.95050	163.38350	702.42999	 42.50	
 11.890	163.610	154.13339	 19.65367	126.04034	 79.30336	 52.43060	  4.04726	163.46640	702.41998	 42.50	
 11.889	155.445	154.39977	 22.35410	122.91195	 87.58572	 45.61321	  4.17081	163.39754	702.53003	 42.50	
 11.909	147.299	154.69359	 25.94239	118.99593	 95.68134	 39.52596	  4.20752	163.44852	702.44000	 42.50	
 11.902	139.148	154.96315	 30.77394	113.03021	102.55610	 34.29766	  4.11058	163.42552	702.51001	 42.50	
 11.894	130.867	155.26753	 36.62784	107.38509	108.53058	 29.80794	  3.87884	163.44588	702.48999	 42.60	
 11.897	122.732	155.50627	 42.03946	100.86533	113.90310	 25.99128	  3.80402	163.44238	702.34998	 42.60	
 11.903	114.597	155.63737	 47.66763	 93.77110	118.07618	 22.93479	  3.86929	163.35997	702.46997	 42.60	
 11.893	106.346	155.80243	 55.28254	 86.31188	121.26419	 20.94926	  3.96845	163.38016	702.37000	 42.70	
 11.892	 98.155	155.99048	 63.01055	 78.66466	122.80994	 20.02975	  3.90184	163.41008	702.40997	 42.70	
 11.900	 90.000	156.10672	 70.35301	 71.24698	123.29427	 19.94156	  3.96071	163.42860	702.28003	 42.80	
 11.892	 81.845	156.16005	 77.89176	 63.63955	122.84873	 20.30157	  3.87365	163.47745	702.46997	 42.80	
 11.893	 73.654	156.15675	 85.62122	 55.32405	120.79911	 21.88018	  3.85771	163.45813	702.39001	 42.80	
 11.903	 65.403	156.15695	 92.89933	 48.33151	117.35301	 24.46134	  3.80628	163.47884	702.41998	 42.80	
 11.897	 57.268	156.11345	 99.14992	 43.00760	112.70128	 27.70848	  3.78077	163.39893	702.37000	 42.80	
 11.894	 49.133	156.17799	105.82491	 38.01815	106.98501	 32.22569	  3.83256	163.35403	702.38000	 42.80	
 11.902	 40.852	156.22765	111.61487	 33.40169	101.11847	 37.25069	  3.89478	163.31966	702.28003	 42.90	
 11.909	 32.701	156.24442	116.36868	 29.40221	 94.02438	 42.90279	  3.96299	163.32112	702.23999	 42.90	
 11.889	 24.555	156.34561	119.99679	 26.56995	 86.28278	 49.07168	  4.00339	163.36961	702.25000	 42.90	
 11.890	 16.390	156.30144	122.56760	 24.61424	 78.39169	 56.19738	  4.07193	163.39226	702.28998	 42.90	
 11.899	  8.217	156.17572	123.83356	 23.47816	 70.51389	 63.48321	  4.11851	163.42560	702.15997	 42.90	
 11.900	  0.000	155.92796	123.92159	 23.06506	 62.70362	 71.23052	  4.17535	163.41742	702.25000	 42.90	
 11.899	 -8.217	155.75319	122.93456	 23.57217	 54.77926	 79.20517	  4.19983	163.44743	702.39001	 42.90	
 11.890	-16.390	155.54939	120.52702	 25.13471	 47.46544	 87.11246	  4.20752	163.43315	702.34998	 42.90	
 11.889	-24.555	155.24605	117.25430	 27.67875	 40.39383	 94.48486	  4.21827	163.45016	702.46002	 42.90	
 11.909	-32.701	155.03505	112.81715	 31.11304	 33.78986	102.01251	  4.22129	163.51158	702.46997	 43.00	
 11.902	-40.852	154.71388	107.07673	 35.28801	 28.31921	108.50467	  4.15919	163.47522	702.37000	 43.00	
 11.894	-49.133	154.39867	100.45365	 40.16100	 23.48790	114.56463	  4.14796	163.43922	702.45001	 42.90	
 11.897	-57.268	154.14278	 93.76134	 45.07492	 19.48488	119.73441	  4.14194	163.47865	702.40997	 42.90	
 11.903	-65.403	153.87863	 86.82908	 50.69075	 16.30125	123.65540	  4.15816	163.48785	702.39001	 42.90	
 11.893	-73.654	153.69884	 78.94858	 57.82487	 14.25624	126.24236	  4.14460	163.48563	702.34998	 43.00	
 11.892	-81.845	153.48335	 70.48549	 66.16140	 12.88897	127.53159	  4.09629	163.46103	702.34998	 43.00	
 11.900	-90.000	153.26979	 63.42888	 73.57343	 12.28981	127.69197	  4.12759	163.45627	702.32001	 43.00	
 11.892	-98.155	153.14041	 55.40125	 81.21727	 12.65366	127.01792	  4.16904	163.48688	702.25000	 43.00	
 11.893	-106.346	153.00711	 48.02340	 88.77767	 13.85429	124.83651	  4.26693	163.46805	702.33002	 43.00	
 11.903	-114.597	152.90742	 40.85103	 96.26519	 16.29865	121.48473	  4.24441	163.44601	702.35999	 43.10	
 11.897	-122.732	152.91547	 34.96981	103.16841	 19.72985	116.89794	  4.23998	163.49861	702.23999	 43.10	
 11.894	-130.867	153.01498	 30.83442	109.55605	 24.04312	111.33023	  4.11544	163.52773	702.22998	 43.10	
 11.902	-139.148	152.89435	 26.00739	114.72325	 28.85169	104.96974	  3.91812	163.47417	702.25000	 43.20	
 11.909	-147.299	153.00801	 21.97840	120.51010	 34.41326	 97.95782	  3.94236	163.51671	702.39001	 43.20	
 11.889	-155.445	153.05374	 18.71000	124.26714	 41.66533	 90.87342	  3.94425	163.51213	702.34003	 43.20	
 11.890	-163.610	153.16704	 16.86758	126.96876	 48.92891	 83.08938	  3.99963	163.49788	702.31000	 43.30	
 11.899	-171.783	153.39171	 16.21523	128.64757	 55.96159	 75.48978	  3.96385	163.54008	702.33002	 43.40	
 11.900	180.000	153.64267	 16.74708	128.88884	 63.96271	 67.67596	  3.94327	163.52232	702.34998	 43.40	
 13.600	180.000	150.20503	  7.74200	134.39612	 61.51461	 64.58511	  4.29956	163.53131	702.27002	 43.40	
 13.608	-172.853	149.94655	  7.04280	134.20149	 53.91930	 71.32590	  4.31632	163.53389	702.28003	 43.40	
 13.611	-165.583	149.72821	  7.71887	132.76651	 46.41139	 79.37595	  4.33681	163.47041	702.37000	 43.30	
 13.601	-158.353	149.63878	  9.56223	130.35904	 38.93274	 87.28624	  4.22253	163.49756	702.22998	 43.30	
 13.609	-151.210	149.51448	 12.14476	126.92255	 31.77601	 94.63577	  4.22088	163.48222	702.35999	 43.20	
 13.611	-143.999	149.42648	 15.33354	122.52315	 25.68480	102.18097	  4.21728	163.49792	702.34998	 43.30	
 13.601	-136.825	149.38440	 19.31163	116.51756	 20.39982	108.84333	  4.25655	163.49739	702.26001	 43.20	
 13.596	-129.640	149.31194	 24.51575	110.95607	 15.82547	115.16689	  4.41638	163.44722	702.23999	 43.20	
 13.611	-122.431	149.43668	 30.01159	104.57284	 11.99924	120.90031	  4.54394	163.49240	702.28003	 43.20	
 13.604	-115.211	149.52817	 35.64425	 97.53172	  8.52552	125.52367	  4.54233	163.48669	702.21997	 43.20	
 13.595	-108.042	149.52296	 41.58909	 90.24033	  5.66066	128.62062	  4.48826	163.46997	702.26001	 43.30	
 13.607	-100.793	149.56206	 48.77594	 82.44945	  3.83185	131.31941	  4.38796	163.46083	702.32001	 43.30	
 13.601	-93.617	149.72169	 56.51695	 74.41811	  3.25982	132.74081	  4.32666	163.45714	702.29999	 43.30	
 13.601	-86.383	149.94106	 64.41436	 66.22124	  3.95030	133.05342	  4.27105	163.44991	702.41998	 43.30	
 13.607	-79.207	150.08041	 71.25896	 58.84752	  5.49638	132.72276	  4.37463	163.45110	702.37000	 43.40	
 13.595	-71.958	150.26459	 79.95850	 51.47429	  7.09852	130.97900	  4.37193	163.41260	702.34003	 43.50	
 13.604	-64.789	150.54187	 87.79665	 45.73634	  9.41207	128.29964	  4.38581	163.45232	702.37000	 43.50	
 13.611	-57.569	150.75310	 94.77807	 39.73483	 12.02290	124.82244	  4.41953	163.46449	702.46002	 43.50	
 13.596	-50.360	151.05685	101.93368	 33.95668	 15.21989	119.77842	  4.43184	163.45192	702.42999	 43.40	
 13.601	-43.175	151.38605	108.50739	 28.85511	 19.69526	114.05389	  4.42752	163.44193	702.45001	 43.30	
 13.611	-36.001	151.64835	114.46272	 24.56019	 24.91441	107.60638	  4.44164	163.46568	702.32001	 43.30	
 13.609	-28.790	151.99084	119.47991	 20.84620	 30.75129	100.64549	  4.41144	163.49318	702.26001	 43.30	
 13.601	-21.647	152.27965	123.86552	 17.97644	 37.41745	 93.24363	  4.40558	163.52599	702.34003	 43.40	
 13.611	-14.417	152.60521	127.04165	 15.75001	 44.91334	 85.37301	  4.41828	163.51483	702.38000	 43.50	
 13.608	 -7.147	152.72302	129.12236	 14.35590	 52.22250	 77.31186	  4.43371	163.49414	702.41998	 43.50	
 13.600	  0.000	153.06088	129.94380	 14.41096	 60.01686	 69.51653	  4.44887	163.51424	702.39001	 43.60	
 13.608	  7.147	153.17470	129.97661	 14.56547	 67.76311	 62.19649	  4.33736	163.48441	702.34998	 43.50	
 13.611	 14.417	153.32188	129.08530	 15.25440	 75.53085	 54.23435	  4.27046	163.53131	702.45001	 43.50	
 13.601	 21.647	153.48404	126.88245	 17.01864	 83.71990	 47.53792	  4.24380	163.52487	702.39001	 43.50	
 13.609	 28.790	153.47473	123.66917	 19.23545	 91.47907	 40.98156	  4.29339	163.50867	702.32001	 43.50	
 13.611	 36.001	153.45801	119.14957	 22.71665	 99.23793	 34.89156	  4.18380	163.47736	702.34998	 43.50	
 13.601	 43.175	153.38773	114.01206	 26.75608	106.08958	 29.41730	  4.10070	163.53392	702.25000	 43.50	
 13.596	 50.360	153.33757	108.05310	 31.57411	111.90435	 24.54640	  4.15777	163.53539	702.23999	 43.50	
 13.611	 57.569	153.21529	101.24606	 37.07452	117.64223	 20.13163	  4.16270	163.56635	702.42999	 43.50	
 13.604	 64.789	153.24432	 94.54642	 43.07096	122.22186	 16.55899	  4.21441	163.55864	702.28003	 43.50	
 13.595	 71.958	153.13469	 87.42608	 48.60900	125.56496	 13.97849	  4.17106	163.49789	702.40997	 43.50	
 13.607	 79.207	153.08647	 79.62207	 55.78889	127.98759	 12.00868	  4.18983	163.47021	702.28003	 43.50	
 13.601	 86.383	153.04970	 71.90469	 63.77261	128.96217	 11.03945	  4.25668	163.44038	702.28003	 43.50	
 13.601	 93.617	153.04234	 64.66147	 71.68534	129.08366	 11.05962	  4.30131	163.43419	702.26001	 43.50	
 13.607	100.793	152.88593	 56.63926	 79.44837	128.37498	 11.21006	  4.39200	163.45425	702.38000	 43.50	
 13.595	108.042	152.86534	 48.56083	 87.42216	126.25124	 12.81979	  4.38394	163.47060	702.42999	 43.60	
 13.604	115.211	152.68102	 42.82419	 94.87741	123.35279	 14.79372	  4.14118	163.48737	702.28998	 43.60	
 13.611	122.431	152.45216	 36.86182	102.00753	118.91143	 17.70161	  3.99521	163.49919	702.31000	 43.70	
 13.596	129.640	152.21326	 30.59800	108.80685	113.56179	 21.48993	  3.90955	163.52080	702.40002	 43.80	
 13.601	136.825	152.00359	 24.95865	114.51532	107.50961	 25.91046	  4.13037	163.53273	702.40997	 43.80	
 13.611	143.999	151.69821	 20.19490	120.71586	100.91228	 30.71308	  4.45611	163.50241	702.28003	 43.80	
 13.609	151.210	151.36325	 16.05681	125.41541	 93.46734	 36.50924	  4.58126	163.46045	702.39001	 43.80	
 13.601	158.353	151.08479	 12.92922	129.03325	 84.99875	 42.75258	  4.54591	163.50827	702.27002	 43.80	
 13.611	165.583	150.68452	 10.08541	131.85806	 76.73166	 49.46577	  4.29365	163.50491	702.26001	 43.80	
 13.608	172.853	150.43512	  8.48657	133.70155	 69.16569	 56.92186	  4.27816	163.56029	702.25000	 43.80	
 15.298	173.587	146.48862	 -0.44979	138.75957	 65.95505	 53.45584	  4.48813	163.47337	702.21997	 43.80	
 15.291	167.167	146.74808	  0.63511	137.25925	 74.00892	 46.62931	  4.60155	163.50877	702.23999	 43.80	
 15.307	160.676	147.11804	  2.99322	134.75104	 81.81366	 39.60585	  4.67655	163.50916	702.28998	 43.80	
 15.300	154.261	147.56390	  6.10405	131.38141	 89.87221	 33.21130	  4.81307	163.51709	702.27002	 43.70	
 15.288	147.854	147.92790	  9.75587	127.13358	 98.26437	 27.47899	  4.68013	163.52118	702.23999	 43.70	
 15.293	141.428	148.29720	 14.29694	121.64051	105.52126	 22.07325	  4.41212	163.51973	702.28998	 43.70	
 15.299	134.985	148.46967	 19.23975	115.33631	111.95206	 17.16934	  4.14905	163.48936	702.27002	 43.60	
 15.305	128.583	148.63193	 24.45861	109.70383	118.25226	 12.97585	  4.02863	163.56227	702.34003	 43.60	
 15.309	122.142	148.95374	 30.52562	102.76545	123.42587	  9.44253	  4.15525	163.56612	702.29999	 43.60	
 15.304	115.711	149.19151	 37.48997	 95.52200	127.85152	  6.55625	  4.29686	163.53175	702.20001	 43.50	
 15.297	109.291	149.31749	 43.80936	 88.03046	130.89447	  4.51328	  4.60268	163.49957	702.28003	 43.50	
 15.293	102.897	149.46497	 49.66883	 80.28363	133.20770	  3.02207	  4.70454	163.54816	702.28998	 43.50	
 15.293	 96.458	149.53557	 57.49541	 71.78915	134.46938	  2.13702	  4.53181	163.54807	702.32001	 43.50	
 15.300	 90.000	149.55411	 65.01114	 64.17713	134.72000	  2.06245	  4.53579	163.55145	702.34003	 43.50	
 15.293	 83.542	149.59537	 73.03197	 56.38739	134.05943	  2.46825	  4.49077	163.53510	702.48999	 43.50	
 15.293	 77.103	149.57758	 81.00047	 49.07723	132.43207	  3.70264	  4.37283	163.45479	702.42999	 43.50	
 15.297	 70.709	149.54974	 88.58730	 42.99226	129.86499	  5.78848	  4.43900	163.42365	702.33002	 43.50	
 15.304	 64.289	149.61064	 95.74739	 36.60943	126.39892	  7.94860	  4.47088	163.46964	702.41998	 43.50	
 15.309	 57.858	149.64600	102.58608	 30.45474	121.83692	 10.61984	  4.42348	163.47371	702.23999	 43.50	
 15.305	 51.417	149.77150	109.49353	 24.98169	116.27055	 15.96106	  4.44507	163.48529	702.23999	 43.60	
 15.299	 45.015	149.93210	115.61770	 20.24560	109.86671	 20.62006	  4.39385	163.49117	702.23999	 43.60	
 15.293	 38.572	149.98256	121.17313	 15.99057	103.63942	 25.93453	  4.42138	163.47049	702.28998	 43.60	
 15.288	 32.146	150.05496	126.18629	 12.45211	 96.11527	 31.85811	  4.43889	163.50589	702.31000	 43.60	
 15.300	 25.739	150.09279	129.94623	  9.50911	 88.30991	 37.91079	  4.42226	163.53165	702.34003	 43.60	
 15.307	 19.324	150.04460	132.60605	  7.49806	 80.41069	 44.33533	  4.39947	163.51947	702.32001	 43.50	
 15.291	 12.833	149.90158	134.53273	  6.07312	 72.35786	 51.17825	  4.45508	163.54521	702.28003	 43.50	
 15.298	  6.413	149.68974	135.54457	  5.47807	 64.32915	 58.77399	  4.48623	163.52769	702.32001	 43.50	
 15.300	  0.000	149.47917	135.36983	  5.19481	 56.92250	 66.20064	  4.58074	163.47545	702.21997	 43.40	
 15.298	 -6.413	149.26054	134.52966	  5.20580	 49.64444	 73.80505	  4.56383	163.49304	702.29999	 43.40	
 15.291	-12.833	149.05995	132.60815	  6.29983	 42.21750	 81.81973	  4.51200	163.46301	702.26001	 43.40	
 15.307	-19.324	148.81798	129.86194	  8.24178	 34.45705	 90.00420	  4.48225	163.49892	702.28003	 43.40	
 15.300	-25.739	148.58057	125.94271	 10.80813	 27.87417	 97.33160	  4.46876	163.49431	702.25000	 43.40	
 15.288	-32.146	148.26315	121.18101	 14.07779	 21.67945	104.80704	  4.48645	163.46519	702.31000	 43.40	
 15.293	-38.572	148.00304	115.75957	 18.09574	 16.19112	111.60945	  4.54587	163.48628	702.33002	 43.50	
 15.299	-45.015	147.62009	109.56860	 22.56707	 11.83106	118.43149	  4.47441	163.49666	702.29999	 43.60	
 15.305	-51.417	147.33386	102.76804	 27.62606	  7.95932	124.20969	  4.53487	163.46532	702.26001	 43.60	
 15.309	-57.858	146.99979	 95.53848	 33.35070	  4.08677	128.75729	  4.52021	163.48047	702.28003	 43.70	
 15.304	-64.289	146.80190	 88.44036	 39.85956	  0.67258	132.48958	  4.51976	163.49805	702.34998	 43.70	
 15.297	-70.709	146.62027	 79.99208	 46.53737	 -2.14423	135.45390	  4.47673	163.50523	702.37000	 43.70	
 15.293	-77.103	146.39563	 71.67823	 52.68587	 -4.36022	137.39447	  4.47556	163.52298	702.33002	 43.70	
 15.293	-83.542	146.20667	 64.37224	 59.43907	 -5.45641	138.40025	  4.48882	163.50520	702.39001	 43.70	
 15.300	-90.000	145.94632	 57.17292	 66.60884	 -6.23291	138.51761	  4.43895	163.51434	702.41998	 43.70	
 15.293	-96.458	145.72873	 49.44239	 75.11198	 -5.70883	137.58659	  4.42489	163.51372	702.31000	 43.70	
 15.293	-102.897	145.61615	 42.77145	 83.47222	 -4.69037	135.77498	  4.44275	163.53122	702.31000	 43.60	
 15.297	-109.291	145.57391	 36.25112	 91.05118	 -2.51444	132.96979	  4.55651	163.50662	702.35999	 43.60	
 15.304	-115.711	145.54245	 29.88771	 98.49332	  0.39930	129.35669	  4.64822	163.52577	702.40002	 43.60	
 15.309	-122.142	145.51883	 24.01050	105.64423	  3.82009	124.96217	  4.60700	163.53044	702.28998	 43.60	
 15.305	-128.583	145.44275	 18.21482	112.25031	  7.77061	119.47750	  4.54196	163.55315	702.34998	 43.60	
 15.299	-134.985	145.45784	 13.24572	117.75757	 12.42066	113.15783	  4.46534	163.54074	702.40002	 43.60	
 15.293	-141.428	145.50006	  8.96241	124.02372	 16.97568	106.55799	  4.41217	163.51860	702.38000	 43.70	
 15.288	-147.854	145.58260	  5.40912	128.82928	 22.80028	 99.29382	  4.30359	163.49504	702.40997	 43.70	
 15.300	-154.261	145.65250	  2.38417	132.83154	 29.07893	 91.97886	  4.32603	163.53687	702.34003	 43.70	
 15.307	-160.676	145.74153	  0.12059	135.85358	 35.91700	 84.31270	  4.35051	163.51842	702.28003	 43.70	
 15.291	-167.167	145.94342	 -1.68481	138.00748	 43.72559	 76.27540	  4.52120	163.53394	702.34003	 43.70	
 15.298	-173.587	146.11575	 -2.03520	139.10730	 51.51631	 68.27358	  4.56320	163.50175	702.37000	 43.70	
 15.300	180.000	146.22095	 -1.39597	139.36801	 58.71682	 60.43112	  4.49420	163.44360	702.20001	 43.70	
 17.000	180.000	141.83530	-10.47086	143.94356	 55.84004	 56.54198	  4.59768	163.49544	702.27002	 43.70	
 16.990	-174.179	141.65495	-11.01778	143.67923	 48.13865	 64.12039	  4.62393	163.51146	702.23999	 43.70	
 17.009	-168.383	141.50899	-10.69469	142.71622	 40.43673	 72.28082	  4.57931	163.53120	702.28998	 43.80	
 17.000	-162.596	141.30501	 -9.51510	140.88084	 32.87168	 80.40988	  4.40732	163.52657	702.22998	 43.80	
 16.990	-156.759	141.16359	 -7.67338	137.99088	 26.00735	 88.28411	  4.31329	163.49171	702.34003	 43.90	
 16.995	-150.919	141.10184	 -4.99554	134.40952	 19.66243	 95.76260	  4.27734	163.48679	702.20001	 43.90	
 16.988	-145.161	141.01460	 -1.82188	130.24338	 14.02638	103.08544	  4.35047	163.52081	702.21002	 43.90	
 17.014	-139.343	140.90703	  1.89278	124.95594	  8.59202	110.17657	  4.42062	163.52144	702.23999	 43.90	
 17.007	-133.546	140.85207	  6.34374	118.61525	  3.63840	116.80484	  4.43958	163.50801	702.15002	 43.80	
 17.001	-127.699	140.89653	 11.61821	112.90129	 -0.86893	123.03243	  4.49096	163.52309	702.27002	 43.80	
 17.006	-121.937	141.03841	 17.21956	106.27810	 -4.79891	128.30179	  4.51859	163.56166	702.21002	 43.90	
 17.002	-116.134	141.08957	 23.41602	 99.13004	 -8.13692	132.79056	  4.50647	163.59230	702.27002	 43.90	
 17.001	-110.310	141.07425	 29.84009	 91.58704	-10.99483	136.68144	  4.47751	163.56703	702.27002	 43.90	
 16.988	-104.517	141.14911	 36.63902	 83.80939	-13.15348	139.63744	  4.38647	163.57622	702.20001	 43.90	
 17.008	-98.662	141.20284	 43.22616	 74.92307	-14.73368	141.94861	  4.39027	163.55519	702.17999	 43.80	
 16.996	-92.909	141.47746	 49.85217	 66.80730	-14.52078	143.18452	  4.43113	163.54681	702.20001	 43.80	
 16.996	-87.091	141.67314	 57.60013	 59.28408	-14.60431	143.59850	  4.43243	163.53850	702.20001	 43.80	
 17.012	-81.253	141.77438	 64.42303	 53.14787	-13.91346	143.16791	  4.39567	163.48564	702.15997	 43.70	
 16.988	-75.483	142.12994	 71.78220	 47.02538	-12.78915	141.73120	  4.41198	163.52290	702.17999	 43.70	
 17.001	-69.690	142.24121	 79.84061	 39.88392	-10.92097	139.58005	  4.42001	163.45662	702.14001	 43.60	
 17.002	-63.866	142.40691	 88.83060	 32.98468	 -8.34947	136.40643	  4.46411	163.49765	702.09998	 43.60	
 17.006	-58.063	142.69638	 95.73085	 26.94702	 -4.89966	132.54524	  4.51815	163.49731	702.08002	 43.60	
 17.001	-52.301	143.08563	104.01551	 21.22462	 -1.06590	128.20839	  4.53389	163.53325	702.15002	 43.60	
 17.007	-46.454	143.39084	110.36265	 15.87895	  3.45417	122.67580	  4.48513	163.50922	702.28003	 43.60	
 17.014	-40.657	143.63509	116.57019	 11.14630	  8.38000	116.51637	  4.46034	163.51958	702.29999	 43.60	
 16.988	-34.839	144.03473	122.28372	  7.10191	 13.85458	109.67937	  4.53097	163.53230	702.28003	 43.60	
 16.995	-29.081	144.26389	127.22911	  3.55309	 18.83562	102.37315	  4.48577	163.48485	702.17999	 43.60	
 16.990	-23.241	144.61319	131.82793	  0.76072	 24.60692	 95.06565	  4.46537	163.51262	702.19000	 43.70	
 17.000	-17.404	144.98994	135.17520	 -1.54975	 31.57218	 87.22510	  4.41694	163.48958	702.32001	 43.70	
 17.009	-11.617	145.21457	137.88373	 -3.36727	 38.80240	 79.11818	  4.46503	163.48160	702.31000	 43.70	
 16.990	 -5.821	145.44247	139.56857	 -4.28090	 46.62766	 71.18725	  4.53541	163.50845	702.21002	 43.70	
 17.000	  0.000	145.59485	140.40067	 -4.21246	 53.95576	 63.32994	  4.58136	163.46626	702.20001	 43.70	
 16.990	  5.821	145.84242	140.54497	 -4.03866	 60.74332	 56.11292	  4.56925	163.50398	702.21997	 43.70	
 17.009	 11.617	145.90871	139.78230	 -3.70756	 68.75352	 48.96383	  4.44421	163.51804	702.25000	 43.70	
 17.000	 17.404	146.01422	138.14044	 -2.57636	 76.71241	 41.92559	  4.46980	163.47818	702.33002	 43.70	
 16.990	 23.241	146.12135	135.44003	 -0.43948	 84.76711	 35.14063	  4.46794	163.48511	702.15002	 43.70	
 16.995	 29.081	146.12950	132.16484	  2.01183	 92.71654	 28.70499	  4.57293	163.50821	702.32001	 43.70	
 16.988	 34.839	146.10181	128.02649	  5.17091	100.46868	 22.73028	  4.65821	163.54482	702.22998	 43.70	
 17.014	 40.657	145.93117	122.92417	  8.74553	107.69364	 17.09532	  4.64811	163.53671	702.28003	 43.70	
 17.007	 46.454	145.90387	116.99039	 13.26938	113.93101	 12.17508	  4.61683	163.53535	702.20001	 43.70	
 17.001	 52.301	145.80580	110.43062	 18.36602	120.35456	  7.63924	  4.54819	163.52487	702.28003	 43.80	
 17.006	 58.063	145.60878	103.52488	 23.75086	125.80270	  3.56547	  4.55439	163.50900	702.31000	 43.90	
 17.002	 63.866	145.58589	 96.65735	 29.70793	130.25824	  0.28016	  4.55303	163.47653	702.28003	 43.90	
 17.001	 69.690	145.49870	 89.54134	 36.23103	133.95485	 -2.62388	  4.52043	163.48613	702.34998	 44.00	
 16.988	 75.483	145.57285	 81.81203	 42.90974	136.59906	 -4.61408	  4.57678	163.49509	702.29999	 44.00	
 17.012	 81.253	145.49738	 73.80025	 49.17981	138.59373	 -6.36679	  4.62254	163.50627	702.21002	 44.00	
 16.996	 87.091	145.46953	 65.33302	 56.69044	139.54236	 -6.92186	  4.69096	163.50972	702.33002	 43.90	
 16.996	 92.909	145.39230	 58.22004	 63.63042	139.81244	 -6.94216	  4.73090	163.47644	702.17999	 43.90	
 17.008	 98.662	145.30418	 50.57653	 71.31242	139.28296	 -6.93764	  4.80952	163.46823	702.28998	 43.90	
 16.988	104.517	145.34625	 44.54920	 79.95614	137.68298	 -5.81868	  4.83429	163.52791	702.21997	 43.80	
 17.001	110.310	145.27068	 37.85100	 88.15758	135.26212	 -4.10890	  4.75332	163.55322	702.39001	 43.80	
 17.002	116.134	145.20065	 30.58883	 95.81565	131.86197	 -1.66969	  4.55406	163.51888	702.28003	 43.90	
 17.006	121.937	145.00394	 24.22528	103.09187	127.42279	  1.10121	  4.31160	163.54378	702.32001	 43.90	
 17.001	127.699	144.78224	 18.55243	110.06512	122.26466	  4.55443	  4.12702	163.58388	702.34003	 43.90	
 17.007	133.546	144.48232	 12.90168	115.85732	116.28455	  8.59386	  4.10854	163.56587	702.28998	 43.80	
 17.014	139.343	144.21802	  7.90072	122.04407	109.88744	 12.98235	  4.33035	163.57782	702.34998	 43.80	
 16.988	145.161	143.97234	  3.60212	128.14478	102.72498	 18.26244	  4.60117	163.52895	702.34998	 43.80	
 16.995	150.919	143.64967	 -0.05441	132.77899	 94.78837	 23.79020	  4.87726	163.57632	702.32001	 43.80	
 16.990	156.759	143.26482	 -3.34958	136.67386	 86.78468	 29.86020	  4.78348	163.54425	702.28998	 43.80	
 17.000	162.596	142.88821	 -6.04921	139.82735	 78.95856	 36.35575	  4.64530	163.56819	702.34003	 43.70	
 17.009	168.383	142.53970	 -8.26477	142.09042	 70.68452	 43.18534	  4.58934	163.59511	702.28003	 43.70	
 16.990	174.179	142.30453	 -9.39691	143.26221	 62.59049	 50.33244	  4.51711	163.57504	702.28998	 43.70	
 18.709	174.675	137.28091	-18.54572	147.72710	 59.09112	 46.39466	  4.58130	163.61418	702.26001	 43.70	
 18.703	169.441	137.58458	-17.35761	146.48653	 66.88232	 39.53714	  4.59654	163.59132	702.19000	 43.70	
 18.691	164.085	137.94339	-15.34585	144.25842	 75.25558	 32.73672	  4.68345	163.55066	702.28003	 43.70	
 18.706	158.818	138.26120	-12.96060	141.58598	 83.16367	 26.17729	  4.82228	163.50032	701.98999	 43.60	
 18.695	153.537	138.64622	 -9.76922	137.77911	 91.15977	 20.08299	  4.88550	163.44011	702.20001	 43.60	
 18.704	148.255	139.05986	 -6.34422	133.47897	 99.21449	 14.29398	  4.77302	163.46272	702.21002	 43.60	
 18.698	142.952	139.40546	 -2.55591	128.57228	106.78708	  9.02996	  4.47105	163.50185	702.09003	 43.60	
 18.699	137.625	139.73087	  1.78708	122.25043	113.62864	  4.15508	  4.25317	163.54184	702.21997	 43.60	
 18.705	132.343	139.91847	  6.44603	115.92863	120.09182	 -0.17108	  4.11454	163.53401	702.16998	 43.60	
 18.713	127.067	140.12732	 11.87764	109.95004	125.91964	 -4.05692	  4.19612	163.54811	702.27002	 43.60	
 18.700	121.794	140.39249	 17.69575	102.99735	131.09737	 -7.41079	  4.37383	163.53694	702.14001	 43.70	
 18.698	116.504	140.56865	 23.94950	 95.62415	135.44189	-10.16674	  4.55129	163.54535	702.17999	 43.70	
 18.707	111.165	140.68001	 30.67695	 87.68174	138.89410	-12.52532	  4.65299	163.54358	702.25000	 43.70	
 18.690	105.863	140.84271	 38.37725	 79.07356	141.49176	-14.18582	  4.77040	163.53400	702.29999	 43.80	
 18.696	100.583	140.96426	 45.32142	 71.32674	143.41824	-15.26529	  4.74989	163.58789	702.22998	 43.80	
 18.700	 95.309	140.94034	 51.42044	 62.95590	144.37531	-15.98372	  4.67178	163.58197	702.25000	 43.80	
 18.700	 90.000	140.96001	 57.70998	 56.46316	144.48860	-15.96800	  4.64677	163.59898	702.20001	 43.80	
 18.700	 84.691	140.91969	 65.65031	 49.23156	143.91576	-15.68583	  4.57303	163.58165	702.27002	 43.80	
 18.696	 79.417	141.02473	 74.07176	 42.13551	142.48880	-14.69253	  4.52133	163.53816	702.21002	 43.90	
 18.690	 74.137	141.04993	 82.41978	 35.49667	140.39549	-12.91515	  4.54296	163.58344	702.32001	 43.90	
 18.707	 68.835	141.00237	 90.10164	 28.66154	137.51424	-10.79312	  4.50167	163.52228	702.31000	 44.00	
 18.698	 63.496	141.00375	 97.34418	 21.88635	133.79965	 -8.15497	  4.47290	163.53894	702.20001	 44.00	
 18.700	 58.206	141.07922	104.17391	 15.86398	129.28065	 -4.88726	  4.48461	163.52470	702.21002	 43.90	
 18.713	 52.933	141.19940	111.22034	 10.16377	123.83074	 -1.12638	  4.46639	163.55376	702.21002	 43.90	
 18.705	 47.657	141.37605	117.75990	  5.13742	117.57249	  3.43309	  4.58573	163.50316	702.19000	 44.00	
 18.699	 42.375	141.54538	123.68282	  1.07350	110.88820	  8.40836	  4.56138	163.48595	702.19000	 44.00	
 18.698	 37.048	141.59824	129.22093	 -2.60417	104.10282	 13.74900	  4.62808	163.45616	702.26001	 44.00	
 18.704	 31.745	141.71338	133.86765	 -5.74466	 96.54909	 19.45482	  4.54475	163.46466	702.15002	 44.00	
 18.695	 26.463	141.78175	137.52711	 -8.28465	 88.65355	 25.65476	  4.34202	163.48169	702.19000	 44.00	
 18.706	 21.182	141.70035	140.74152	-10.66003	 80.67155	 32.03217	  4.39985	163.46609	702.21002	 44.00	
 18.691	 15.915	141.65541	142.91452	-12.69745	 72.96774	 38.96247	  4.41342	163.49559	702.21997	 44.00	
 18.703	 10.559	141.46309	144.52754	-14.07469	 64.55257	 46.07932	  4.41333	163.50929	702.21997	 44.00	
 18.709	  5.325	141.30658	145.15685	-14.37532	 57.21038	 53.10211	  4.55885	163.51875	702.29999	 44.00	
 18.700	  0.000	141.15733	145.05618	-14.50959	 49.81260	 60.25374	  4.55779	163.52155	702.35999	 44.00	
 18.709	 -5.325	140.91576	144.32343	-15.10344	 42.77395	 67.43864	  4.50042	163.52704	702.27002	 44.10	
 18.703	-10.559	140.82913	142.67889	-14.17067	 35.50889	 75.53924	  4.49654	163.51170	702.35999	 44.10	
 18.691	-15.915	140.62801	140.11429	-12.51439	 28.25514	 83.87875	  4.46335	163.52361	702.27002	 44.00	
 18.706	-21.182	140.15776	137.02647	-10.52697	 22.40143	 91.62437	  4.36093	163.48930	702.22998	 44.00	
 18.695	-26.463	139.90616	133.05164	 -7.78742	 16.21734	 99.10614	  4.43375	163.51541	702.21997	 43.90	
 18.704	-31.745	139.49644	128.25020	 -4.79074	  9.81652	106.62602	  4.45705	163.51265	702.21997	 43.90	
 18.698	-37.048	139.16901	122.83170	 -1.12100	  3.92877	113.66399	  4.46970	163.48398	702.25000	 43.90	
 18.699	-42.375	138.84102	116.67271	  3.44741	 -1.14239	120.20310	  4.48965	163.46405	702.21002	 44.00	
 18.705	-47.657	138.55344	110.77730	  8.26486	 -5.81929	126.23647	  4.44498	163.46600	702.21997	 44.00	
 18.713	-52.933	138.21228	103.78995	 13.84075	-10.12271	131.43326	  4.45395	163.43153	702.23999	 44.00	
 18.700	-58.206	137.94846	 96.55078	 19.66495	-13.72945	135.89487	  4.40410	163.43907	702.21997	 44.00	
 18.698	-63.496	137.73193	 88.70430	 25.89856	-16.82641	139.80574	  4.41128	163.46968	702.15997	 43.90	
 18.707	-68.835	137.46214	 79.64539	 32.79276	-19.41821	143.16232	  4.36378	163.46265	702.22998	 43.90	
 18.690	-74.137	137.29039	 71.50459	 39.95448	-21.44042	145.49106	  4.40734	163.49062	702.15997	 43.90	
 18.696	-79.417	137.06804	 64.13319	 47.09003	-22.93568	147.03595	  4.40977	163.50609	702.22998	 44.00	
 18.700	-84.691	136.79109	 57.00758	 53.46027	-23.30287	147.77483	  4.38640	163.51443	702.26001	 44.00	
 18.700	-90.000	136.59256	 50.23555	 59.38494	-24.41177	147.76131	  4.38736	163.53777	702.21997	 44.00	
 18.700	-95.309	136.39740	 43.51896	 66.82492	-23.84263	146.93661	  4.35307	163.51085	702.17999	 44.00	
 18.696	-100.583	136.25540	 36.60695	 75.09497	-22.72552	145.31517	  4.30923	163.53247	702.21002	 44.00	
 18.690	-105.863	136.16222	 29.58348	 83.65314	-21.41653	143.00421	  4.35037	163.54405	702.17999	 44.10	
 18.707	-111.165	136.02933	 22.56892	 91.67988	-19.63469	139.77071	  4.39744	163.52176	702.29999	 44.00	
 18.698	-116.504	136.01085	 15.85664	 99.30152	-16.95285	135.72165	  4.45155	163.52750	702.21002	 44.00	
 18.700	-121.794	135.90305	  9.55961	106.39713	-13.93625	131.19972	  4.49888	163.51265	702.20001	 44.00	
 18.713	-127.067	135.87616	  4.09736	113.15929	-10.04391	126.07957	  4.41912	163.52313	702.17999	 44.00	
 18.705	-132.343	135.89458	 -1.03466	118.95663	 -5.58131	120.01936	  4.40603	163.54047	702.16998	 44.00	
 18.699	-137.625	135.95975	 -5.47298	125.00671	 -0.80059	113.47251	  4.40402	163.57632	702.15002	 44.10	
 18.698	-142.952	136.00851	 -9.29153	131.05516	  4.49626	106.46077	  4.36893	163.52461	702.25000	 44.10	
 18.704	-148.255	136.12411	-12.57594	135.66418	 10.07265	 99.19858	  4.33625	163.56046	702.32001	 44.20	
 18.695	-153.537	136.25461	-15.15814	139.61354	 16.14138	 91.85892	  4.30779	163.55428	702.38000	 44.20	
 18.706	-158.818	136.33180	-17.38087	142.92117	 22.56360	 84.10265	  4.32080	163.54489	702.31000	 44.20	
 18.691	-164.085	136.52438	-18.85313	145.26743	 29.65673	 76.16113	  4.46438	163.55995	702.27002	 44.20	
 18.703	-169.441	136.54208	-19.86652	147.08766	 37.00228	 67.70750	  4.55977	163.51993	702.27002	 44.20	
 18.709	-174.675	136.76164	-20.09754	148.03046	 44.56428	 59.72715	  4.61991	163.54567	702.22998	 44.20	
 18.700	180.000	137.01666	-19.60027	148.15755	 52.45519	 52.27170	  4.66656	163.49692	702.17999	 44.20	
 20.400	180.000	131.53857	-28.69057	151.78156	 48.92367	 47.87826	  4.70385	163.50285	702.21997	 44.20	
 20.401	-175.153	131.35303	-29.05844	151.71809	 41.15620	 55.23829	  4.71726	163.53311	702.16998	 44.20	
 20.407	-170.264	131.07144	-28.83208	150.88445	 33.29524	 63.02135	  4.57741	163.49936	702.21997	 44.20	
 20.410	-165.423	130.89165	-27.84864	149.30803	 25.94996	 71.04005	  4.48536	163.51715	702.16998	 44.20	
 20.392	-160.496	130.79295	-26.65520	146.90298	 18.98381	 79.36102	  4.42877	163.51970	702.29999	 44.20	
 20.401	-155.705	130.57402	-25.11745	144.27426	 12.35499	 87.15651	  4.35501	163.52962	702.20001	 44.20	
 20.405	-150.835	130.53389	-22.79520	140.46944	  5.96570	 94.83244	  4.29014	163.52185	702.13000	 44.20	
 20.397	-145.903	130.53658	-19.94915	136.04550	  0.25889	102.13123	  4.34950	163.47711	702.25000	 44.20	
 20.392	-141.062	130.60945	-16.56766	131.20091	 -4.97214	109.37312	  4.41326	163.50984	702.14001	 44.20	
 20.396	-136.227	130.54353	-12.88677	125.03326	 -9.93827	115.98819	  4.40537	163.47041	702.09998	 44.10	
 20.408	-131.372	130.40135	 -8.05301	118.92468	-14.52559	122.54354	  4.44147	163.50510	702.10999	 44.20	
 20.410	-126.511	130.31963	 -3.19910	112.86585	-18.65838	128.53183	  4.40177	163.48248	702.15002	 44.20	
 20.400	-121.604	130.36093	  2.40066	106.16831	-21.98485	133.61377	  4.48213	163.45482	702.17999	 44.30	
 20.403	-116.741	130.49730	  8.21270	 99.11064	-25.01878	138.30470	  4.47237	163.48659	702.20001	 44.30	
 20.413	-111.900	130.53011	 14.71949	 91.43748	-27.70795	142.35880	  4.37095	163.48996	702.17999	 44.30	
 20.398	-107.004	130.60745	 21.88387	 82.82051	-29.70091	145.67984	  4.39183	163.46245	702.20001	 44.40	
 20.394	-102.132	130.76067	 29.27394	 74.70594	-31.02332	148.25365	  4.31489	163.50923	702.15997	 44.40	
 20.403	-97.332	130.80304	 36.25356	 66.69875	-32.17630	150.18146	  4.30124	163.51192	702.20001	 44.30	
 20.392	-92.440	130.97955	 43.70138	 59.75968	-33.05466	151.27805	  4.34443	163.50574	702.21002	 44.30	
 20.392	-87.560	131.22177	 50.38285	 52.77785	-33.46999	151.69185	  4.37258	163.49786	702.21997	 44.30	
 20.403	-82.668	131.39780	 57.02441	 46.09259	-32.68153	151.38470	  4.39407	163.48138	702.16998	 44.30	
 20.394	-77.868	131.65456	 63.59036	 39.51027	-31.32915	150.41759	  4.39213	163.48793	702.15997	 44.30	
 20.398	-72.996	131.94572	 70.84937	 31.92346	-29.93378	148.72598	  4.37778	163.51096	702.06000	 44.30	
 20.413	-68.100	132.04404	 79.01405	 24.67310	-28.42021	146.16299	  4.38838	163.48618	702.09998	 44.30	
 20.403	-63.259	132.31934	 87.70139	 18.26002	-25.71695	143.02931	  4.39857	163.44043	702.08002	 44.30	
 20.400	-58.396	132.64824	 95.91721	 12.15666	-22.86744	139.03258	  4.44339	163.44148	702.07001	 44.30	
 20.410	-53.489	132.88271	103.27447	  6.50139	-19.54284	134.35426	  4.46079	163.43245	702.15997	 44.30	
 20.408	-48.628	133.25398	110.48531	  1.36152	-15.59641	129.32962	  4.42696	163.42815	702.14001	 44.30	
 20.396	-43.773	133.66962	116.32845	 -3.26716	-10.93849	123.57150	  4.44170	163.48178	702.14001	 44.30	
 20.392	-38.938	133.91182	122.56838	 -7.62062	 -5.97172	117.13360	  4.43888	163.43956	702.08002	 44.30	
 20.397	-34.097	134.17419	128.29752	-11.49599	 -0.74991	110.34534	  4.43016	163.47516	702.02002	 44.30	
 20.405	-29.165	134.51469	133.52074	-14.78744	  4.96123	102.70530	  4.41037	163.50101	702.17999	 44.40	
 20.401	-24.295	134.88080	137.83141	-17.44487	 11.03795	 95.63297	  4.44264	163.43848	702.10999	 44.40	
 20.392	-19.504	135.31976	141.46452	-19.78645	 18.23134	 88.13638	  4.38735	163.45952	702.13000	 44.40	
 20.410	-14.577	135.59373	144.50911	-21.73173	 25.59621	 79.80273	  4.41147	163.41801	702.16998	 44.40	
 20.407	 -9.736	135.83459	146.85152	-23.30944	 31.94588	 71.60027	  4.45186	163.43517	702.13000	 44.50	
 20.401	 -4.847	136.01195	148.34894	-24.00621	 39.19038	 62.99463	  4.55888	163.43774	702.16998	 44.50	
 20.400	  0.000	136.23192	149.02783	-24.01880	 45.74606	 56.60883	  4.57161	163.42830	702.13000	 44.50	
 20.401	  4.847	136.31305	149.20387	-24.13030	 52.93112	 49.83654	  4.47563	163.40289	702.19000	 44.40	
 20.407	  9.736	136.56607	148.60356	-23.63160	 60.70519	 42.75741	  4.46764	163.41435	702.23999	 44.40	
 20.410	 14.577	136.52733	147.34424	-22.68056	 68.09798	 35.39138	  4.47099	163.37367	702.25000	 44.40	
 20.392	 19.504	136.65707	145.25505	-21.44631	 76.53230	 28.51742	  4.38699	163.39027	702.13000	 44.30	
 20.401	 24.295	136.67270	142.50034	-19.00353	 84.12437	 22.12074	  4.46926	163.38890	702.23999	 44.30	
 20.405	 29.165	136.65894	139.04243	-16.69496	 92.07452	 15.89744	  4.50251	163.39870	702.10999	 44.40	
 20.397	 34.097	136.61981	134.91075	-13.51350	100.11012	  9.91143	  4.46583	163.38745	702.26001	 44.40	
 20.392	 38.938	136.52794	129.66133	-10.20228	107.41013	  4.47525	  4.55413	163.36630	702.23999	 44.40	
 20.396	 43.773	136.39786	124.21796	 -6.47356	113.90762	 -0.63648	  4.52877	163.44347	702.22998	 44.40	
 20.408	 48.628	136.14171	118.06673	 -2.23872	120.59176	 -5.42548	  4.52907	163.33099	702.20001	 44.40	
 20.410	 53.489	135.96056	111.77711	  2.82783	126.62650	 -9.66394	  4.49508	163.31857	702.09003	 44.40	
 20.400	 58.396	135.91928	104.15870	  8.54698	132.14096	-13.29558	  4.48281	163.31987	702.26001	 44.30	
 20.403	 63.259	135.82396	 97.59792	 14.47298	136.56094	-16.49360	  4.46943	163.31746	702.28003	 44.30	
 20.413	 68.100	135.75435	 89.92195	 20.65807	140.32452	-19.10764	  4.46115	163.28619	702.21997	 44.30	
 20.398	 72.996	135.81627	 82.01911	 27.27397	143.32956	-21.10705	  4.49293	163.33130	702.21002	 44.30	
 20.394	 77.868	135.75238	 73.89395	 34.13551	145.75824	-22.81942	  4.46748	163.30891	702.19000	 44.30	
 20.403	 82.668	135.69893	 65.67919	 41.18071	147.22955	-24.16943	  4.52204	163.34087	702.21002	 44.30	
 20.392	 87.560	135.65785	 57.31482	 48.82948	148.10403	-24.91865	  4.60009	163.35477	702.29999	 44.30	
 20.392	 92.440	135.69049	 51.68233	 55.30191	148.34154	-24.99152	  4.59649	163.33878	702.15997	 44.40	
 20.403	 97.332	135.66202	 45.87211	 62.28614	147.84500	-24.80935	  4.54567	163.33511	702.15997	 44.40	
 20.394	102.132	135.69424	 38.58607	 70.30899	146.69531	-23.76697	  4.76958	163.34012	702.22998	 44.50	
 20.398	107.004	135.56801	 30.78474	 78.14371	144.72009	-22.55285	  4.77713	163.30948	702.20001	 44.50	
 20.413	111.900	135.43285	 23.86726	 86.56487	141.85336	-20.86021	  4.72192	163.30412	702.12000	 44.50	
 20.403	116.741	135.31926	 17.15013	 94.67233	138.35226	-18.72859	  4.62393	163.28372	702.14001	 44.50	
 20.400	121.604	135.21838	 11.04387	102.19535	134.15393	-15.84020	  4.52665	163.30011	702.28998	 44.50	
 20.410	126.511	134.91492	  5.34424	109.18861	128.89726	-12.63364	  4.34587	163.27647	702.19000	 44.60	
 20.408	131.372	134.65451	  0.05081	115.42665	123.18910	 -8.87094	  4.28520	163.28607	702.21002	 44.60	
 20.396	136.227	134.47691	 -4.58773	121.75443	116.89770	 -4.73989	  4.23685	163.28976	702.21997	 44.60	
 20.392	141.062	134.21736	 -8.93482	127.86684	110.28554	 -0.18451	  4.37951	163.29045	702.23999	 44.50	
 20.397	145.903	133.86606	-12.83942	133.44600	103.11176	  4.76353	  4.59120	163.26392	702.25000	 44.50	
 20.405	150.835	133.46570	-16.38134	138.15678	 95.01917	 10.35499	  4.82856	163.27582	702.27002	 44.50	
 20.401	155.705	133.13306	-19.52991	142.35672	 86.97095	 16.28517	  4.85863	163.28909	702.31000	 44.50	
 20.392	160.496	132.81142	-22.29586	145.41452	 79.33567	 22.33163	  4.72035	163.31325	702.34998	 44.40	
 20.410	165.423	132.34991	-24.52386	148.13469	 70.92305	 28.74940	  4.61502	163.29433	702.26001	 44.40	
 20.407	170.264	131.98024	-26.43447	150.01918	 62.74891	 35.52829	  4.59542	163.26599	702.20001	 44.50	
 20.401	175.153	131.62831	-27.59768	151.14041	 54.98299	 42.29912	  4.64494	163.29878	702.28998	 44.50	
  0.141	 45.000	163.38489	 75.44262	 80.66676	 71.49543	 77.62483	  5.54545	163.23480	702.21997	 44.60	
  4.001	128.691	163.06819	 63.73434	 91.08918	 86.35236	 61.78078	  4.82255	163.28893	702.27002	 44.60	
  4.002	 76.995	163.20392	 79.48303	 75.43604	 90.31946	 58.84956	  5.03939	163.25436	702.32001	 44.60	
  4.002	 25.892	163.16071	 91.04317	 63.81399	 78.85280	 69.23278	  4.80182	163.23062	702.19000	 44.60	
  4.002	-25.892	162.95003	 89.65373	 64.40121	 61.95588	 85.91155	  4.60725	163.20447	702.23999	 44.60	
  4.002	-76.995	162.59232	 76.94968	 76.71117	 52.02832	 95.93678	  4.73802	163.19334	702.17999	 44.60	
  4.001	-128.691	162.46231	 61.74944	 91.98643	 55.86120	 91.18401	  4.71657	163.20737	702.23999	 44.50	
  4.000	180.000	162.64398	 55.39590	 98.76571	 70.45194	 76.34818	  4.61092	163.22168	702.21997	 44.50	
  8.000	180.000	159.32678	 35.89684	114.91370	 68.06497	 72.54047	  3.41893	163.21289	702.20001	 44.40	
  7.991	-152.370	159.00424	 37.93993	110.27441	 50.59074	 90.04647	  3.56670	163.21478	702.28998	 44.40	
  7.997	-124.550	158.89972	 48.31920	 98.86414	 37.71926	104.84162	  3.62130	163.22168	702.15997	 44.40	
  8.006	-96.837	159.10779	 64.26189	 82.43884	 32.09198	112.59093	  3.71975	163.27296	702.17999	 44.40	
  7.988	-69.228	159.52725	 82.16022	 65.75243	 33.74611	111.00384	  3.58868	163.26384	702.27002	 44.40	
  7.997	-41.563	160.00189	 97.38850	 51.82092	 43.26523	100.76931	  3.55826	163.26685	702.26001	 44.50	
  8.008	-13.821	160.51176	107.35115	 42.99202	 58.55630	 84.47018	  3.57744	163.21376	702.17999	 44.50	
  8.008	 13.821	160.89268	108.60936	 42.52333	 76.52544	 65.99075	  3.52886	163.22760	702.12000	 44.50	
  7.997	 41.563	160.92213	100.39223	 50.28028	 94.12632	 50.72689	  3.60559	163.20937	702.21997	 44.40	
  7.988	 69.228	160.85950	 86.80486	 63.59700	105.17992	 41.14860	  3.70265	163.22992	702.21997	 44.40	
  8.006	 96.837	160.76588	 69.35513	 80.35794	108.06098	 38.57236	  3.70142	163.19002	702.23999	 44.40	
  7.997	124.550	160.42027	 53.31253	 97.13908	101.41042	 43.62975	  3.69740	163.22881	702.17999	 44.30	
  7.991	152.370	159.91396	 40.67774	109.31696	 86.24970	 55.54951	  3.52900	163.22726	702.21997	 44.30	
 12.009	161.059	153.87180	 19.87845	125.31746	 81.69637	 49.77036	  4.09078	163.23631	702.19000	 44.20	
 12.013	142.081	154.52502	 28.41656	114.96989	100.16679	 35.56972	  4.14629	163.23195	702.31000	 44.20	
 12.006	123.113	155.05595	 41.45564	101.01594	113.84863	 25.54385	  3.80275	163.18692	702.31000	 44.20	
 12.007	104.200	155.47676	 57.03967	 84.00418	122.06274	 19.93620	  3.98604	163.18996	702.39001	 44.20	
 11.989	 85.301	155.74866	 74.53955	 66.51687	123.29784	 19.43702	  3.92478	163.22940	702.34003	 44.20	
 12.013	 66.294	155.71330	 92.18844	 48.47820	117.83005	 23.57388	  3.80154	163.19807	702.31000	 44.20	
 12.012	 47.388	155.83574	107.26434	 36.39091	105.96767	 32.87241	  3.82805	163.20317	702.31000	 44.20	
 11.990	 28.440	155.99338	118.63553	 27.27587	 89.97385	 45.80627	  3.95230	163.17145	702.32001	 44.20	
 11.991	  9.464	155.76797	123.82121	 23.04444	 71.54626	 62.48246	  4.06300	163.15257	702.40002	 44.30	
 11.991	 -9.464	155.25342	122.61489	 23.22348	 53.24049	 80.62096	  4.19939	163.11929	702.34003	 44.30	
 11.990	-28.440	154.65210	115.18318	 28.68839	 36.68823	 98.28458	  4.15114	163.10823	702.27002	 44.30	
 12.012	-47.388	154.02049	101.96784	 38.59549	 23.89575	113.52319	  4.14627	163.15034	702.29999	 44.30	
 12.013	-66.294	153.32573	 85.81976	 50.90792	 15.57733	124.10998	  4.17037	163.12173	702.23999	 44.40	
 11.989	-85.301	152.96581	 67.29205	 69.03316	 12.09138	127.72278	  4.12311	163.15587	702.31000	 44.40	
 12.007	-104.200	152.51973	 49.56655	 86.57156	 12.89085	125.43311	  4.22680	163.12781	702.28998	 44.40	
 12.006	-123.113	152.41403	 34.34734	103.42976	 19.44400	116.38000	  4.27971	163.14069	702.26001	 44.40	
 12.013	-142.081	152.41016	 23.98531	116.69383	 30.23730	102.17644	  3.89868	163.12381	702.27002	 44.40	
 12.009	-161.059	152.62138	 16.71408	126.28909	 46.31060	 84.96454	  4.00105	163.13354	702.31000	 44.40	
 16.000	180.000	144.29977	 -5.10727	140.96120	 57.49935	 58.74840	  4.56602	163.13608	702.32001	 44.30	
 15.990	-165.604	143.90891	 -4.89768	139.07692	 39.62534	 77.14761	  4.48476	163.15662	702.22998	 44.30	
 16.002	-151.165	143.51588	 -0.07405	132.31622	 23.37945	 95.30780	  4.26845	163.17650	702.15997	 44.30	
 16.002	-136.836	143.37598	  8.63099	120.35421	 10.77708	111.81745	  4.43139	163.20198	702.26001	 44.30	
 15.995	-122.439	143.44719	 20.90960	106.12782	  0.62246	125.79045	  4.56379	163.17166	702.27002	 44.30	
 15.993	-107.966	143.48132	 35.58425	 88.95657	 -6.70931	135.08521	  4.52592	163.15359	702.29999	 44.40	
 16.005	-93.629	143.72319	 51.07159	 69.64132	 -9.76360	139.88626	  4.43110	163.15079	702.34003	 44.30	
 15.992	-79.234	144.27194	 68.11802	 53.04984	 -8.34994	139.55949	  4.42830	163.14624	702.29999	 44.40	
 16.009	-64.774	144.70374	 87.59127	 37.62458	 -3.45794	134.31253	  4.45075	163.14702	702.21997	 44.30	
 15.997	-50.364	145.33546	104.53829	 23.68758	  5.25805	124.43933	  4.49729	163.10516	702.08002	 44.30	
 15.997	-36.045	146.06854	118.98891	 12.91817	 15.78055	109.91679	  4.48691	163.10339	702.20001	 44.30	
 16.000	-21.597	146.69911	130.06328	  5.29694	 29.66921	 92.79704	  4.41255	163.08400	702.13000	 44.30	
 16.003	 -7.169	147.41884	136.10774	  1.38151	 47.11213	 74.10658	  4.56135	163.14871	702.17999	 44.30	
 16.003	  7.169	147.81129	137.20039	  1.56198	 63.96680	 56.42409	  4.47419	163.14442	702.34998	 44.30	
 16.000	 21.597	148.10733	133.33046	  4.26989	 82.75933	 39.96628	  4.40154	163.10362	702.35999	 44.30	
 15.997	 36.045	148.07675	124.43005	 10.86153	101.12623	 25.38165	  4.49387	163.11647	702.19000	 44.40	
 15.997	 50.364	147.83760	111.25177	 20.93170	116.36578	 13.57369	  4.40426	163.13905	702.26001	 44.40	
 16.009	 64.774	147.68050	 95.31962	 34.35090	128.21516	  4.57940	  4.45808	163.17393	702.33002	 44.30	
 15.992	 79.234	147.68221	 77.58519	 49.36360	134.91084	 -0.62914	  4.46603	163.18315	702.34003	 44.30	
 16.005	 93.629	147.45074	 59.26517	 66.50997	136.57213	 -1.82884	  4.57173	163.12831	702.31000	 44.30	
 15.993	107.966	147.35071	 43.10679	 85.63918	133.17976	  0.33654	  4.65096	163.10132	702.26001	 44.40	
 15.995	122.439	147.10997	 27.45494	103.07909	124.44198	  6.15256	  4.21678	163.14052	702.29999	 44.50	
 16.002	136.836	146.47986	 14.45433	117.79291	110.89640	 15.36052	  4.13166	163.14140	702.27002	 44.50	
 16.002	151.165	145.73007	  4.30046	130.61414	 93.98137	 27.50236	  4.81472	163.12810	702.23999	 44.50	
 15.990	165.604	144.93800	 -2.31689	138.21477	 75.41055	 42.66367	  4.53367	163.14944	702.25000	 44.50	
 20.003	168.362	133.32254	-23.62735	148.45943	 66.45929	 34.08825	  4.61722	163.16522	702.37000	 44.50	
 20.008	156.764	134.14351	-18.34351	142.39240	 85.36700	 18.97021	  4.78987	163.14067	702.27002	 44.50	
 20.000	145.147	135.10353	-10.47295	132.15660	104.08992	  5.67918	  4.60146	163.17911	702.28998	 44.50	
 19.995	133.545	135.67548	 -0.36300	117.95538	119.94586	 -5.24399	  4.18866	163.15224	702.29999	 44.50	
 20.009	121.926	136.24593	 12.12656	102.63795	132.95700	-13.68910	  4.44211	163.09511	702.34003	 44.50	
 20.005	110.327	136.55223	 27.37543	 84.28941	141.84731	-19.45649	  4.71105	163.13849	702.25000	 44.60	
 19.989	 98.733	136.71481	 44.61111	 65.32521	146.34413	-22.36579	  4.70892	163.08406	702.26001	 44.70	
 19.999	 87.075	136.70895	 58.83916	 49.16755	146.92197	-22.70705	  4.57291	163.13275	702.19000	 44.70	
 19.992	 75.457	136.85466	 78.52734	 32.10335	143.53491	-20.01288	  4.44967	163.13274	702.21997	 44.80	
 20.009	 63.844	136.89163	 96.55827	 16.83515	136.15756	-14.78842	  4.42418	163.09734	702.20001	 44.80	
 19.989	 52.269	137.12158	112.72556	  3.50095	124.49219	 -6.66976	  4.35895	163.10547	702.29999	 44.80	
 19.999	 40.602	137.43771	127.07895	 -7.05095	109.51524	  4.39754	  4.48340	163.09946	702.25000	 44.70	
 20.004	 29.051	137.69450	138.08519	-14.63463	 91.86253	 17.58163	  4.42356	163.10364	702.21997	 44.70	
 20.005	 17.433	137.54688	145.03732	-19.19610	 73.36560	 32.62103	  4.37410	163.05411	702.27002	 44.60	
 20.006	  5.780	137.36630	147.84750	-21.85606	 55.27888	 49.45361	  4.43808	163.07903	702.28998	 44.50	
 20.006	 -5.780	136.94016	146.74924	-21.84523	 38.70696	 65.54782	  4.47626	163.04866	702.32001	 44.40	
 20.005	-17.433	136.30289	141.70126	-18.62205	 23.07258	 84.75690	  4.37440	163.01082	702.34998	 44.40	
 20.004	-29.051	135.40996	132.67215	-12.83863	  6.83790	102.16938	  4.45150	163.03322	702.34003	 44.40	
 19.999	-40.602	134.77956	119.81527	 -4.34255	 -5.40815	118.80058	  4.38664	163.05725	702.38000	 44.40	
 19.989	-52.269	134.05075	104.71413	  6.97810	-16.07399	132.29378	  4.39901	163.03709	702.34998	 44.50	
 20.009	-63.844	133.26869	 86.86968	 20.65251	-23.72305	142.28987	  4.33461	163.04018	702.28998	 44.50	
 19.992	-75.457	132.78502	 67.55482	 37.27465	-28.51716	148.36476	  4.30785	163.04057	702.25000	 44.50	
 19.999	-87.075	132.20229	 52.07942	 52.61456	-30.94662	150.46875	  4.23252	163.05351	702.21997	 44.50	
 19.989	-98.733	131.80757	 35.47873	 69.61057	-28.98004	148.39560	  4.20875	163.05562	702.26001	 44.50	
 20.005	-110.327	131.49619	 18.46858	 89.05661	-25.39780	142.39178	  4.36228	163.04544	702.15002	 44.60	
 20.009	-121.926	131.28804	  3.70884	106.33723	-19.02954	132.42125	  4.42797	163.05457	702.25000	 44.60	
 19.995	-133.545	131.41353	 -8.07914	121.14143	-10.68860	119.10952	  4.36180	163.03020	702.27002	 44.60	
 20.000	-145.147	131.50775	-17.30447	134.50159	  1.17242	102.96512	  4.34871	163.06097	702.29999	 44.60	
 20.008	-156.764	131.60930	-23.37626	143.82489	 15.25918	 85.53484	  4.30861	163.03226	702.28003	 44.60	
 20.003	-168.362	131.93639	-26.38601	149.13153	 31.50518	 66.66021	  4.55028	163.02345	702.21002	 44.60	
 20.000	180.000	132.46362	-26.41855	150.54478	 49.58827	 48.77877	  4.68858	163.00308	702.27002	 44.60	
