FileType=PCF
NHL=14
Date=03/13/19	10:22:16
Facility=APL
Serial=16071-1
Customer=NASA
NP=6
Mach=0.450000
Calibration=1:1
CalPts=490
TstPts=95
PortNumbering=AP Standard
Units=Torr C m/s kg/m^3 deg mm 
Theta[deg]	Phi[deg]	P1[Torr]	P2[Torr]	P3[Torr]	P4[Torr]	P5[Torr]	P6[Torr]	Pt[Torr]	Ps[Abs,Torr]	Ts[C]	
  0.000	  0.000	 91.88063	 38.88511	 41.49702	 41.55028	 38.22936	  1.49718	 91.71956	712.28998	 37.40	
  1.691	128.401	 91.85505	 35.89253	 44.15357	 45.44114	 34.18527	  1.39018	 91.71233	712.19000	 37.40	
  1.692	 77.194	 91.83780	 39.96159	 40.02802	 46.26992	 33.48249	  1.52164	 91.66770	712.17999	 37.50	
  1.699	 26.182	 91.88507	 43.34251	 36.91372	 43.45074	 36.11805	  1.57738	 91.70122	712.13000	 37.50	
  1.699	-26.182	 91.93423	 43.20510	 37.23716	 39.11674	 40.68519	  1.53460	 91.75149	712.15997	 37.60	
  1.692	-77.194	 91.94487	 39.73185	 40.70226	 36.21325	 43.35035	  1.43936	 91.78165	712.16998	 37.60	
  1.691	-128.401	 91.90390	 35.68325	 45.48542	 37.45533	 42.11227	  1.33426	 91.75365	712.12000	 37.70	
  1.700	180.000	 91.90723	 33.96106	 47.27543	 41.61980	 37.87306	  1.31221	 91.77207	712.21002	 37.70	
  3.400	180.000	 91.72523	 28.63879	 51.82852	 41.39173	 37.25085	  0.94753	 91.84165	712.28003	 37.80	
  3.388	-152.325	 91.74353	 29.57913	 50.98435	 36.63800	 42.19370	  0.95814	 91.80771	712.21002	 37.90	
  3.397	-124.529	 91.77912	 32.48869	 48.10180	 32.66943	 46.25922	  1.02091	 91.79865	712.16998	 37.90	
  3.399	-96.763	 91.89630	 37.06490	 42.86743	 30.97532	 48.32458	  1.11901	 91.87138	712.09998	 38.00	
  3.394	-69.283	 91.95245	 41.67376	 38.28093	 31.45078	 47.90603	  1.20260	 91.88657	712.23999	 38.00	
  3.400	-41.398	 91.98522	 45.84344	 35.06726	 34.08646	 45.18948	  1.34585	 91.88096	712.20001	 38.10	
  3.401	-14.021	 91.96068	 48.21859	 33.02692	 38.47069	 40.82019	  1.44734	 91.83817	712.22998	 38.10	
  3.401	 14.021	 91.95939	 48.38394	 32.73009	 43.32602	 35.82018	  1.50602	 91.84589	712.26001	 38.20	
  3.400	 41.398	 91.93227	 46.18989	 34.34313	 47.67524	 31.81584	  1.51553	 91.85857	712.16998	 38.20	
  3.394	 69.283	 91.90480	 42.23402	 37.17819	 50.59922	 29.13814	  1.42747	 91.86815	712.19000	 38.30	
  3.399	 96.763	 91.85452	 37.67376	 41.62572	 51.30731	 28.36257	  1.26775	 91.87757	712.26001	 38.30	
  3.397	124.529	 91.82301	 33.32710	 46.93670	 49.69982	 29.84508	  1.12224	 91.88117	712.15002	 38.40	
  3.388	152.325	 91.79599	 30.15765	 50.30622	 45.88437	 33.10682	  0.99687	 91.89167	712.15997	 38.40	
  5.099	161.165	 91.23618	 24.47538	 54.96337	 45.68184	 32.04683	  0.44290	 91.88066	712.21002	 38.50	
  5.109	142.013	 91.28510	 26.75092	 52.41739	 50.34214	 27.98719	  0.54035	 91.90713	712.26001	 38.60	
  5.095	123.033	 91.31133	 30.24360	 48.65360	 53.57217	 24.94844	  0.66246	 91.91282	712.26001	 38.60	
  5.105	104.191	 91.34741	 34.84372	 43.09452	 55.42976	 23.21724	  0.81829	 91.90976	712.19000	 38.60	
  5.093	 85.207	 91.40587	 39.62207	 38.40499	 55.65459	 23.08950	  1.00733	 91.89742	712.26001	 38.70	
  5.104	 66.290	 91.45894	 44.24586	 34.62976	 54.37285	 24.31593	  1.12668	 91.89937	712.17999	 38.70	
  5.094	 47.331	 91.58791	 48.56841	 31.26035	 51.63735	 27.10657	  1.21398	 91.95864	712.21997	 38.80	
  5.089	 28.397	 91.65572	 51.65835	 28.77286	 47.32577	 31.03085	  1.25137	 91.94337	712.28998	 38.80	
  5.096	  9.576	 91.72149	 53.36627	 27.65909	 42.50655	 35.55925	  1.21163	 91.95271	712.25000	 38.90	
  5.096	 -9.576	 91.73174	 53.18875	 27.93859	 37.36509	 40.61971	  1.15213	 91.94946	712.29999	 38.90	
  5.089	-28.397	 91.72865	 51.14447	 29.68088	 32.67289	 45.49962	  1.05095	 91.93928	712.22998	 39.00	
  5.094	-47.331	 91.72243	 47.83030	 32.61114	 29.41451	 49.55186	  0.89845	 91.95660	712.27002	 39.00	
  5.104	-66.290	 91.66551	 43.35588	 36.17649	 27.38832	 52.16790	  0.78797	 91.94343	712.28003	 39.00	
  5.093	-85.207	 91.58788	 38.51236	 40.41525	 26.57419	 53.04779	  0.70981	 91.94537	712.27002	 39.10	
  5.105	-104.191	 91.52892	 33.63393	 45.22088	 27.02386	 52.40560	  0.60190	 91.96672	712.26001	 39.10	
  5.095	-123.033	 91.46716	 29.18712	 50.55123	 28.89851	 50.06108	  0.54599	 91.98244	712.22998	 39.10	
  5.109	-142.013	 91.37118	 25.79185	 53.96028	 31.32448	 46.25924	  0.47128	 91.98245	712.40002	 39.20	
  5.099	-161.165	 91.29872	 23.75004	 56.01479	 35.81509	 41.42545	  0.43609	 91.96361	712.27002	 39.20	
  5.100	180.000	 91.21790	 23.15475	 56.52870	 40.97822	 36.34730	  0.42906	 91.94480	712.25000	 39.30	
  6.800	180.000	 90.32601	 18.47291	 60.68153	 40.27941	 35.24719	 -0.20275	 91.98000	712.28003	 39.30	
  6.796	-166.229	 90.36131	 18.83255	 60.34724	 35.16976	 40.08821	 -0.19513	 91.96623	712.28998	 39.40	
  6.808	-152.311	 90.41747	 20.02799	 58.89075	 30.92892	 45.01447	 -0.18962	 91.93783	712.38000	 39.40	
  6.795	-138.383	 90.56084	 22.25391	 56.38489	 27.69023	 49.48350	 -0.12529	 91.99352	712.28998	 39.40	
  6.792	-124.591	 90.65562	 25.43177	 53.03320	 24.71488	 53.01851	 -0.10509	 91.98300	712.23999	 39.50	
  6.787	-110.754	 90.74022	 29.35896	 48.91113	 22.51179	 55.51357	 -0.08574	 91.98717	712.33002	 39.50	
  6.800	-96.985	 90.83198	 34.00203	 43.36294	 21.21961	 56.98763	 -0.00874	 92.00059	712.23999	 39.50	
  6.800	-83.015	 90.90131	 38.79766	 38.64674	 21.07469	 57.28247	  0.06631	 91.96678	712.20001	 39.60	
  6.787	-69.246	 91.00824	 43.53057	 34.99448	 22.09620	 56.34328	  0.15646	 91.95979	712.26001	 39.60	
  6.792	-55.409	 91.10557	 48.03870	 31.12063	 24.02563	 54.41346	  0.24778	 92.00156	712.29999	 39.60	
  6.795	-41.617	 91.17435	 51.96876	 27.73835	 26.79629	 51.30923	  0.35070	 92.03010	712.25000	 39.70	
  6.808	-27.689	 91.19118	 55.33015	 25.12797	 30.15232	 47.12873	  0.49791	 92.02548	712.28003	 39.70	
  6.796	-13.771	 91.16183	 57.23326	 23.45057	 34.16382	 42.33073	  0.62594	 91.99830	712.31000	 39.70	
  6.800	  0.000	 91.10890	 57.97049	 22.62525	 39.13847	 37.32664	  0.70887	 91.98665	712.19000	 39.80	
  6.796	 13.771	 91.05818	 57.48419	 22.84798	 43.97817	 32.67544	  0.76262	 91.95831	712.22998	 39.80	
  6.808	 27.689	 90.99249	 55.80957	 24.04666	 48.68389	 28.21945	  0.82414	 91.98280	712.34998	 39.80	
  6.795	 41.617	 90.93025	 52.81424	 26.21953	 53.06745	 24.29590	  0.80890	 92.02750	712.28003	 39.90	
  6.792	 55.409	 90.86533	 49.04636	 29.22789	 56.31495	 21.16683	  0.70848	 92.04591	712.31000	 39.90	
  6.787	 69.246	 90.71296	 44.60950	 32.84550	 58.65344	 18.89635	  0.60012	 91.97850	712.28003	 39.90	
  6.800	 83.015	 90.61874	 39.93180	 36.25336	 59.96514	 17.57740	  0.49153	 91.97039	712.21997	 40.00	
  6.800	 96.985	 90.63824	 35.18803	 40.94677	 60.17918	 17.39512	  0.30622	 92.06637	712.25000	 40.00	
  6.787	110.754	 90.54180	 30.63242	 45.54748	 59.01609	 18.38899	  0.18050	 92.01790	712.26001	 40.10	
  6.792	124.591	 90.48577	 26.52411	 50.88773	 56.87021	 20.19320	  0.06141	 91.98594	712.34003	 40.10	
  6.795	138.383	 90.44609	 23.15552	 54.57888	 53.87346	 22.93913	 -0.03766	 91.98505	712.26001	 40.10	
  6.808	152.311	 90.46613	 20.74583	 57.55281	 49.77216	 26.67096	 -0.14605	 92.03000	712.27002	 40.10	
  6.796	166.229	 90.52928	 19.45606	 59.54876	 45.07256	 31.00836	 -0.18713	 92.07393	712.16998	 40.20	
  8.491	168.704	 89.19736	 14.44753	 63.63566	 44.21030	 29.51932	 -0.91488	 92.00526	712.22998	 40.20	
  8.502	157.493	 89.19494	 15.75979	 61.93390	 48.94956	 25.11028	 -0.88866	 92.01536	712.28003	 40.20	
  8.494	146.194	 89.19524	 17.72557	 59.29510	 53.58165	 20.91939	 -1.12790	 91.98287	712.35999	 40.20	
  8.495	135.039	 89.29321	 20.11565	 56.04847	 57.29638	 17.75563	 -0.70350	 92.05416	712.31000	 40.20	
  8.487	123.723	 89.29830	 23.45077	 51.95927	 60.31587	 15.16300	 -0.62905	 91.99424	712.21997	 40.20	
  8.492	112.575	 89.35567	 27.37883	 46.67587	 62.53326	 13.35046	 -0.51526	 92.02463	712.28998	 40.30	
  8.510	101.220	 89.37804	 31.91192	 41.93272	 63.85362	 12.28170	 -0.37765	 91.99020	712.37000	 40.30	
  8.500	 90.000	 89.48701	 36.78481	 37.22070	 64.20448	 12.06802	 -0.23723	 92.02935	712.34998	 40.30	
  8.510	 78.780	 89.49413	 41.55330	 33.35511	 63.57575	 12.55551	 -0.09012	 91.97918	712.40002	 40.30	
  8.492	 67.425	 89.63059	 46.43431	 29.33030	 61.92626	 14.07318	  0.01096	 92.01312	712.29999	 40.40	
  8.487	 56.277	 89.76530	 50.76902	 25.76515	 59.50607	 16.24371	  0.11241	 92.03385	712.31000	 40.40	
  8.495	 44.961	 89.84587	 54.95077	 22.70990	 56.28520	 19.27267	  0.20977	 92.02380	712.29999	 40.40	
  8.494	 33.806	 89.93611	 58.11627	 20.29520	 52.32781	 22.97203	  0.24956	 91.98800	712.28003	 40.40	
  8.502	 22.507	 90.02058	 60.41028	 18.43742	 47.63254	 27.14364	  0.21843	 91.99486	712.26001	 40.50	
  8.491	 11.296	 90.10600	 61.71367	 17.56798	 42.73907	 31.85513	  0.15166	 91.98808	712.34998	 40.50	
  8.500	  0.000	 90.10349	 61.99902	 17.43015	 37.55399	 36.54383	  0.08267	 91.95592	712.32001	 40.50	
  8.491	-11.296	 90.17979	 61.30901	 18.26868	 32.78770	 41.55319	 -0.02790	 91.96434	712.22998	 40.60	
  8.502	-22.507	 90.17695	 59.80085	 19.72022	 28.83059	 46.46474	 -0.19443	 91.96077	712.28998	 40.60	
  8.494	-33.806	 90.22089	 57.27378	 21.95734	 25.20583	 50.99300	 -0.31367	 91.98351	712.20001	 40.60	
  8.495	-44.961	 90.16517	 53.55077	 24.73674	 21.86557	 54.75744	 -0.43585	 91.95074	712.17999	 40.60	
  8.487	-56.277	 90.10220	 49.38150	 28.20375	 19.03046	 57.61103	 -0.52813	 91.95982	712.21997	 40.70	
  8.492	-67.425	 90.04772	 44.88783	 32.10590	 16.89837	 59.94230	 -0.64247	 91.98655	712.23999	 40.70	
  8.510	-78.780	 89.85482	 39.98230	 36.22432	 15.50574	 61.28730	 -0.73479	 91.92809	712.27002	 40.70	
  8.500	-90.000	 89.77463	 35.15745	 40.25109	 15.19817	 61.50682	 -0.73420	 91.94902	712.22998	 40.70	
  8.510	-101.220	 89.69496	 30.32890	 45.00567	 15.81844	 60.69769	 -0.80996	 91.97714	712.23999	 40.70	
  8.492	-112.575	 89.55311	 25.93063	 50.52994	 17.38127	 58.73035	 -0.86495	 91.94705	712.31000	 40.70	
  8.487	-123.723	 89.51361	 22.15740	 54.64687	 19.61483	 56.08892	 -0.85544	 91.98837	712.34003	 40.70	
  8.495	-135.039	 89.43656	 19.03422	 58.26209	 22.57002	 52.79402	 -0.83573	 92.02324	712.23999	 40.80	
  8.494	-146.194	 89.32517	 16.80712	 61.14031	 26.16865	 48.58072	 -1.00999	 92.00886	712.25000	 40.80	
  8.502	-157.493	 89.16177	 14.90314	 63.23791	 30.14985	 43.77093	 -0.93193	 91.93937	712.26001	 40.80	
  8.491	-168.704	 89.17053	 13.89419	 64.45972	 34.02266	 38.75119	 -0.92258	 92.02471	712.27002	 40.80	
  8.500	180.000	 89.03589	 13.48953	 64.64912	 39.12875	 33.89957	 -0.95051	 91.93224	712.23999	 40.80	
 10.200	180.000	 87.55207	  8.38344	 68.59928	 37.79565	 32.43876	 -1.76400	 91.99679	712.22998	 40.80	
 10.191	-170.497	 87.56796	  8.63586	 68.41796	 32.92147	 37.24632	 -1.70446	 91.98853	712.26001	 40.80	
 10.210	-161.034	 87.57767	  9.43003	 67.44187	 28.88424	 42.24314	 -1.74780	 91.93487	712.32001	 40.80	
 10.194	-151.526	 87.71555	 11.00485	 65.48392	 24.63324	 47.10337	 -1.85731	 91.95238	712.29999	 40.90	
 10.190	-142.105	 87.81874	 13.16170	 62.97630	 20.71379	 51.76278	 -1.94275	 91.96743	712.33002	 40.90	
 10.215	-132.646	 87.89059	 15.89056	 59.79937	 17.12447	 55.79599	 -1.62808	 91.95594	712.32001	 40.90	
 10.203	-123.092	 88.02065	 18.99471	 56.01336	 14.21664	 59.16388	 -1.83642	 91.96036	711.53998	 40.90	
 10.192	-113.678	 88.11790	 22.57232	 51.69582	 12.06227	 61.95016	 -1.70401	 91.94345	712.26001	 41.00	
 10.208	-104.249	 88.22754	 26.66518	 46.38959	 10.54557	 63.95369	 -1.85057	 91.94915	712.34998	 41.00	
 10.210	-94.801	 88.36395	 31.30338	 41.63038	  9.70927	 65.15491	 -1.56071	 91.93462	712.12000	 41.00	
 10.210	-85.199	 88.48284	 36.34527	 37.37037	  9.60411	 65.50475	 -1.55206	 91.96613	712.20001	 41.00	
 10.208	-75.751	 88.52637	 41.21203	 33.02271	 10.21327	 64.86015	 -1.61260	 91.88559	711.54999	 41.00	
 10.192	-66.322	 88.67218	 45.97615	 28.80574	 11.52332	 63.40363	 -1.52103	 91.93848	712.29999	 41.10	
 10.203	-56.908	 88.75107	 50.53830	 24.97552	 13.55138	 61.10045	 -1.44301	 91.92008	712.22998	 41.10	
 10.215	-47.354	 88.85604	 54.92009	 21.52700	 16.20230	 58.10027	 -1.37837	 91.98631	712.32001	 41.10	
 10.190	-37.895	 88.98130	 58.91741	 18.62605	 19.61557	 54.60820	 -1.24122	 92.01413	712.28003	 41.20	
 10.194	-28.474	 88.92428	 61.71300	 16.19562	 23.32030	 50.30621	 -1.14843	 91.93307	712.29999	 41.20	
 10.210	-18.966	 88.92833	 63.87505	 14.18587	 27.28369	 45.52978	 -1.00092	 91.95896	712.38000	 41.20	
 10.191	 -9.503	 88.88629	 65.35159	 13.01600	 31.76187	 40.41373	 -0.81091	 91.92276	712.42999	 41.20	
 10.200	  0.000	 88.78365	 66.01474	 12.37258	 36.19256	 35.42458	 -0.72315	 91.88527	712.41998	 41.20	
 10.191	  9.503	 88.75584	 65.72637	 12.38737	 41.22331	 30.61509	 -0.61597	 91.89828	712.46002	 41.30	
 10.210	 18.966	 88.65958	 64.52251	 13.00896	 46.29657	 25.97018	 -0.56252	 91.91873	712.46002	 41.30	
 10.194	 28.474	 88.52725	 62.42495	 14.48097	 50.99857	 21.49060	 -0.48998	 91.86799	712.31000	 41.30	
 10.190	 37.895	 88.44481	 59.85353	 16.53352	 55.46109	 17.56590	 -0.52169	 91.89079	712.32001	 41.30	
 10.215	 47.354	 88.28709	 56.36661	 19.08159	 59.31283	 14.16817	 -0.59523	 91.90815	712.28003	 41.30	
 10.203	 56.908	 88.18520	 51.93717	 22.20661	 62.52517	 11.44916	 -0.66510	 91.90395	712.34998	 41.40	
 10.192	 66.322	 88.12162	 47.53853	 25.80346	 65.01479	  9.36137	 -0.77987	 91.96803	712.39001	 41.40	
 10.208	 75.751	 87.93927	 42.77759	 29.78519	 66.75650	  7.79119	 -0.87578	 91.87805	712.40002	 41.40	
 10.210	 85.199	 87.87527	 37.95357	 33.98374	 67.73246	  6.93702	 -1.03074	 91.91225	711.96002	 41.40	
 10.210	 94.801	 87.76852	 32.98126	 38.09225	 67.85121	  6.80220	 -1.18394	 91.89083	712.28998	 41.40	
 10.208	104.249	 87.71664	 28.22039	 42.92229	 67.19761	  7.33554	 -1.60844	 91.89568	712.34003	 41.40	
 10.192	113.678	 87.68135	 23.87818	 47.61190	 65.70091	  8.60233	 -1.42244	 91.91123	711.59998	 41.40	
 10.203	123.092	 87.62056	 20.13031	 52.86689	 63.47285	 10.23746	 -1.72068	 91.90202	712.33002	 41.50	
 10.215	132.646	 87.58966	 16.94699	 57.15873	 60.50073	 12.60014	 -1.63035	 91.92514	712.28998	 41.50	
 10.190	142.105	 87.55598	 14.17951	 60.70084	 56.81657	 15.56335	 -2.20794	 91.88109	712.34998	 41.50	
 10.194	151.526	 87.48872	 11.89878	 63.61152	 52.58368	 18.99548	 -1.78638	 91.84113	711.63000	 41.50	
 10.210	161.034	 87.52421	 10.14636	 65.95579	 48.00979	 22.94564	 -2.31389	 91.91240	712.29999	 41.50	
 10.191	170.497	 87.54487	  8.99506	 67.68847	 43.14613	 27.63592	 -1.79928	 91.91383	711.63000	 41.50	
 11.899	171.783	 85.60814	  3.75131	 70.77709	 41.55251	 25.91441	 -2.97622	 91.83843	711.65997	 41.60	
 11.890	163.610	 85.64314	  4.80912	 69.72163	 46.54393	 21.37744	 -3.15868	 91.85426	711.64001	 41.60	
 11.889	155.445	 85.66773	  6.30358	 67.68055	 51.29713	 17.29103	 -3.22802	 91.86272	712.34998	 41.60	
 11.909	147.299	 85.63100	  8.20944	 64.81576	 55.80693	 13.72060	 -3.11854	 91.83322	711.76001	 41.70	
 11.902	139.148	 85.70129	 10.65182	 61.58412	 59.89118	 10.43486	 -3.07739	 91.87749	712.21997	 41.70	
 11.894	130.867	 85.74419	 13.81423	 57.71807	 63.42638	  7.65022	 -2.82018	 91.86823	712.04999	 41.70	
 11.897	122.732	 85.84893	 17.25265	 53.39558	 66.32177	  5.40392	 -2.95032	 91.89178	712.21997	 41.70	
 11.903	114.597	 85.84821	 20.76922	 48.17114	 68.57136	  3.74446	 -2.29691	 91.85999	711.56000	 41.70	
 11.893	106.346	 85.94330	 24.89674	 43.46115	 70.16559	  2.60016	 -2.95825	 91.89698	711.65002	 41.70	
 11.892	 98.155	 85.97884	 29.52633	 38.52323	 71.15472	  1.89223	 -2.18809	 91.87468	711.65002	 41.70	
 11.900	 90.000	 86.03439	 34.27470	 34.47369	 71.36870	  1.64048	 -2.04633	 91.86539	711.63000	 41.80	
 11.892	 81.845	 86.15785	 39.13961	 30.13427	 70.77708	  2.14586	 -2.11727	 91.89100	711.59998	 41.80	
 11.893	 73.654	 86.17031	 44.00978	 25.82391	 69.42761	  3.19988	 -1.81624	 91.78161	712.01001	 41.80	
 11.903	 65.403	 86.33173	 48.77982	 21.81636	 67.58598	  4.72870	 -2.50496	 91.87410	711.60999	 41.90	
 11.897	 57.268	 86.38411	 53.17241	 18.34765	 65.07748	  6.81772	 -1.95795	 91.83140	711.65997	 41.90	
 11.894	 49.133	 86.51421	 57.72155	 15.25845	 61.96250	  9.45572	 -1.50864	 91.84247	711.62000	 41.90	
 11.902	 40.852	 86.60248	 61.44308	 12.54404	 58.20618	 12.56321	 -1.46178	 91.81971	711.52002	 41.90	
 11.909	 32.701	 86.72129	 64.28392	 10.42488	 53.84245	 16.05877	 -1.40137	 91.77659	711.69000	 41.90	
 11.889	 24.555	 86.85728	 66.78250	  8.80573	 49.34313	 19.99952	 -1.36160	 91.78802	711.51001	 41.90	
 11.890	 16.390	 87.02685	 68.28243	  7.79412	 44.48000	 24.54614	 -1.48563	 91.84216	711.56000	 41.90	
 11.899	  8.217	 87.11594	 69.28587	  7.28390	 39.40503	 29.31044	 -1.53525	 91.81839	711.57001	 41.90	
 11.900	  0.000	 87.10296	 69.53671	  7.21775	 34.64608	 34.19197	 -1.62831	 91.78632	711.59003	 41.90	
 11.899	 -8.217	 87.16836	 68.98715	  7.82526	 29.99934	 39.16449	 -1.89581	 91.80984	711.56000	 41.90	
 11.890	-16.390	 87.25751	 67.95441	  8.98270	 25.56117	 44.28508	 -1.97758	 91.84790	711.52002	 42.00	
 11.889	-24.555	 87.23418	 65.85974	 10.64957	 21.39805	 49.09953	 -2.25246	 91.81200	711.60999	 42.00	
 11.909	-32.701	 87.20325	 63.19482	 12.68670	 17.41990	 53.68986	 -2.36349	 91.82573	711.50000	 42.00	
 11.902	-40.852	 87.12115	 60.07220	 15.11410	 13.81845	 57.62969	 -2.29360	 91.78750	711.56000	 42.00	
 11.894	-49.133	 87.13314	 55.85887	 18.26705	 10.81182	 61.13216	 -2.53382	 91.83550	711.46002	 42.00	
 11.897	-57.268	 87.05529	 51.38541	 21.72722	  8.44836	 64.08382	 -2.54551	 91.81945	711.59998	 42.00	
 11.903	-65.403	 86.97702	 46.83754	 25.54840	  6.68361	 66.43415	 -2.58199	 91.82084	711.65002	 42.10	
 11.893	-73.654	 86.86339	 42.04123	 29.65067	  5.37730	 68.03977	 -2.41256	 91.80425	711.53003	 42.10	
 11.892	-81.845	 86.71671	 37.06939	 34.09444	  4.58799	 69.04125	 -2.34811	 91.77651	711.59998	 42.10	
 11.900	-90.000	 86.62119	 32.32720	 38.49731	  4.38939	 69.22527	 -2.29890	 91.81477	711.46002	 42.10	
 11.892	-98.155	 86.50743	 27.43513	 42.72543	  4.82040	 68.41914	 -2.42156	 91.79235	711.59998	 42.10	
 11.893	-106.346	 86.34184	 23.06896	 47.44548	  5.66506	 66.88734	 -2.61891	 91.77927	711.53998	 42.20	
 11.903	-114.597	 86.24905	 19.17180	 52.66641	  7.11435	 64.74910	 -2.56814	 91.78637	711.57001	 42.20	
 11.897	-122.732	 86.12477	 15.75429	 57.03486	  9.13779	 61.86714	 -2.66041	 91.78233	711.51001	 42.20	
 11.894	-130.867	 85.98781	 12.32152	 60.88863	 11.62614	 58.45273	 -2.35495	 91.77441	711.51001	 42.20	
 11.902	-139.148	 85.89293	  9.45473	 64.32648	 14.89994	 54.66127	 -2.60916	 91.81959	711.56000	 42.20	
 11.909	-147.299	 85.77498	  7.12758	 67.18998	 18.76708	 50.16141	 -2.73386	 91.77801	711.53998	 42.20	
 11.889	-155.445	 85.67662	  5.43661	 69.39841	 22.98618	 45.33576	 -2.84137	 91.78407	711.50000	 42.20	
 11.890	-163.610	 85.57899	  4.16461	 70.61619	 27.38473	 40.37104	 -2.79139	 91.79047	711.52002	 42.30	
 11.899	-171.783	 85.52552	  3.33609	 71.52821	 31.90794	 35.44585	 -2.65643	 91.82207	711.69000	 42.30	
 11.900	180.000	 85.47393	  3.13782	 71.61194	 36.31925	 30.50509	 -2.91514	 91.80512	711.63000	 42.30	
 13.600	180.000	 83.28036	 -1.94591	 75.03242	 34.97810	 28.58882	 -3.62651	 91.82384	711.58002	 42.30	
 13.608	-172.853	 83.31725	 -1.80150	 75.07299	 30.49212	 33.29277	 -3.52940	 91.84285	711.53998	 42.30	
 13.611	-165.583	 83.32635	 -1.18416	 74.23726	 25.73300	 38.31880	 -3.50556	 91.79572	711.63000	 42.30	
 13.601	-158.353	 83.43015	 -0.12588	 72.86034	 21.28990	 43.30543	 -3.36009	 91.77797	711.58002	 42.30	
 13.609	-151.210	 83.55085	  1.32890	 71.04704	 16.96813	 48.23281	 -3.19951	 91.78848	711.56000	 42.40	
 13.611	-143.999	 83.67205	  3.30016	 68.67008	 12.90028	 53.00818	 -3.07632	 91.77415	711.58002	 42.40	
 13.601	-136.825	 83.79661	  5.75303	 65.42300	  9.49638	 57.23082	 -2.97815	 91.78371	711.57001	 42.40	
 13.596	-129.640	 83.92602	  8.61775	 61.90554	  6.67261	 60.95328	 -2.95361	 91.77751	711.47998	 42.40	
 13.611	-122.431	 84.00576	 11.92743	 57.96240	  4.22924	 64.51450	 -3.03695	 91.77962	711.52002	 42.40	
 13.604	-115.211	 84.10298	 15.66377	 53.35308	  2.18183	 67.43185	 -3.02682	 91.74002	711.47998	 42.40	
 13.595	-108.042	 84.20971	 19.49259	 48.35193	  0.58680	 69.80386	 -3.02618	 91.75072	711.53003	 42.40	
 13.607	-100.793	 84.34431	 23.49843	 43.63340	 -0.43717	 71.57413	 -2.94442	 91.75273	711.46997	 42.50	
 13.601	-93.617	 84.45341	 27.87683	 39.28655	 -0.92561	 72.53967	 -2.88115	 91.70431	711.45001	 42.50	
 13.601	-86.383	 84.52963	 32.97086	 34.67550	 -1.05695	 72.86584	 -2.91054	 91.68701	711.53998	 42.50	
 13.607	-79.207	 84.63631	 37.47004	 30.31235	 -0.84224	 72.49567	 -3.06395	 91.69574	711.53003	 42.50	
 13.595	-71.958	 84.80844	 42.53391	 25.97899	  0.12385	 71.35895	 -3.14930	 91.70156	711.59998	 42.50	
 13.604	-64.789	 84.90081	 47.33957	 21.99165	  1.52435	 69.57333	 -3.18241	 91.74393	711.54999	 42.50	
 13.611	-57.569	 85.00851	 51.95498	 18.21232	  3.29101	 67.14831	 -3.14117	 91.73979	711.58002	 42.50	
 13.596	-50.360	 85.05960	 56.52952	 14.70569	  5.42359	 64.05968	 -3.13317	 91.69891	711.54999	 42.50	
 13.601	-43.175	 85.10533	 60.87594	 11.59567	  8.00126	 60.60928	 -3.15453	 91.71012	711.52002	 42.50	
 13.611	-36.001	 85.08900	 64.26606	  8.99462	 11.20078	 56.83084	 -3.20952	 91.64530	711.56000	 42.50	
 13.609	-28.790	 85.18009	 67.31538	  6.81042	 15.03436	 52.45376	 -3.25292	 91.69011	711.60999	 42.50	
 13.601	-21.647	 85.22179	 69.49071	  4.93739	 19.15446	 47.67904	 -3.19754	 91.70496	711.58002	 42.60	
 13.611	-14.417	 85.15202	 71.40408	  3.42593	 23.48225	 42.66352	 -3.06751	 91.68888	711.62000	 42.50	
 13.608	 -7.147	 85.12849	 72.51259	  2.43401	 28.12421	 37.60259	 -2.97510	 91.71284	711.66998	 42.60	
 13.600	  0.000	 85.07558	 72.97781	  2.01864	 32.79076	 32.69247	 -2.78917	 91.68006	711.71002	 42.60	
 13.608	  7.147	 85.07253	 72.81664	  2.00932	 37.17751	 27.96950	 -3.00244	 91.68765	711.70001	 42.60	
 13.611	 14.417	 84.98593	 71.93446	  2.43107	 42.38481	 23.15323	 -3.08549	 91.71276	711.71002	 42.60	
 13.601	 21.647	 84.84076	 70.33888	  3.25128	 47.38480	 18.55511	 -2.89516	 91.66687	711.60999	 42.60	
 13.609	 28.790	 84.75261	 68.42295	  4.65444	 52.04216	 14.58521	 -2.69472	 91.69691	711.59003	 42.60	
 13.611	 36.001	 84.53790	 65.57921	  6.43354	 56.72303	 10.71830	 -3.03002	 91.65363	711.54999	 42.60	
 13.601	 43.175	 84.42297	 62.40705	  8.67442	 60.76968	  7.32489	 -2.74930	 91.67131	711.57001	 42.70	
 13.596	 50.360	 84.29310	 58.56627	 11.37440	 64.33080	  4.37779	 -3.21384	 91.67800	711.58002	 42.70	
 13.611	 57.569	 84.16924	 53.88144	 14.44601	 67.48035	  1.77803	 -3.47291	 91.70097	711.59998	 42.70	
 13.604	 64.789	 84.05556	 49.33395	 17.91386	 69.97701	 -0.24778	 -3.52821	 91.68385	711.41998	 42.70	
 13.595	 71.958	 83.91994	 44.63474	 21.74064	 72.11250	 -1.78530	 -3.49129	 91.66437	711.59998	 42.70	
 13.607	 79.207	 83.81066	 39.69809	 26.01458	 73.36015	 -2.99369	 -3.49579	 91.69003	711.59998	 42.70	
 13.601	 86.383	 83.72212	 34.78823	 30.37371	 74.23797	 -3.53319	 -3.62266	 91.65728	711.51001	 42.70	
 13.601	 93.617	 83.58868	 30.52884	 34.86292	 74.37833	 -3.69597	 -3.76750	 91.63051	711.56000	 42.80	
 13.607	100.793	 83.55498	 25.36834	 38.93994	 73.88599	 -3.39898	 -3.90818	 91.67525	711.58002	 42.80	
 13.595	108.042	 83.50681	 21.06532	 43.81220	 72.90447	 -2.62989	 -4.01481	 91.66998	711.56000	 42.80	
 13.604	115.211	 83.40595	 17.30841	 48.45348	 71.15522	 -1.38650	 -3.96709	 91.61654	711.58002	 42.80	
 13.611	122.431	 83.40536	 13.42656	 53.39009	 68.77348	  0.26443	 -3.90084	 91.63953	711.58002	 42.80	
 13.596	129.640	 83.31084	  9.90041	 58.13831	 65.86604	  2.42252	 -3.89605	 91.64310	711.51001	 42.90	
 13.601	136.825	 83.29546	  6.80821	 62.02442	 62.57227	  4.92189	 -3.96860	 91.68558	711.46997	 42.90	
 13.611	143.999	 83.22649	  4.16445	 65.54289	 58.65900	  8.01238	 -4.12687	 91.63642	711.47998	 42.90	
 13.609	151.210	 83.18894	  1.91216	 68.82634	 54.12220	 11.56573	 -4.17200	 91.63258	711.62000	 42.90	
 13.601	158.353	 83.14083	  0.21470	 71.01237	 49.52832	 15.30237	 -4.07756	 91.61458	711.57001	 42.90	
 13.611	165.583	 83.07870	 -0.86273	 72.88480	 44.57604	 19.27089	 -3.94600	 91.57232	711.53998	 42.90	
 13.608	172.853	 83.13043	 -1.47436	 74.19581	 39.39142	 23.75802	 -3.79010	 91.62302	711.57001	 42.90	
 15.298	173.587	 80.64905	 -7.64143	 77.25645	 37.40010	 21.85435	 -4.24247	 91.63903	711.51001	 43.00	
 15.291	167.167	 80.60863	 -6.94240	 76.06444	 42.44588	 17.50847	 -4.47632	 91.58207	711.57001	 43.00	
 15.307	160.676	 80.68317	 -5.89083	 74.36249	 47.55526	 13.32581	 -4.68191	 91.63719	711.65002	 43.00	
 15.300	154.261	 80.69729	 -4.36501	 71.99108	 52.30405	  9.46351	 -4.80754	 91.61467	711.58002	 43.00	
 15.288	147.854	 80.72221	 -2.41021	 69.55787	 56.94354	  5.84905	 -4.90186	 91.61225	711.58002	 43.00	
 15.293	141.428	 80.82138	  0.04671	 66.06704	 61.26099	  2.71914	 -4.80498	 91.65419	711.67999	 43.00	
 15.299	134.985	 80.83052	  2.80651	 62.31870	 64.98769	 -0.15695	 -4.73101	 91.62869	711.63000	 43.00	
 15.305	128.583	 80.83064	  6.00797	 58.28670	 68.29167	 -2.67079	 -4.68379	 91.59286	711.59998	 43.00	
 15.309	122.142	 80.88918	  9.61350	 53.40604	 71.15798	 -4.85083	 -4.72686	 91.59336	711.65002	 43.00	
 15.304	115.711	 80.94592	 13.62703	 48.56146	 73.71353	 -6.52437	 -4.82458	 91.59732	711.66998	 43.00	
 15.297	109.291	 81.01167	 17.84256	 43.81581	 75.29741	 -7.81666	 -4.91013	 91.60253	711.67999	 43.00	
 15.293	102.897	 81.07502	 21.64372	 39.46021	 76.63393	 -8.73767	 -4.87325	 91.63667	711.72998	 43.00	
 15.293	 96.458	 81.14857	 27.13402	 34.89409	 77.24982	 -8.97385	 -4.68707	 91.58464	711.71002	 43.10	
 15.300	 90.000	 81.27242	 31.60554	 30.50434	 77.44617	 -8.92099	 -4.53623	 91.63100	711.77002	 43.10	
 15.293	 83.542	 81.32653	 36.13433	 26.08612	 76.92377	 -8.93212	 -4.43781	 91.57397	711.65002	 43.10	
 15.293	 77.103	 81.44684	 40.38767	 21.63753	 75.89955	 -8.09735	 -4.42074	 91.58484	711.57001	 43.10	
 15.297	 70.709	 81.56592	 45.23198	 17.52789	 74.26846	 -6.88814	 -4.43525	 91.63475	711.59003	 43.10	
 15.304	 64.289	 81.74406	 49.97318	 13.74656	 72.33795	 -5.19307	 -4.44644	 91.67828	711.69000	 43.10	
 15.309	 57.858	 81.78020	 54.54038	 10.17587	 69.61210	 -3.11659	 -4.32758	 91.62754	711.62000	 43.20	
 15.305	 51.417	 81.92661	 59.26992	  7.19303	 66.54111	 -0.52279	 -4.11045	 91.63145	711.64001	 43.20	
 15.299	 45.015	 82.05971	 63.22522	  4.53021	 63.00230	  2.34203	 -3.93866	 91.61624	711.54999	 43.20	
 15.293	 38.572	 82.18362	 66.60225	  2.20926	 59.08178	  5.48055	 -3.85387	 91.59928	711.69000	 43.20	
 15.288	 32.146	 82.37074	 69.36219	  0.25953	 54.60120	  8.96179	 -3.78097	 91.66063	711.72998	 43.20	
 15.300	 25.739	 82.44389	 71.96338	 -1.30919	 49.95557	 12.87209	 -3.88514	 91.61723	711.54999	 43.20	
 15.307	 19.324	 82.60091	 73.93172	 -2.35629	 45.06399	 17.06143	 -3.94680	 91.63419	711.56000	 43.10	
 15.291	 12.833	 82.71377	 75.20896	 -2.98660	 39.86015	 21.55593	 -3.86337	 91.60580	711.70001	 43.20	
 15.298	  6.413	 82.78708	 75.91927	 -3.28043	 35.24104	 26.49981	 -3.69636	 91.56894	711.60999	 43.20	
 15.300	  0.000	 82.83121	 76.10395	 -3.12777	 30.66017	 31.04354	 -3.58953	 91.62563	711.58002	 43.20	
 15.298	 -6.413	 82.79519	 75.66073	 -2.85875	 26.02151	 35.87319	 -3.52781	 91.56714	711.65997	 43.20	
 15.291	-12.833	 82.87224	 74.65309	 -1.95531	 21.41873	 40.85288	 -3.56478	 91.59630	711.65997	 43.20	
 15.307	-19.324	 82.87052	 73.06102	 -0.78707	 16.98100	 45.91710	 -3.58286	 91.57450	711.71002	 43.20	
 15.300	-25.739	 82.84792	 70.78471	  0.86938	 12.77817	 50.80464	 -3.62907	 91.56931	711.62000	 43.30	
 15.288	-32.146	 82.84208	 68.23777	  2.91018	  9.06954	 55.42208	 -3.59089	 91.58490	711.73999	 43.30	
 15.293	-38.572	 82.78928	 65.00031	  5.25913	  5.72818	 59.50206	 -3.52938	 91.57057	711.67999	 43.30	
 15.299	-45.015	 82.71451	 61.36969	  7.89771	  2.74060	 63.22558	 -3.43445	 91.53838	711.67999	 43.30	
 15.305	-51.417	 82.66929	 56.82051	 10.96420	  0.09215	 66.79971	 -3.37813	 91.58623	711.59998	 43.30	
 15.309	-57.858	 82.53333	 52.29064	 14.40748	 -2.12290	 69.85203	 -3.34283	 91.56896	711.66998	 43.30	
 15.304	-64.289	 82.46374	 47.58764	 18.26286	 -3.85404	 72.29370	 -3.32689	 91.58348	711.67999	 43.30	
 15.297	-70.709	 82.35839	 42.74567	 22.25194	 -5.18039	 73.96836	 -3.29980	 91.50429	711.63000	 43.30	
 15.293	-77.103	 82.26582	 37.80942	 26.46799	 -6.08738	 75.19616	 -3.19031	 91.51218	711.71997	 43.30	
 15.293	-83.542	 82.15505	 33.45223	 30.86387	 -6.45845	 75.81753	 -3.07160	 91.51481	711.65997	 43.30	
 15.300	-90.000	 82.09517	 28.31944	 35.24383	 -6.44305	 75.87892	 -2.97941	 91.55725	711.67999	 43.40	
 15.293	-96.458	 81.99033	 23.98452	 39.87014	 -6.26112	 75.22131	 -3.01291	 91.58659	711.70001	 43.40	
 15.293	-102.897	 81.82468	 19.93382	 44.12947	 -5.54173	 73.95608	 -3.04171	 91.55743	711.73999	 43.40	
 15.297	-109.291	 81.66718	 15.68427	 48.80188	 -4.51439	 72.18040	 -3.06013	 91.52886	711.67999	 43.40	
 15.304	-115.711	 81.54172	 11.67509	 53.47565	 -2.96166	 69.81151	 -3.07380	 91.53731	711.72998	 43.40	
 15.309	-122.142	 81.40533	  7.96447	 58.39757	 -0.92769	 66.76267	 -3.06077	 91.51975	711.72998	 43.40	
 15.305	-128.583	 81.33256	  4.62250	 62.42149	  1.39318	 63.32435	 -3.05510	 91.57539	711.78003	 43.40	
 15.299	-134.985	 81.23690	  1.70659	 66.03926	  4.25808	 59.45783	 -3.06787	 91.55972	711.75000	 43.40	
 15.293	-141.428	 81.17352	 -0.82817	 69.49859	  7.45042	 55.43063	 -3.17644	 91.58421	711.73999	 43.40	
 15.288	-147.854	 80.96122	 -3.08484	 71.91621	 10.95695	 50.81128	 -3.31301	 91.52669	711.83002	 43.40	
 15.300	-154.261	 80.83273	 -4.98207	 74.31200	 14.93440	 45.83662	 -3.46198	 91.51751	711.67999	 43.40	
 15.307	-160.676	 80.73457	 -6.35607	 76.03532	 19.30242	 40.87009	 -3.58298	 91.54319	711.71002	 43.50	
 15.291	-167.167	 80.70846	 -7.28460	 77.16644	 23.93497	 35.90804	 -3.71021	 91.58333	711.73999	 43.50	
 15.298	-173.587	 80.64850	 -7.66079	 77.70982	 28.67900	 30.87566	 -3.78249	 91.53440	711.76001	 43.50	
 15.300	180.000	 80.64030	 -7.64942	 77.75895	 32.97193	 26.32785	 -4.06091	 91.58341	711.75000	 43.50	
 17.000	180.000	 77.81888	-13.27919	 80.47163	 30.81878	 24.14373	 -4.23368	 91.58359	711.71002	 43.50	
 16.990	-174.179	 77.87399	-13.33260	 80.50156	 26.62022	 28.42044	 -3.88429	 91.53874	711.72998	 43.50	
 17.009	-168.383	 77.88416	-13.05645	 80.00114	 21.80548	 33.29408	 -3.69727	 91.53644	711.66998	 43.60	
 17.000	-162.596	 77.92818	-12.10308	 79.01327	 17.19354	 38.25357	 -3.52642	 91.52590	711.72998	 43.50	
 16.990	-156.759	 78.05902	-10.87601	 77.52451	 13.01757	 43.28952	 -3.39240	 91.55903	711.71997	 43.50	
 16.995	-150.919	 78.19712	 -9.34368	 75.46275	  9.00789	 48.32813	 -3.29613	 91.57014	711.73999	 43.50	
 16.988	-145.161	 78.33656	 -7.41099	 72.81315	  5.38256	 53.07274	 -3.17519	 91.49072	711.70001	 43.60	
 17.014	-139.343	 78.51000	 -5.17681	 70.26561	  1.97885	 57.58550	 -3.07091	 91.61701	711.73999	 43.60	
 17.007	-133.546	 78.56313	 -2.57651	 66.57991	 -1.11403	 61.53728	 -3.01604	 91.54974	711.81000	 43.60	
 17.001	-127.699	 78.70129	  0.32263	 62.81012	 -3.86514	 65.46703	 -2.96965	 91.57203	711.78003	 43.60	
 17.006	-121.937	 78.81342	  3.62585	 58.81741	 -6.06031	 68.89307	 -2.87198	 91.56677	711.77002	 43.60	
 17.002	-116.134	 78.96729	  7.36523	 53.93504	 -7.92900	 71.92099	 -2.88093	 91.56625	711.78003	 43.60	
 17.001	-110.310	 79.08935	 11.44312	 49.19219	 -9.44705	 74.36255	 -2.85720	 91.56447	711.84003	 43.60	
 16.988	-104.517	 79.23213	 15.70534	 44.47733	-10.61288	 76.35828	 -2.87726	 91.59754	711.71002	 43.60	
 17.008	-98.662	 79.28268	 20.11774	 40.12796	-11.66254	 77.83763	 -2.90852	 91.56542	711.73999	 43.60	
 16.996	-92.909	 79.43621	 24.16675	 35.38303	-12.13978	 78.70808	 -2.84429	 91.58776	711.78998	 43.70	
 16.996	-87.091	 79.56565	 28.49597	 31.10606	-12.04555	 79.01919	 -2.90359	 91.58897	711.78003	 43.60	
 17.012	-81.253	 79.65459	 32.97274	 26.92388	-12.03132	 78.84268	 -3.08425	 91.62341	711.73999	 43.70	
 16.988	-75.483	 79.84631	 38.71399	 22.57386	-11.40364	 78.02084	 -3.10048	 91.63190	711.62000	 43.70	
 17.001	-69.690	 79.87862	 42.84575	 18.37634	-10.29960	 76.65264	 -3.15819	 91.61453	711.57001	 43.70	
 17.002	-63.866	 79.96577	 47.74117	 14.33597	 -8.86534	 74.73910	 -3.20723	 91.63347	711.65997	 43.70	
 17.006	-58.063	 80.07725	 52.47833	 10.48430	 -7.20963	 72.43971	 -3.31769	 91.66570	711.65997	 43.70	
 17.001	-52.301	 80.12494	 56.85637	  7.02967	 -5.34936	 69.51620	 -3.35800	 91.64726	711.58002	 43.70	
 17.007	-46.454	 80.23476	 61.61025	  3.85177	 -2.99480	 66.01611	 -3.39357	 91.65796	711.62000	 43.70	
 17.014	-40.657	 80.28191	 65.57407	  0.99527	 -0.18979	 62.17192	 -3.50668	 91.67429	711.59003	 43.70	
 16.988	-34.839	 80.36328	 68.93764	 -1.34091	  3.10472	 58.21021	 -3.60888	 91.65535	711.63000	 43.70	
 16.995	-29.081	 80.36681	 71.67116	 -3.48260	  6.61576	 53.81805	 -3.71648	 91.62270	711.67999	 43.70	
 16.990	-23.241	 80.53154	 74.31950	 -5.16554	 10.59073	 48.98472	 -3.78761	 91.69493	711.60999	 43.80	
 17.000	-17.404	 80.58904	 76.33685	 -6.50824	 14.70875	 43.97750	 -3.84988	 91.69936	711.73999	 43.80	
 17.009	-11.617	 80.49374	 77.82712	 -7.71710	 19.00934	 39.03592	 -3.88446	 91.70574	711.62000	 43.80	
 16.990	 -5.821	 80.50475	 78.78188	 -8.35560	 23.77447	 34.04786	 -3.96982	 91.73096	711.73999	 43.80	
 17.000	  0.000	 80.43340	 79.16802	 -8.72334	 28.33335	 29.42146	 -4.13846	 91.72109	711.79999	 43.80	
 16.990	  5.821	 80.37535	 79.02335	 -9.05209	 32.89771	 24.66672	 -4.36126	 91.71297	711.83002	 43.80	
 17.009	 11.617	 80.27805	 78.43148	 -9.09511	 37.71860	 19.94384	 -4.57193	 91.71024	711.82001	 43.80	
 17.000	 17.404	 80.21589	 77.20027	 -8.45927	 42.37420	 15.65020	 -4.66516	 91.71075	711.77002	 43.80	
 16.990	 23.241	 80.07613	 75.43291	 -7.59553	 47.44174	 11.45018	 -4.62461	 91.68764	711.73999	 43.80	
 16.995	 29.081	 79.90353	 73.14661	 -6.40181	 52.27221	  7.40347	 -4.56501	 91.67258	711.77002	 43.80	
 16.988	 34.839	 79.79197	 70.34293	 -4.78767	 56.77348	  3.71754	 -4.62537	 91.73263	711.69000	 43.90	
 17.014	 40.657	 79.60580	 67.40775	 -2.77218	 61.17661	  0.26608	 -4.73071	 91.71016	711.77002	 43.90	
 17.007	 46.454	 79.47704	 63.82590	 -0.34202	 65.13991	 -2.94302	 -4.85419	 91.74042	711.66998	 43.90	
 17.001	 52.301	 79.31554	 59.66116	  2.41419	 68.64812	 -5.93971	 -4.99043	 91.73163	711.73999	 43.90	
 17.006	 58.063	 79.19549	 55.02896	  5.70960	 71.65341	 -8.50526	 -5.17736	 91.70370	711.71002	 43.90	
 17.002	 63.866	 79.12623	 50.48052	  9.28318	 74.41549	-10.83578	 -5.29602	 91.67368	711.78003	 43.90	
 17.001	 69.690	 79.05785	 45.76150	 13.17201	 76.47238	-12.69440	 -5.37637	 91.71774	711.78003	 43.80	
 16.988	 75.483	 78.92609	 40.82230	 17.27952	 78.23662	-14.02425	 -5.35739	 91.73093	711.79999	 43.90	
 17.012	 81.253	 78.73822	 36.44414	 21.52621	 79.50625	-15.08409	 -5.42944	 91.73565	711.76001	 43.90	
 16.996	 87.091	 78.63567	 31.96942	 26.08598	 80.11314	-15.32827	 -5.50023	 91.71384	711.79999	 43.90	
 16.996	 92.909	 78.56521	 27.46606	 30.44505	 80.29781	-15.29604	 -5.58132	 91.73279	711.76001	 43.90	
 17.008	 98.662	 78.37238	 22.28455	 34.71084	 79.92773	-15.41055	 -5.64426	 91.66520	711.81000	 43.90	
 16.988	104.517	 78.41467	 18.23330	 39.33294	 79.05799	-14.84704	 -5.68654	 91.70708	711.78998	 43.90	
 17.001	110.310	 78.37061	 13.82781	 43.79336	 77.68246	-13.94669	 -5.66135	 91.70909	711.85999	 43.90	
 17.002	116.134	 78.34657	  9.61205	 48.60283	 75.71376	-12.64125	 -5.57506	 91.70847	711.82001	 43.90	
 17.006	121.937	 78.28818	  5.69059	 53.32385	 73.58133	-10.94588	 -5.52751	 91.77016	711.73999	 43.90	
 17.001	127.699	 78.23816	  2.19454	 58.13846	 70.57056	 -8.75850	 -5.47749	 91.78616	711.67999	 43.90	
 17.007	133.546	 78.17355	 -1.07977	 62.42419	 67.39200	 -5.78106	 -5.40735	 91.77077	711.78998	 43.90	
 17.014	139.343	 78.11834	 -3.95033	 66.31698	 63.67675	 -2.80773	 -5.43657	 91.74176	711.71997	 43.90	
 16.988	145.161	 78.07362	 -6.45672	 69.97189	 59.35895	  0.27671	 -5.48411	 91.73870	711.71997	 43.90	
 16.995	150.919	 78.02223	 -8.57834	 72.72736	 54.93605	  3.64473	 -5.43598	 91.80113	711.87000	 43.90	
 16.990	156.759	 77.98975	-10.23473	 75.34988	 50.11674	  7.49186	 -5.29364	 91.73848	711.84003	 43.90	
 17.000	162.596	 77.96748	-11.62460	 77.54556	 45.23785	 11.39484	 -5.09584	 91.79533	711.82001	 43.90	
 17.009	168.383	 77.88502	-12.62633	 79.10593	 40.19454	 15.45495	 -4.81705	 91.76619	711.82001	 43.90	
 16.990	174.179	 77.94395	-13.17588	 80.13419	 35.52312	 19.86806	 -4.55023	 91.78024	711.77002	 43.90	
 18.709	174.675	 74.76081	-18.44474	 82.86256	 33.06263	 17.64537	 -4.56081	 91.77706	711.78998	 43.90	
 18.703	169.441	 74.76615	-17.90969	 81.72284	 37.93606	 13.29589	 -4.77175	 91.72730	711.78998	 43.90	
 18.691	164.085	 74.85058	-17.19829	 80.21059	 42.75646	  9.09127	 -4.99764	 91.79831	711.67999	 43.90	
 18.706	158.818	 74.87087	-16.00543	 78.23938	 47.67756	  5.14019	 -5.35154	 91.74107	711.88000	 43.90	
 18.695	153.537	 75.01406	-14.42579	 75.80466	 52.48838	  1.37641	 -5.56022	 91.78175	711.78003	 43.90	
 18.704	148.255	 75.04955	-12.55990	 73.20286	 56.96830	 -2.16091	 -5.64965	 91.76934	711.78998	 43.90	
 18.698	142.952	 75.12451	-10.30015	 70.01054	 61.46699	 -5.36359	 -5.84298	 91.77454	711.89001	 43.90	
 18.699	137.625	 75.19263	 -7.75436	 66.17966	 65.75970	 -8.49899	 -5.76276	 91.77314	711.92999	 44.00	
 18.705	132.343	 75.18189	 -4.84495	 62.20652	 69.31613	-11.29217	 -5.78759	 91.72812	711.77002	 44.00	
 18.713	127.067	 75.20393	 -1.75639	 57.74800	 72.47476	-13.87263	 -5.88955	 91.70914	711.87000	 44.00	
 18.700	121.794	 75.33420	  1.62924	 53.12558	 75.43020	-15.77431	 -5.95960	 91.76878	711.92999	 44.00	
 18.698	116.504	 75.50932	  5.38880	 48.46920	 77.71769	-17.57790	 -6.08360	 91.76545	711.92999	 44.00	
 18.707	111.165	 75.37348	  9.50687	 43.51967	 79.74688	-19.03682	 -6.17162	 91.75919	711.82001	 44.00	
 18.690	105.863	 75.42682	 13.85214	 39.12795	 81.16684	-19.92626	 -6.23666	 91.73709	711.83002	 44.00	
 18.696	100.583	 75.47258	 18.36276	 34.37911	 82.44014	-20.49459	 -6.25981	 91.76682	711.91998	 44.00	
 18.700	 95.309	 75.48741	 22.82799	 29.84892	 82.97536	-20.65006	 -6.25100	 91.71696	711.91998	 44.00	
 18.700	 90.000	 75.58277	 27.28970	 25.65776	 83.03839	-20.62766	 -6.29652	 91.73911	711.90997	 44.00	
 18.700	 84.691	 75.70303	 31.99914	 21.26332	 82.65012	-20.58100	 -6.18586	 91.71682	711.97998	 44.00	
 18.696	 79.417	 76.03940	 36.87542	 16.77419	 81.57966	-20.00934	 -6.09381	 91.77343	711.97998	 44.00	
 18.690	 74.137	 76.10954	 41.69485	 12.46524	 80.16956	-19.00885	 -6.06047	 91.71358	712.00000	 44.00	
 18.707	 68.835	 76.26475	 45.91158	  8.40536	 78.34240	-17.71738	 -5.98165	 91.68288	711.98999	 44.00	
 18.698	 63.496	 76.41422	 50.80480	  4.59514	 75.93315	-16.00320	 -5.90564	 91.67879	712.04999	 44.00	
 18.700	 58.206	 76.47413	 55.41147	  1.15876	 73.41001	-13.54987	 -5.71861	 91.71378	712.04999	 44.00	
 18.713	 52.933	 76.42065	 59.88643	 -2.03064	 70.31044	-11.17763	 -5.61340	 91.73685	711.95001	 44.00	
 18.705	 47.657	 76.58559	 64.09373	 -4.89863	 66.94968	 -8.51985	 -5.46229	 91.76585	712.04999	 44.00	
 18.699	 42.375	 76.79550	 67.79492	 -7.39201	 63.07046	 -5.51712	 -5.34734	 91.74503	712.13000	 44.00	
 18.698	 37.048	 76.97231	 70.91806	 -9.62968	 58.43847	 -2.17467	 -5.24345	 91.68453	712.02002	 44.00	
 18.704	 31.745	 77.08257	 74.00159	-11.48312	 54.23186	  1.47371	 -5.17318	 91.76247	711.94000	 44.00	
 18.695	 26.463	 77.17993	 76.47824	-12.91017	 49.60313	  5.47215	 -5.11243	 91.74403	712.09998	 44.00	
 18.706	 21.182	 77.32066	 78.61391	-14.03732	 44.62611	  9.60583	 -5.12869	 91.79681	711.96002	 44.00	
 18.691	 15.915	 77.43565	 80.09404	-14.86851	 39.89902	 13.83490	 -5.12030	 91.74986	711.91998	 44.00	
 18.703	 10.559	 77.44987	 81.27409	-15.42727	 34.96294	 18.24805	 -4.98039	 91.70347	711.97998	 44.00	
 18.709	  5.325	 77.54894	 82.02148	-15.49410	 30.06790	 22.80737	 -4.79227	 91.81612	712.09998	 44.00	
 18.700	  0.000	 77.54329	 82.05892	-14.94819	 25.52221	 27.38339	 -4.38765	 91.76207	711.95001	 44.00	
 18.709	 -5.325	 77.59483	 81.72752	-15.03903	 21.13511	 31.71407	 -4.01902	 91.80132	711.90997	 44.00	
 18.703	-10.559	 77.61031	 80.74568	-14.41202	 16.62607	 36.64890	 -3.92798	 91.78851	711.90002	 44.00	
 18.691	-15.915	 77.73666	 79.33775	-13.13392	 12.46404	 41.68980	 -3.76008	 91.78818	712.02002	 44.00	
 18.706	-21.182	 77.79694	 77.53031	-11.83735	  8.34006	 46.76785	 -3.66686	 91.80539	711.98999	 44.00	
 18.695	-26.463	 77.71586	 75.20886	-10.22898	  4.43080	 51.60678	 -3.52832	 91.79552	712.09998	 44.00	
 18.704	-31.745	 77.70406	 72.36382	 -8.39159	  0.94276	 56.26732	 -3.49301	 91.78366	712.04999	 44.00	
 18.698	-37.048	 77.79392	 69.35771	 -6.13283	 -1.97031	 60.54042	 -3.32965	 91.83083	712.06000	 44.00	
 18.699	-42.375	 77.64697	 65.75762	 -3.58798	 -5.00941	 64.55179	 -3.24133	 91.75475	712.03998	 44.00	
 18.705	-47.657	 77.61533	 61.70998	 -0.71225	 -7.76321	 68.36641	 -3.17074	 91.82407	711.97998	 44.00	
 18.713	-52.933	 77.59757	 57.00026	  2.59280	-10.16475	 71.74844	 -3.13777	 91.82382	712.03998	 44.00	
 18.700	-58.206	 77.34901	 52.58309	  6.16845	-12.17078	 74.50205	 -3.02486	 91.76345	711.97998	 44.00	
 18.698	-63.496	 77.28508	 47.89907	 10.06672	-13.85862	 77.00018	 -2.90949	 91.82899	712.06000	 44.00	
 18.707	-68.835	 77.34348	 42.87522	 14.16354	-15.30391	 79.00296	 -2.87350	 91.80819	712.13000	 44.00	
 18.690	-74.137	 77.26897	 38.68830	 18.47085	-16.40178	 80.43069	 -2.79186	 91.79073	712.09998	 44.00	
 18.696	-79.417	 77.11419	 33.84805	 22.82706	-17.09224	 81.31866	 -2.75733	 91.77750	712.06000	 44.00	
 18.700	-84.691	 77.03704	 28.36192	 27.09969	-17.37607	 81.75504	 -2.73813	 91.81007	711.98999	 44.00	
 18.700	-90.000	 76.95101	 24.26330	 31.21852	-17.34721	 81.70478	 -2.58121	 91.80798	712.03003	 44.00	
 18.700	-95.309	 76.80315	 20.26410	 35.58675	-16.96667	 81.15208	 -2.57682	 91.77315	711.96997	 44.00	
 18.696	-100.583	 76.74429	 15.68109	 40.37727	-16.41749	 80.12720	 -2.56806	 91.80268	712.00000	 44.00	
 18.690	-105.863	 76.67837	 11.31372	 44.66171	-15.55714	 78.60197	 -2.51609	 91.79953	712.03998	 44.00	
 18.707	-111.165	 76.49779	  7.11899	 49.41997	-14.26336	 76.51038	 -2.54709	 91.78349	711.95001	 44.00	
 18.698	-116.504	 76.41631	  3.16581	 54.07521	-12.53525	 73.93365	 -2.54664	 91.78751	712.03003	 44.00	
 18.700	-121.794	 76.29875	 -0.36639	 59.02448	-10.58804	 70.93880	 -2.59993	 91.77088	712.02002	 44.00	
 18.713	-127.067	 76.19610	 -3.55974	 63.11428	 -8.36999	 67.50681	 -2.61936	 91.79223	712.10999	 44.00	
 18.705	-132.343	 76.10557	 -6.41851	 67.02073	 -5.90762	 63.76996	 -2.71902	 91.85232	712.14001	 44.00	
 18.699	-137.625	 75.94761	 -9.06056	 70.73068	 -3.19355	 59.73211	 -2.78111	 91.81612	712.08002	 44.00	
 18.698	-142.952	 75.89428	-11.35591	 73.61162	 -0.20625	 55.35467	 -2.90471	 91.88017	712.10999	 44.00	
 18.704	-148.255	 75.69281	-13.42448	 76.43299	  3.15954	 50.58704	 -2.94576	 91.81012	711.98999	 44.00	
 18.695	-153.537	 75.63992	-15.10303	 78.77074	  6.92994	 45.87912	 -3.02835	 91.86087	712.01001	 44.00	
 18.706	-158.818	 75.43484	-16.56778	 80.59119	 11.01466	 40.74234	 -3.14502	 91.81649	711.98999	 44.00	
 18.691	-164.085	 75.28057	-17.46075	 82.02657	 15.29740	 35.74856	 -3.31599	 91.80704	712.12000	 44.00	
 18.703	-169.441	 75.09230	-18.32545	 83.04994	 19.56991	 30.71140	 -3.51756	 91.80453	712.09003	 44.00	
 18.709	-174.675	 74.98328	-18.71832	 83.50739	 24.30962	 25.77663	 -3.74942	 91.78249	712.09003	 44.00	
 18.700	180.000	 74.93700	-18.75520	 83.48665	 28.43598	 21.92965	 -4.14627	 91.83681	712.08002	 44.00	
 20.400	180.000	 71.53720	-23.92128	 85.66283	 26.08985	 19.08753	 -3.90167	 91.84469	712.03998	 44.00	
 20.401	-175.153	 71.58064	-23.90295	 85.72134	 21.92785	 22.85291	 -3.55694	 91.81239	711.98999	 44.00	
 20.407	-170.264	 71.70866	-23.50397	 85.43291	 17.49587	 27.62985	 -3.29754	 91.83835	712.09003	 44.00	
 20.410	-165.423	 71.77588	-22.86299	 84.61321	 13.12697	 32.57410	 -3.13434	 91.78600	712.07001	 44.00	
 20.392	-160.496	 71.93729	-22.00870	 83.28101	  8.70062	 37.71027	 -2.97241	 91.84209	712.04999	 44.00	
 20.401	-155.705	 72.01703	-20.80242	 81.40840	  4.70925	 42.61272	 -2.86275	 91.81800	712.20001	 44.00	
 20.405	-150.835	 72.17492	-19.28141	 79.38214	  1.28892	 47.55668	 -2.80652	 91.80785	712.03003	 44.00	
 20.397	-145.903	 72.42735	-17.35581	 76.80799	 -2.09006	 52.48470	 -2.77063	 91.86640	712.07001	 44.00	
 20.392	-141.062	 72.55141	-15.34375	 74.04590	 -5.26409	 57.08627	 -2.65577	 91.85248	712.15002	 44.00	
 20.396	-136.227	 72.63065	-13.04897	 70.78381	 -8.09795	 61.26125	 -2.63766	 91.77557	712.21002	 44.10	
 20.408	-131.372	 72.79742	-10.52762	 67.02045	-10.69599	 65.25520	 -2.54418	 91.86423	712.17999	 44.10	
 20.410	-126.511	 72.84820	 -7.80791	 62.99665	-13.17725	 69.03812	 -2.52114	 91.84441	712.13000	 44.10	
 20.400	-121.604	 72.97354	 -4.67731	 58.64739	-15.32945	 72.53139	 -2.47507	 91.81805	712.23999	 44.00	
 20.403	-116.741	 73.09159	 -1.31006	 53.97121	-17.27562	 75.46138	 -2.39246	 91.80260	712.09003	 44.00	
 20.413	-111.900	 73.18909	  2.41538	 49.42134	-18.90713	 78.12684	 -2.37285	 91.80873	712.12000	 44.00	
 20.398	-107.004	 73.37418	  6.52700	 44.60674	-20.15473	 80.29612	 -2.39789	 91.83109	712.06000	 44.00	
 20.394	-102.132	 73.48780	 10.86393	 40.25235	-21.15863	 81.90825	 -2.35796	 91.79926	712.14001	 44.00	
 20.403	-97.332	 73.63084	 15.19996	 35.53244	-21.92574	 83.18182	 -2.33465	 91.88416	712.13000	 44.00	
 20.392	-92.440	 73.73042	 19.92864	 31.04919	-22.39881	 83.93100	 -2.38547	 91.85335	712.16998	 44.00	
 20.392	-87.560	 73.82835	 23.87757	 26.65154	-22.62918	 84.22476	 -2.45696	 91.84757	712.25000	 44.00	
 20.403	-82.668	 73.88029	 27.75060	 22.71404	-22.63045	 84.09850	 -2.60798	 91.80802	712.08002	 44.00	
 20.394	-77.868	 74.00872	 33.45887	 18.28108	-22.03032	 83.49534	 -2.61262	 91.80781	712.20001	 44.00	
 20.398	-72.996	 74.10340	 38.00430	 13.84073	-21.31064	 82.46669	 -2.64881	 91.81664	712.08002	 44.00	
 20.413	-68.100	 74.15749	 43.08640	  9.49719	-20.35588	 81.00245	 -2.62569	 91.83113	712.01001	 44.00	
 20.403	-63.259	 74.24356	 47.24575	  5.53349	-18.90126	 78.99728	 -2.70705	 91.80659	712.08002	 44.00	
 20.400	-58.396	 74.38239	 52.00856	  1.84209	-17.27118	 76.56306	 -2.81197	 91.83730	712.09998	 44.00	
 20.410	-53.489	 74.46124	 56.56934	 -1.73894	-15.35146	 73.76402	 -2.87090	 91.85358	712.15002	 44.00	
 20.408	-48.628	 74.55033	 61.21741	 -4.97958	-13.07866	 70.43544	 -2.93732	 91.86400	712.13000	 44.00	
 20.396	-43.773	 74.56042	 65.39873	 -7.87536	-10.59608	 66.75420	 -2.96688	 91.80867	712.13000	 44.00	
 20.392	-38.938	 74.66856	 69.12572	-10.49856	 -7.86895	 62.86860	 -3.07852	 91.86269	712.12000	 44.00	
 20.397	-34.097	 74.77560	 72.32386	-12.83603	 -4.82141	 58.72457	 -3.16875	 91.88817	712.13000	 44.00	
 20.405	-29.165	 74.79049	 75.51511	-14.89759	 -1.40994	 54.03680	 -3.29895	 91.88070	712.15002	 44.00	
 20.401	-24.295	 74.82431	 78.10375	-16.59807	  2.16797	 49.24542	 -3.36990	 91.86116	712.08002	 44.00	
 20.392	-19.504	 74.91441	 80.24481	-17.98342	  5.89389	 44.32317	 -3.48248	 91.86920	712.13000	 44.00	
 20.410	-14.577	 74.85657	 82.02312	-19.22311	  9.91017	 39.26365	 -3.63949	 91.86877	712.03003	 44.00	
 20.407	 -9.736	 74.81726	 83.38097	-20.18869	 14.16182	 34.31905	 -3.83698	 91.91422	712.07001	 44.00	
 20.401	 -4.847	 74.76564	 84.21251	-20.73442	 18.69195	 29.32245	 -4.03109	 91.92535	712.03003	 44.00	
 20.400	  0.000	 74.66579	 84.48002	-20.75855	 22.73322	 24.95457	 -4.45651	 91.86831	712.09998	 44.00	
 20.401	  4.847	 74.52694	 84.46784	-21.33691	 26.98911	 20.88906	 -5.04762	 91.89516	712.09003	 44.00	
 20.407	  9.736	 74.38200	 83.91573	-21.38132	 32.04846	 16.26623	 -5.17994	 91.85035	712.15002	 44.00	
 20.410	 14.577	 74.40961	 82.99166	-20.92622	 36.98096	 11.84714	 -5.26420	 91.90108	712.09003	 44.00	
 20.392	 19.504	 74.33453	 81.39764	-20.05997	 41.84902	  7.53017	 -5.37740	 91.87585	712.12000	 44.00	
 20.401	 24.295	 74.17811	 79.50965	-19.06820	 46.49735	  3.35144	 -5.60993	 91.84284	712.12000	 44.00	
 20.405	 29.165	 74.07463	 77.27075	-17.75389	 51.29818	 -0.64374	 -5.69230	 91.86901	712.04999	 44.00	
 20.397	 34.097	 73.95284	 74.53164	-16.15273	 55.87887	 -4.30985	 -5.69551	 91.86298	712.08002	 44.00	
 20.392	 38.938	 73.76945	 71.26704	-14.14301	 60.05243	 -7.53681	 -5.83809	 91.82700	712.03003	 44.00	
 20.396	 43.773	 73.64920	 68.11697	-12.03484	 64.57674	-10.63364	 -5.89043	 91.87740	712.12000	 44.00	
 20.408	 48.628	 73.46127	 64.28819	 -9.58059	 68.39542	-13.50585	 -6.02440	 91.87096	712.15002	 44.00	
 20.410	 53.489	 73.41704	 59.86022	 -6.61615	 71.78892	-16.03172	 -6.14263	 91.91718	712.10999	 44.00	
 20.400	 58.396	 73.31101	 55.44028	 -3.34317	 75.06126	-18.46808	 -6.26486	 91.87905	712.09998	 44.00	
 20.403	 63.259	 73.17277	 50.82646	  0.02599	 77.63523	-20.59908	 -6.38943	 91.85715	712.19000	 44.00	
 20.413	 68.100	 73.13129	 46.00047	  3.66833	 80.04119	-22.39689	 -6.45432	 91.87936	712.20001	 44.00	
 20.398	 72.996	 72.95573	 41.54617	  7.50861	 81.95972	-23.80299	 -6.52068	 91.88599	712.21002	 44.00	
 20.394	 77.868	 72.72203	 36.82260	 11.56876	 83.54147	-24.86393	 -6.63581	 91.82877	712.16998	 44.00	
 20.403	 82.668	 72.55820	 31.86030	 15.88185	 84.68092	-25.67500	 -6.78852	 91.85679	712.21002	 44.00	
 20.392	 87.560	 72.41744	 26.84393	 20.44917	 85.28589	-26.08634	 -6.86520	 91.83414	712.23999	 44.00	
 20.392	 92.440	 72.35783	 22.48506	 24.67895	 85.49635	-26.25982	 -7.00794	 91.86348	712.09003	 44.00	
 20.403	 97.332	 72.19076	 18.32592	 28.97671	 85.21574	-25.95050	 -6.94310	 91.82073	712.15002	 44.00	
 20.394	102.132	 72.19888	 13.85118	 33.67068	 84.51646	-25.40679	 -6.79524	 91.82011	712.21997	 44.00	
 20.398	107.004	 72.17696	  9.35911	 38.39608	 83.26477	-24.87185	 -6.67699	 91.83408	712.08002	 44.00	
 20.413	111.900	 72.14225	  5.04725	 43.24028	 81.60597	-24.02167	 -6.55094	 91.88905	712.10999	 44.00	
 20.403	116.741	 72.14023	  1.25561	 47.70263	 79.56425	-22.56920	 -6.42600	 91.85984	712.14001	 44.00	
 20.400	121.604	 72.12022	 -2.30824	 52.42606	 77.07690	-20.95979	 -6.37367	 91.87687	712.09998	 44.00	
 20.410	126.511	 72.03886	 -5.70663	 57.09227	 74.12090	-19.08990	 -6.20353	 91.84810	712.13000	 44.00	
 20.408	131.372	 71.98603	 -8.85716	 61.70475	 71.06569	-16.44185	 -6.06253	 91.89124	712.06000	 44.10	
 20.396	136.227	 71.99211	-11.59955	 65.70539	 67.65437	-13.87578	 -5.97099	 91.86518	712.14001	 44.10	
 20.392	141.062	 71.94962	-14.08286	 69.48235	 63.64958	-11.11396	 -5.84065	 91.85588	712.19000	 44.10	
 20.397	145.903	 71.91959	-16.33014	 73.04591	 59.03072	 -8.09233	 -5.68410	 91.87380	712.23999	 44.10	
 20.405	150.835	 71.80528	-18.37749	 75.91212	 54.66979	 -4.84626	 -5.50222	 91.87124	711.87000	 44.10	
 20.401	155.705	 71.69827	-20.08745	 78.61870	 50.02402	 -1.37662	 -5.31113	 91.85454	711.58002	 44.10	
 20.392	160.496	 71.62148	-21.44713	 80.78066	 45.22330	  2.41975	 -5.07959	 91.84901	712.19000	 44.10	
 20.410	165.423	 71.53565	-22.44105	 82.75745	 40.33435	  6.59246	 -4.72471	 91.86343	712.13000	 44.10	
 20.407	170.264	 71.46214	-23.14954	 84.19511	 35.50439	 10.76956	 -4.59595	 91.85581	712.06000	 44.10	
 20.401	175.153	 71.46064	-23.64913	 85.24856	 30.47455	 15.17820	 -4.32336	 91.85754	712.08002	 44.10	
  0.141	 45.000	 92.14090	 39.12497	 41.55183	 42.04062	 37.94271	  1.46003	 91.92187	712.20001	 44.10	
  4.001	128.691	 91.66506	 30.99350	 48.89388	 50.77895	 28.33880	  0.80541	 91.90362	712.13000	 44.00	
  4.002	 76.995	 91.75017	 41.01540	 37.94027	 52.56687	 26.81170	  1.20163	 91.88132	712.19000	 44.00	
  4.002	 25.892	 91.89277	 49.07402	 31.78540	 45.86999	 33.04081	  1.37666	 91.87491	712.09003	 44.00	
  4.002	-25.892	 91.92908	 48.77672	 32.36073	 35.32584	 43.43497	  1.22392	 91.88143	711.85999	 44.00	
  4.002	-76.995	 91.86711	 40.27995	 39.33916	 29.51063	 49.80265	  0.94567	 91.88674	712.10999	 44.00	
  4.001	-128.691	 91.68183	 30.49008	 49.96408	 31.68166	 46.73899	  0.74310	 91.85040	712.15997	 44.00	
  4.000	180.000	 91.62538	 26.43032	 53.73388	 41.33918	 36.78350	  0.64817	 91.93546	711.47998	 44.00	
  8.000	180.000	 89.37635	 14.91485	 63.44258	 39.47397	 34.20897	 -0.82820	 91.84913	711.65997	 44.00	
  7.991	-152.370	 89.49492	 16.96203	 61.31598	 29.08895	 45.59107	 -0.77043	 91.82596	711.40997	 44.00	
  7.997	-124.550	 89.76756	 22.83636	 54.31925	 21.27439	 54.91682	 -0.70247	 91.85197	711.46002	 44.00	
  8.006	-96.837	 89.98673	 32.71874	 43.10030	 17.27047	 59.73494	 -0.60117	 91.85689	711.48999	 44.10	
  7.988	-69.228	 90.25674	 43.92772	 33.36454	 18.25703	 58.89367	 -0.51645	 91.87525	711.42999	 44.10	
  7.997	-41.563	 90.41753	 53.83266	 24.93215	 24.05473	 52.83933	 -0.24501	 91.88895	711.59998	 44.10	
  8.008	-13.821	 90.35802	 59.87801	 19.83385	 32.46338	 42.38395	  0.03199	 91.82419	712.14001	 44.10	
  8.008	 13.821	 90.28566	 60.20961	 19.16917	 43.98352	 31.10164	  0.22070	 91.87225	712.00000	 44.00	
  7.997	 41.563	 90.07961	 54.90204	 23.18797	 54.57093	 21.27929	  0.27043	 91.88724	711.46002	 44.00	
  7.988	 69.228	 89.80066	 45.10360	 30.92200	 61.13454	 15.09755	  0.06975	 91.85668	712.21002	 44.00	
  8.006	 96.837	 89.59342	 34.02336	 40.33630	 62.87157	 13.36551	 -0.30693	 91.85802	712.19000	 44.00	
  7.997	124.550	 89.46381	 23.84019	 51.95172	 59.13462	 16.47613	 -0.58865	 91.84183	712.17999	 44.10	
  7.991	152.370	 89.44907	 17.62323	 59.86600	 50.71583	 24.00304	 -0.81146	 91.88528	711.34003	 44.00	
 12.009	161.059	 85.46201	  4.69700	 69.37289	 48.08940	 19.66267	 -3.34499	 91.87231	711.82001	 44.00	
 12.013	142.081	 85.51679	  9.23935	 62.90791	 58.56584	 11.18106	 -3.32502	 91.87183	711.40002	 44.00	
 12.006	123.113	 85.56978	 16.71278	 53.56950	 66.28136	  5.05911	 -3.17199	 91.79916	711.46002	 44.10	
 12.007	104.200	 85.68797	 25.72707	 42.08066	 70.65862	  1.83858	 -3.14525	 91.79943	711.81000	 44.10	
 11.989	 85.301	 85.94772	 36.91708	 31.85965	 71.30338	  1.47369	 -2.52698	 91.84091	711.37000	 44.00	
 12.013	 66.294	 86.16219	 48.20798	 22.00726	 67.98096	  4.11773	 -2.69460	 91.84466	711.65002	 44.00	
 12.012	 47.388	 86.37053	 58.66836	 14.31674	 61.35834	  9.63897	 -1.67102	 91.84688	711.41998	 44.10	
 11.990	 28.440	 86.74699	 65.85900	  9.39932	 51.63485	 17.82981	 -1.49478	 91.83260	712.10999	 44.00	
 11.991	  9.464	 87.04247	 69.43508	  7.01677	 40.14947	 28.41823	 -1.67764	 91.88519	711.44000	 44.00	
 11.991	 -9.464	 87.13052	 69.09970	  7.59178	 29.18179	 39.80216	 -2.05750	 91.88005	711.41998	 44.00	
 11.990	-28.440	 87.13771	 64.84275	 11.23122	 19.18008	 51.37638	 -2.55632	 91.85793	711.78998	 44.10	
 12.012	-47.388	 87.01831	 57.01779	 17.23643	 11.00915	 60.53862	 -2.63754	 91.83538	711.39001	 44.10	
 12.013	-66.294	 86.87659	 46.34773	 25.74846	  6.16280	 66.83717	 -2.72363	 91.82765	711.71997	 44.10	
 11.989	-85.301	 86.60532	 34.86228	 35.87066	  4.11206	 69.40958	 -2.38799	 91.79961	711.54999	 44.10	
 12.007	-104.200	 86.33943	 23.95357	 46.33949	  5.04311	 67.58360	 -2.67302	 91.85101	711.46002	 44.10	
 12.006	-123.113	 86.03577	 15.26539	 57.34512	  8.95469	 61.87325	 -2.74243	 91.80932	711.37000	 44.10	
 12.013	-142.081	 85.82095	  8.28868	 65.62299	 15.98945	 53.22197	 -2.73013	 91.89650	711.72998	 44.10	
 12.009	-161.059	 85.52825	  4.08873	 70.44234	 25.64225	 41.98589	 -3.04821	 91.84580	711.34998	 44.10	
 16.000	180.000	 79.74349	-10.10650	 79.12301	 32.34502	 25.61301	 -4.13791	 91.82213	711.34003	 44.00	
 15.990	-165.604	 79.90282	 -9.54401	 78.36744	 21.51761	 36.70288	 -3.66684	 91.89140	711.42999	 44.00	
 16.002	-151.165	 80.03207	 -6.48339	 74.49166	 11.33419	 48.34716	 -3.35752	 91.80670	711.60999	 44.00	
 16.002	-136.836	 80.35429	 -1.19824	 67.95688	  3.22749	 58.93850	 -3.13270	 91.77725	711.48999	 44.00	
 15.995	-122.439	 80.68401	  6.00537	 59.07588	 -2.95217	 67.68750	 -3.01983	 91.85438	711.34003	 44.00	
 15.993	-107.966	 81.00251	 15.18713	 47.87338	 -6.86942	 73.91238	 -2.97829	 91.86578	711.33002	 44.00	
 16.005	-93.629	 81.28323	 25.05717	 37.28011	 -8.65211	 77.06158	 -2.91671	 91.84762	711.29999	 44.00	
 15.992	-79.234	 81.58313	 36.55856	 27.04041	 -8.60172	 77.04817	 -3.14342	 91.88256	711.40997	 44.00	
 16.009	-64.774	 81.71622	 47.30496	 17.17092	 -6.22763	 73.77182	 -3.27741	 91.85046	711.96002	 44.00	
 15.997	-50.364	 81.96345	 58.30141	  8.65679	 -1.70694	 67.32034	 -3.37379	 91.89075	711.40002	 44.00	
 15.997	-36.045	 82.10696	 67.45883	  2.20340	  5.13248	 58.63858	 -3.60733	 91.90080	711.50000	 44.00	
 16.000	-21.597	 82.22406	 73.71653	 -2.43394	 13.92914	 47.75301	 -3.70392	 91.90919	712.26001	 44.00	
 16.003	 -7.169	 82.13945	 77.09399	 -4.97309	 24.41297	 35.99658	 -3.72431	 91.89378	711.53003	 44.10	
 16.003	  7.169	 82.04449	 77.42315	 -5.68410	 35.25220	 24.88255	 -4.04033	 91.91711	711.45001	 44.00	
 16.000	 21.597	 81.79057	 74.62885	 -4.29038	 46.65989	 14.38085	 -4.20031	 91.86450	711.42999	 44.00	
 15.997	 36.045	 81.46533	 68.94962	 -0.92763	 57.67040	  5.14466	 -4.20533	 91.91941	712.21002	 44.00	
 15.997	 50.364	 81.16664	 60.63394	  4.61505	 66.87913	 -2.15714	 -4.44233	 91.95471	712.17999	 44.00	
 16.009	 64.774	 80.83002	 49.72501	 12.31974	 73.76727	 -7.93807	 -4.84560	 91.87537	712.20001	 44.00	
 15.992	 79.234	 80.55888	 38.31528	 21.91490	 77.71603	-11.39653	 -4.86956	 91.87061	712.09003	 44.00	
 16.005	 93.629	 80.33072	 28.34812	 32.13175	 78.81536	-11.64433	 -5.04915	 91.87476	711.38000	 44.00	
 15.993	107.966	 80.16914	 17.44774	 42.53130	 77.00645	-11.01290	 -5.23702	 91.87446	711.38000	 44.00	
 15.995	122.439	 79.95760	  7.65773	 53.76154	 72.19103	 -7.11673	 -5.05171	 91.84902	711.45001	 44.00	
 16.002	136.836	 79.88036	 -0.06145	 64.05368	 64.70880	 -1.32638	 -5.02432	 91.83167	711.38000	 44.00	
 16.002	151.165	 79.78679	 -5.72797	 72.07456	 54.77814	  6.06002	 -5.17629	 91.84871	711.38000	 44.00	
 15.990	165.604	 79.70140	 -9.05000	 76.99698	 43.37347	 15.20307	 -4.70791	 91.84200	711.44000	 44.00	
 20.003	168.362	 72.25861	-21.76142	 83.21745	 37.75234	  9.78655	 -4.82690	 91.82607	711.42999	 44.00	
 20.008	156.764	 72.44029	-19.31992	 78.73518	 49.07707	  0.29566	 -5.36603	 91.80762	711.42999	 44.00	
 20.000	145.147	 72.66836	-14.97984	 72.29466	 59.62408	 -7.66447	 -5.84666	 91.82568	711.50000	 44.00	
 19.995	133.545	 72.71758	 -9.12310	 63.45353	 69.30385	-14.36150	 -6.09665	 91.80566	711.41998	 44.00	
 20.009	121.926	 72.80980	 -1.78341	 52.83427	 76.40678	-19.76799	 -6.40390	 91.80196	711.46997	 44.00	
 20.005	110.327	 72.85204	  7.14572	 42.01239	 81.51665	-23.19332	 -6.61213	 91.75730	711.50000	 44.00	
 19.989	 98.733	 72.97124	 17.55202	 31.03575	 84.49549	-24.60318	 -6.86309	 91.78373	711.53998	 44.00	
 19.999	 87.075	 73.12496	 27.67863	 20.89902	 84.68736	-24.60794	 -6.81533	 91.75703	711.39001	 44.00	
 19.992	 75.457	 73.53173	 39.22894	 10.43145	 82.23089	-23.24792	 -6.61573	 91.74190	711.39001	 44.00	
 20.009	 63.844	 73.84190	 50.20021	  1.50920	 77.60318	-19.81102	 -6.38933	 91.80648	711.46997	 44.00	
 19.989	 52.269	 74.10296	 60.74874	 -6.06025	 70.72625	-14.43505	 -6.08133	 91.76550	711.40997	 44.00	
 19.999	 40.602	 74.39455	 69.86331	-12.22216	 61.63918	 -7.88601	 -5.76761	 91.75524	711.50000	 44.00	
 20.004	 29.051	 74.72196	 76.83546	-16.62900	 51.36979	  0.07460	 -5.65893	 91.78799	711.47998	 44.00	
 20.005	 17.433	 75.03358	 81.54961	-19.29241	 40.10763	  9.97021	 -5.41384	 91.80733	711.45001	 44.00	
 20.006	  5.780	 75.18546	 83.83769	-20.16702	 28.52502	 20.48009	 -5.15243	 91.83926	711.41998	 44.00	
 20.006	 -5.780	 75.33338	 83.43546	-19.40426	 18.47542	 30.60404	 -4.15867	 91.78857	711.48999	 44.00	
 20.005	-17.433	 75.44896	 80.40447	-17.40518	  8.37128	 42.27369	 -3.70373	 91.77066	711.50000	 44.00	
 20.004	-29.051	 75.44393	 75.22713	-13.85290	 -0.16130	 53.77405	 -3.47140	 91.83347	711.50000	 44.00	
 19.999	-40.602	 75.28011	 67.71928	 -8.55229	 -7.54676	 63.81651	 -3.21341	 91.76326	711.41998	 44.00	
 19.989	-52.269	 75.18349	 57.63396	 -1.48267	-13.46693	 72.44849	 -3.10979	 91.75181	711.34998	 44.00	
 20.009	-63.844	 74.93896	 46.91983	  6.89746	-17.90207	 78.73427	 -2.86096	 91.78226	711.50000	 43.90	
 19.992	-75.457	 74.78119	 36.23888	 16.85240	-20.50308	 82.45764	 -2.75151	 91.78793	711.59003	 43.90	
 19.999	-87.075	 74.53398	 24.76898	 26.79220	-21.38881	 83.60963	 -2.56622	 91.78783	711.53003	 44.00	
 19.989	-98.733	 74.32258	 14.68559	 37.21187	-20.47689	 82.26641	 -2.47358	 91.78019	711.34003	 44.00	
 20.005	-110.327	 74.02508	  4.69533	 48.02315	-18.09872	 78.42916	 -2.53075	 91.79878	711.50000	 44.00	
 20.009	-121.926	 73.73783	 -3.84135	 58.92768	-14.09447	 71.99452	 -2.54633	 91.76244	711.39001	 44.00	
 19.995	-133.545	 73.49985	-10.62585	 68.48435	 -8.54633	 63.28487	 -2.69156	 91.77774	711.51001	 44.00	
 20.000	-145.147	 73.19089	-16.04862	 75.96342	 -1.76878	 53.27677	 -2.89902	 91.82536	711.34998	 44.00	
 20.008	-156.764	 72.78547	-20.08305	 81.37079	  6.24666	 41.79352	 -3.04367	 91.81429	711.48999	 44.00	
 20.003	-168.362	 72.55569	-22.12871	 84.65041	 16.39292	 30.14850	 -3.39346	 91.81520	711.39001	 44.00	
 20.000	180.000	 72.35909	-22.84018	 85.17899	 26.53893	 19.79581	 -4.07725	 91.84341	711.53003	 44.00	
