FileType=PCF
NHL=14
Date=03/12/19	16:05:16
Facility=APL
Serial=16071-1
Customer=NASA
NP=6
Mach=0.230000
Calibration=1:1
CalPts=490
TstPts=95
PortNumbering=AP Standard
Units=Torr C m/s kg/m^3 deg mm 
Theta[deg]	Phi[deg]	P1[Torr]	P2[Torr]	P3[Torr]	P4[Torr]	P5[Torr]	P6[Torr]	Pt[Torr]	Ps[Abs,Torr]	Ts[C]	
  0.000	  0.000	 25.71574	 10.47610	 11.28853	 11.07536	 10.42343	  0.50061	 25.66924	711.13000	 24.90	
  1.691	128.401	 25.70928	  9.67521	 12.01005	 12.12429	  9.27293	  0.45798	 25.67306	711.12000	 24.90	
  1.692	 77.194	 25.70345	 10.78863	 10.84863	 12.34607	  9.07521	  0.50717	 25.67338	711.09998	 24.90	
  1.699	 26.182	 25.72402	 11.71972	  9.97900	 11.56688	  9.88027	  0.53029	 25.67456	711.03998	 24.90	
  1.699	-26.182	 25.71549	 11.67004	 10.08314	 10.38547	 11.08116	  0.51516	 25.67654	711.12000	 25.00	
  1.692	-77.194	 25.70839	 10.68521	 11.02364	  9.68506	 11.78746	  0.47214	 25.66869	711.09003	 25.00	
  1.691	-128.401	 25.70205	  9.59824	 12.12463	  9.99751	 11.43771	  0.44449	 25.67772	711.09003	 25.00	
  1.700	180.000	 25.69965	  9.11375	 12.56765	 11.09023	 10.30228	  0.42767	 25.67059	711.17999	 25.00	
  3.400	180.000	 25.63594	  7.65954	 13.91314	 11.02936	 10.14032	  0.32205	 25.67822	711.10999	 25.00	
  3.388	-152.325	 25.63589	  7.93597	 13.64618	  9.75583	 11.44211	  0.32741	 25.66953	711.13000	 25.00	
  3.397	-124.529	 25.65478	  8.78392	 12.78028	  8.75016	 12.53357	  0.34280	 25.67199	711.20001	 25.10	
  3.399	-96.763	 25.68027	  9.96373	 11.61645	  8.25374	 13.11759	  0.37131	 25.68528	711.07001	 25.10	
  3.394	-69.283	 25.68485	 11.20510	 10.32477	  8.36883	 13.02881	  0.41438	 25.68801	711.09998	 25.10	
  3.400	-41.398	 25.69976	 12.40132	  9.24145	  9.04376	 12.31259	  0.44626	 25.68703	711.07001	 25.10	
  3.401	-14.021	 25.71262	 13.13733	  8.59774	 10.15591	 11.13294	  0.48271	 25.69134	711.15002	 25.10	
  3.401	 14.021	 25.70985	 13.18873	  8.55020	 11.48058	  9.79570	  0.50938	 25.69949	711.17999	 25.10	
  3.400	 41.398	 25.70335	 12.54975	  9.04188	 12.64388	  8.61699	  0.50423	 25.68164	711.13000	 25.20	
  3.394	 69.283	 25.69850	 11.37678	 10.02571	 13.44011	  7.82036	  0.47200	 25.69593	711.10999	 25.20	
  3.399	 96.763	 25.65766	 10.12153	 11.29841	 13.68473	  7.56389	  0.42908	 25.67187	711.09003	 25.20	
  3.397	124.529	 25.66654	  8.91935	 12.51838	 13.25383	  7.95170	  0.37518	 25.69627	711.06000	 25.20	
  3.388	152.325	 25.64150	  8.01433	 13.49784	 12.28616	  8.90512	  0.33212	 25.67861	711.06000	 25.20	
  5.099	161.165	 25.48660	  6.44615	 14.93704	 12.24481	  8.56014	  0.16273	 25.69876	711.09003	 25.20	
  5.109	142.013	 25.47933	  7.09263	 14.10788	 13.41619	  7.40872	  0.17138	 25.68056	711.09003	 25.30	
  5.095	123.033	 25.49549	  8.09173	 12.97622	 14.39734	  6.54716	  0.23361	 25.69669	711.06000	 25.30	
  5.105	104.191	 25.53186	  9.31357	 11.72129	 14.94443	  6.11247	  0.28365	 25.69376	711.14001	 25.30	
  5.093	 85.207	 25.54836	 10.65192	 10.38466	 14.99122	  6.09346	  0.33453	 25.69936	711.01001	 25.30	
  5.104	 66.290	 25.56162	 11.97466	  9.13685	 14.58066	  6.47388	  0.38472	 25.69073	711.14001	 25.30	
  5.094	 47.331	 25.60126	 13.22224	  8.12117	 13.71487	  7.28459	  0.42607	 25.69689	711.12000	 25.30	
  5.089	 28.397	 25.60534	 14.09188	  7.42664	 12.55593	  8.38570	  0.44677	 25.69354	711.03998	 25.40	
  5.096	  9.576	 25.61611	 14.58818	  7.05223	 11.25557	  9.65756	  0.42906	 25.69227	711.01001	 25.40	
  5.096	 -9.576	 25.62353	 14.51389	  7.15528	  9.89079	 11.02884	  0.41125	 25.70109	711.02002	 25.40	
  5.089	-28.397	 25.62397	 13.94864	  7.62583	  8.68501	 12.36655	  0.36574	 25.69661	711.04999	 25.40	
  5.094	-47.331	 25.60327	 12.96839	  8.44804	  7.69412	 13.46995	  0.33430	 25.68795	711.03998	 25.40	
  5.104	-66.290	 25.58491	 11.71735	  9.55753	  7.07378	 14.16741	  0.29718	 25.69306	711.09998	 25.40	
  5.093	-85.207	 25.56891	 10.41203	 10.85640	  6.83373	 14.43085	  0.26766	 25.69765	711.02002	 25.40	
  5.105	-104.191	 25.54709	  9.12624	 12.18183	  6.95879	 14.22309	  0.23059	 25.68514	711.07001	 25.40	
  5.095	-123.033	 25.53096	  7.92757	 13.42317	  7.50198	 13.56065	  0.21114	 25.68861	711.04999	 25.50	
  5.109	-142.013	 25.52024	  6.99623	 14.43419	  8.38314	 12.56012	  0.17347	 25.71241	711.07001	 25.50	
  5.099	-161.165	 25.48996	  6.41546	 15.14848	  9.57605	 11.24656	  0.17035	 25.69710	711.01001	 25.50	
  5.100	180.000	 25.49221	  6.22005	 15.33040	 10.89852	  9.87927	  0.16699	 25.70238	711.00000	 25.50	
  6.800	180.000	 25.23516	  4.76400	 16.63945	 10.68131	  9.55025	 -0.03942	 25.69836	711.09003	 25.50	
  6.796	-166.229	 25.24373	  4.88648	 16.53461	  9.39722	 10.89298	 -0.00713	 25.71563	711.06000	 25.50	
  6.808	-152.311	 25.25522	  5.29027	 16.05961	  8.15201	 12.22226	 -0.01345	 25.69841	710.98999	 25.50	
  6.795	-138.383	 25.29414	  5.97294	 15.22226	  7.11467	 13.44141	 -0.01728	 25.71848	711.02002	 25.50	
  6.792	-124.591	 25.30840	  6.85474	 14.16669	  6.36259	 14.37361	  0.00559	 25.70842	711.06000	 25.60	
  6.787	-110.754	 25.34206	  7.94076	 12.95377	  5.74841	 15.16861	  0.02203	 25.71826	711.04999	 25.60	
  6.800	-96.985	 25.36481	  9.15398	 11.71860	  5.37362	 15.61831	  0.01201	 25.72213	710.92999	 25.60	
  6.800	-83.015	 25.37955	 10.44109	 10.37032	  5.50984	 15.73204	  0.04057	 25.71540	710.92999	 25.60	
  6.787	-69.246	 25.39718	 11.71664	  9.13870	  5.72813	 15.46257	  0.08021	 25.70961	711.00000	 25.60	
  6.792	-55.409	 25.41833	 13.02184	  8.01130	  6.09205	 14.81616	  0.12285	 25.70239	711.04999	 25.60	
  6.795	-41.617	 25.43557	 14.14673	  7.05587	  6.83711	 13.94201	  0.17215	 25.70671	711.07001	 25.60	
  6.808	-27.689	 25.45293	 15.08991	  6.28203	  7.79612	 12.82820	  0.20233	 25.72296	711.06000	 25.60	
  6.796	-13.771	 25.45938	 15.71095	  5.79781	  8.98689	 11.52662	  0.24396	 25.72488	711.08002	 25.60	
  6.800	  0.000	 25.45781	 15.93545	  5.62146	 10.33220	 10.17376	  0.27520	 25.72053	711.01001	 25.70	
  6.796	 13.771	 25.45513	 15.80098	  5.68310	 11.64927	  8.85629	  0.25405	 25.71944	710.92999	 25.70	
  6.808	 27.689	 25.42509	 15.31522	  6.02682	 12.93531	  7.54659	  0.31278	 25.71217	710.96002	 25.70	
  6.795	 41.617	 25.40627	 14.42830	  6.63971	 14.09613	  6.43816	  0.23954	 25.71239	711.09998	 25.70	
  6.792	 55.409	 25.38799	 13.35766	  7.50535	 15.09081	  5.59902	  0.23094	 25.70899	711.04999	 25.70	
  6.787	 69.246	 25.36518	 12.08641	  8.56655	 15.92104	  4.98016	  0.22132	 25.71093	711.07001	 25.70	
  6.800	 83.015	 25.34806	 10.80072	  9.75819	 16.33948	  4.61047	  0.12374	 25.72563	711.09003	 25.70	
  6.800	 96.985	 25.32181	  9.48747	 11.05782	 16.37712	  4.54223	  0.08492	 25.71594	711.03003	 25.70	
  6.787	110.754	 25.30087	  8.22109	 12.36178	 16.04924	  4.77038	  0.02552	 25.71015	711.09998	 25.80	
  6.792	124.591	 25.27569	  7.08995	 13.59696	 15.34161	  5.23013	  0.01401	 25.71393	710.95001	 25.80	
  6.795	138.383	 25.25418	  6.18269	 14.71238	 14.42305	  5.98228	 -0.02398	 25.70693	711.08002	 25.80	
  6.808	152.311	 25.24962	  5.41581	 15.71350	 13.25445	  7.01056	 -0.02787	 25.71067	711.01001	 25.80	
  6.796	166.229	 25.26387	  4.97142	 16.35437	 12.02936	  8.24150	 -0.07480	 25.73592	711.00000	 25.80	
  8.491	168.704	 24.89274	  3.44569	 17.57390	 11.78685	  7.76825	 -0.31812	 25.72478	711.09003	 25.80	
  8.502	157.493	 24.89177	  3.81050	 17.04409	 13.10268	  6.48042	 -0.30574	 25.71847	710.96002	 25.80	
  8.494	146.194	 24.88923	  4.38648	 16.21106	 14.34285	  5.37951	 -0.29763	 25.70980	710.94000	 25.80	
  8.495	135.039	 24.91142	  5.14982	 15.14788	 15.42299	  4.49244	 -0.24811	 25.71924	710.96997	 25.80	
  8.487	123.723	 24.93208	  6.11856	 13.95004	 16.43358	  3.78577	 -0.22774	 25.71131	711.02002	 25.80	
  8.492	112.575	 24.95095	  7.24181	 12.66912	 17.12168	  3.31777	 -0.23562	 25.71307	710.98999	 25.90	
  8.510	101.220	 24.96308	  8.53786	 11.34317	 17.52811	  3.05748	 -0.20322	 25.71015	711.01001	 25.90	
  8.500	 90.000	 24.99860	  9.86324	  9.99915	 17.63917	  2.99430	 -0.14018	 25.71977	711.00000	 25.90	
  8.510	 78.780	 25.03141	 11.21213	  8.70738	 17.46261	  3.15795	 -0.11666	 25.72593	710.96997	 25.90	
  8.492	 67.425	 25.05056	 12.57901	  7.49579	 16.90393	  3.57538	 -0.08303	 25.71235	711.02002	 25.90	
  8.487	 56.277	 25.07625	 13.83291	  6.44469	 16.09398	  4.17308	 -0.04660	 25.71617	711.03998	 25.90	
  8.495	 44.961	 25.11438	 15.01420	  5.54497	 15.06150	  5.00648	  0.00567	 25.72812	711.08002	 25.90	
  8.494	 33.806	 25.14278	 15.97536	  4.84359	 13.92726	  6.00120	  0.03510	 25.71914	711.03998	 25.90	
  8.502	 22.507	 25.15621	 16.66851	  4.36871	 12.65607	  7.21251	  0.03663	 25.71803	711.09003	 25.90	
  8.491	 11.296	 25.17547	 17.05276	  4.13123	 11.30709	  8.54923	  0.03047	 25.72260	710.88000	 25.90	
  8.500	  0.000	 25.18239	 17.15739	  4.05598	  9.96820	  9.92947	  0.02452	 25.72422	711.01001	 25.90	
  8.491	-11.296	 25.19116	 16.95047	  4.25063	  8.63166	 11.33149	 -0.02084	 25.73341	711.03003	 26.00	
  8.502	-22.507	 25.17618	 16.46372	  4.64050	  7.38784	 12.68464	 -0.07070	 25.72033	711.09003	 26.00	
  8.494	-33.806	 25.17653	 15.68483	  5.28230	  6.30149	 13.90917	 -0.08879	 25.72504	710.98999	 26.00	
  8.495	-44.961	 25.16396	 14.63074	  6.08961	  5.59055	 15.01237	 -0.13200	 25.72519	710.94000	 26.00	
  8.487	-56.277	 25.12927	 13.41200	  7.09361	  4.85913	 15.92231	 -0.16222	 25.71226	710.98999	 26.00	
  8.492	-67.425	 25.10399	 12.10449	  8.23039	  4.33931	 16.56729	 -0.19309	 25.72165	710.82001	 26.00	
  8.510	-78.780	 25.08787	 10.72702	  9.50312	  4.03740	 16.94597	 -0.21297	 25.73474	711.00000	 26.00	
  8.500	-90.000	 25.05510	  9.40061	 10.79094	  3.96831	 16.99960	 -0.19460	 25.72841	710.97998	 26.00	
  8.510	-101.220	 25.02427	  8.10310	 12.11783	  4.11663	 16.76132	 -0.24844	 25.72348	710.91998	 26.00	
  8.492	-112.575	 25.00642	  6.86850	 13.42727	  4.52158	 16.20845	 -0.25590	 25.73027	710.94000	 26.00	
  8.487	-123.723	 24.98202	  5.80513	 14.66627	  5.10302	 15.40486	 -0.25929	 25.72506	710.94000	 26.00	
  8.495	-135.039	 24.95452	  4.89575	 15.83303	  5.87467	 14.37259	 -0.24561	 25.72566	710.98999	 26.00	
  8.494	-146.194	 24.93116	  4.17915	 16.74123	  6.80177	 13.20242	 -0.27794	 25.72008	711.03998	 26.10	
  8.502	-157.493	 24.91370	  3.68864	 17.40576	  7.80104	 11.91385	 -0.31082	 25.73190	710.92999	 26.10	
  8.491	-168.704	 24.90358	  3.35935	 17.75607	  9.08377	 10.52592	 -0.27732	 25.72152	710.98999	 26.10	
  8.500	180.000	 24.90687	  3.27049	 17.83573	 10.43519	  9.12191	 -0.31656	 25.73878	711.03998	 26.10	
 10.200	180.000	 24.44362	  1.73492	 18.98487	 10.09621	  8.63869	 -0.55641	 25.72598	711.03003	 26.10	
 10.191	-170.497	 24.44439	  1.79207	 18.97352	  8.71219	 10.06434	 -0.56327	 25.72603	711.08002	 26.10	
 10.210	-161.034	 24.45657	  2.06612	 18.69224	  7.38073	 11.48974	 -0.56025	 25.73298	710.95001	 26.10	
 10.194	-151.526	 24.48425	  2.49300	 18.13524	  6.18052	 12.83669	 -0.53497	 25.73120	711.00000	 26.10	
 10.190	-142.105	 24.50152	  3.03270	 17.32063	  5.36220	 14.09945	 -0.50294	 25.72756	711.01001	 26.10	
 10.215	-132.646	 24.51843	  3.77751	 16.31893	  4.41287	 15.30750	 -0.50364	 25.73088	710.96997	 26.10	
 10.203	-123.092	 24.54046	  4.70684	 15.08826	  3.64085	 16.34771	 -0.50801	 25.71961	711.02002	 26.10	
 10.192	-113.678	 24.58669	  5.78751	 13.83955	  3.07881	 17.15573	 -0.51930	 25.73976	710.95001	 26.10	
 10.208	-104.249	 24.61017	  7.01940	 12.51884	  2.69046	 17.74302	 -0.49956	 25.74454	711.10999	 26.20	
 10.210	-94.801	 24.65018	  8.32825	 11.16572	  2.48257	 18.10417	 -0.47688	 25.73936	710.97998	 26.20	
 10.210	-85.199	 24.66250	  9.66057	  9.81132	  2.40013	 18.19000	 -0.47926	 25.72617	710.94000	 26.20	
 10.208	-75.751	 24.70046	 11.04873	  8.51474	  2.55822	 18.02436	 -0.48846	 25.73409	711.02002	 26.20	
 10.192	-66.322	 24.71577	 12.40091	  7.25663	  2.87407	 17.60392	 -0.47844	 25.72059	711.07001	 26.20	
 10.203	-56.908	 24.75127	 13.74721	  6.10820	  3.40203	 16.96111	 -0.44174	 25.73967	711.00000	 26.20	
 10.215	-47.354	 24.77385	 15.01476	  5.05936	  4.10233	 16.05621	 -0.41517	 25.73969	710.89001	 26.20	
 10.190	-37.895	 24.79438	 16.13428	  4.20090	  4.97757	 14.96209	 -0.39295	 25.73033	710.91998	 26.20	
 10.194	-28.474	 24.79483	 17.00954	  3.49421	  5.94974	 13.74933	 -0.37793	 25.72009	710.90002	 26.20	
 10.210	-18.966	 24.80457	 17.68322	  3.01712	  7.02724	 12.45515	 -0.31504	 25.73145	710.96997	 26.20	
 10.191	 -9.503	 24.81089	 18.10313	  2.73600	  8.16405	 11.05742	 -0.26054	 25.72119	710.88000	 26.20	
 10.200	  0.000	 24.81135	 18.28959	  2.51915	  9.52133	  9.62515	 -0.21135	 25.73020	710.78998	 26.20	
 10.191	  9.503	 24.81772	 18.20800	  2.57553	 10.88836	  8.23950	 -0.21658	 25.73924	710.94000	 26.20	
 10.210	 18.966	 24.78671	 17.88175	  2.75583	 12.26638	  6.87091	 -0.21049	 25.72895	710.78003	 26.20	
 10.194	 28.474	 24.77795	 17.31073	  3.12797	 13.56836	  5.62000	 -0.19928	 25.73832	710.92999	 26.20	
 10.190	 37.895	 24.76084	 16.50749	  3.65172	 14.83788	  4.53661	 -0.19929	 25.73490	710.83002	 26.30	
 10.215	 47.354	 24.70684	 15.46319	  4.38161	 16.00270	  3.55954	 -0.25267	 25.73117	710.90997	 26.30	
 10.203	 56.908	 24.67071	 14.24480	  5.30693	 17.06217	  2.77405	 -0.31670	 25.72224	711.03998	 26.30	
 10.192	 66.322	 24.64423	 12.95779	  6.37675	 17.84429	  2.19207	 -0.35650	 25.73303	710.91998	 26.30	
 10.208	 75.751	 24.61736	 11.57404	  7.59468	 18.51164	  1.79213	 -0.37241	 25.72025	711.06000	 26.30	
 10.210	 85.199	 24.57710	 10.22260	  8.89247	 18.79646	  1.52290	 -0.38265	 25.72635	710.88000	 26.30	
 10.210	 94.801	 24.55530	  8.83101	 10.24290	 18.87183	  1.48826	 -0.43307	 25.72174	710.79999	 26.30	
 10.208	104.249	 24.54761	  7.50842	 11.60900	 18.67278	  1.62479	 -0.48456	 25.73135	710.88000	 26.30	
 10.192	113.678	 24.52134	  6.26828	 12.92056	 18.21289	  1.92745	 -0.51457	 25.72606	710.83002	 26.30	
 10.203	123.092	 24.49706	  5.08519	 14.24518	 17.53922	  2.34759	 -0.49810	 25.72777	710.90002	 26.30	
 10.215	132.646	 24.47906	  4.09515	 15.50778	 16.48718	  3.00861	 -0.50781	 25.73466	710.82001	 26.30	
 10.190	142.105	 24.45667	  3.26777	 16.65383	 15.32092	  3.83784	 -0.54030	 25.72858	710.84998	 26.30	
 10.194	151.526	 24.45222	  2.63348	 17.56151	 14.11370	  4.82512	 -0.57955	 25.73398	710.89001	 26.30	
 10.210	161.034	 24.43693	  2.15950	 18.22046	 12.82468	  5.98179	 -0.58239	 25.72323	710.83002	 26.40	
 10.191	170.497	 24.43230	  1.89061	 18.78398	 11.46476	  7.28017	 -0.57076	 25.72297	710.81000	 26.40	
 11.899	171.783	 23.90579	  0.34147	 19.80874	 11.07566	  6.75705	 -0.77409	 25.74903	710.81000	 26.40	
 11.890	163.610	 23.91425	  0.60180	 19.41843	 12.46326	  5.47849	 -0.79741	 25.74466	710.85999	 26.40	
 11.889	155.445	 23.90982	  1.01353	 18.74571	 13.76144	  4.31115	 -0.82129	 25.73690	710.84998	 26.40	
 11.909	147.299	 23.90900	  1.48974	 17.91294	 15.03803	  3.28305	 -0.82493	 25.72495	710.87000	 26.40	
 11.902	139.148	 23.92529	  2.18926	 16.93678	 16.24794	  2.36371	 -0.78653	 25.73350	710.85999	 26.40	
 11.894	130.867	 23.95279	  3.08615	 15.71650	 17.41075	  1.58961	 -0.76549	 25.73652	710.96002	 26.40	
 11.897	122.732	 23.96221	  4.13360	 14.43336	 18.35832	  1.00215	 -0.75937	 25.72218	710.95001	 26.40	
 11.903	114.597	 23.99273	  5.23144	 13.12394	 19.06849	  0.56011	 -0.77054	 25.73027	710.98999	 26.40	
 11.893	106.346	 24.01937	  6.47125	 11.79159	 19.57626	  0.28450	 -0.75535	 25.73237	710.92999	 26.40	
 11.892	 98.155	 24.03863	  7.78565	 10.40598	 19.82932	  0.10761	 -0.71605	 25.72721	711.00000	 26.40	
 11.900	 90.000	 24.06235	  9.14985	  9.04310	 19.87938	  0.05808	 -0.67399	 25.73612	710.97998	 26.40	
 11.892	 81.845	 24.08992	 10.53057	  7.72714	 19.71394	  0.19627	 -0.63215	 25.72824	710.98999	 26.40	
 11.893	 73.654	 24.12667	 11.89815	  6.43582	 19.34558	  0.50415	 -0.61883	 25.73323	711.02002	 26.40	
 11.903	 65.403	 24.15585	 13.27298	  5.23381	 18.77865	  0.90692	 -0.62549	 25.73276	711.12000	 26.40	
 11.897	 57.268	 24.18305	 14.58216	  4.17790	 17.90211	  1.42898	 -0.59603	 25.73348	710.96002	 26.40	
 11.894	 49.133	 24.20902	 15.80904	  3.25778	 16.90940	  2.17620	 -0.51929	 25.73467	711.01001	 26.40	
 11.902	 40.852	 24.24290	 16.95280	  2.72079	 15.70922	  3.03296	 -0.46113	 25.74382	710.91998	 26.40	
 11.909	 32.701	 24.26849	 17.83322	  2.12968	 14.44096	  4.05299	 -0.44408	 25.73903	711.03003	 26.40	
 11.889	 24.555	 24.29324	 18.53462	  1.68295	 13.15579	  5.18249	 -0.45325	 25.73146	710.92999	 26.50	
 11.890	 16.390	 24.31375	 19.02792	  1.41460	 11.77199	  6.45777	 -0.45868	 25.72599	711.03003	 26.50	
 11.899	  8.217	 24.33418	 19.34046	  1.21722	 10.37593	  7.80825	 -0.46755	 25.73432	710.96997	 26.50	
 11.900	  0.000	 24.33721	 19.41132	  1.20962	  8.98515	  9.22724	 -0.46657	 25.73237	711.02002	 26.50	
 11.899	 -8.217	 24.33574	 19.24085	  1.35376	  7.59484	 10.67195	 -0.50240	 25.73426	710.95001	 26.50	
 11.890	-16.390	 24.33955	 18.86123	  1.62694	  6.53882	 12.10402	 -0.56402	 25.74098	711.09003	 26.50	
 11.889	-24.555	 24.32170	 18.25428	  2.07163	  5.39421	 13.45644	 -0.60357	 25.73742	710.90002	 26.50	
 11.909	-32.701	 24.31114	 17.45642	  2.66297	  4.34212	 14.74154	 -0.63885	 25.74347	710.94000	 26.50	
 11.902	-40.852	 24.29188	 16.46397	  3.10047	  3.40895	 15.94522	 -0.65625	 25.72385	711.01001	 26.50	
 11.894	-49.133	 24.27597	 15.28097	  4.00398	  2.58515	 17.01616	 -0.66539	 25.72617	710.94000	 26.50	
 11.897	-57.268	 24.26799	 14.00694	  5.06794	  1.94594	 17.88138	 -0.68857	 25.73139	711.03998	 26.50	
 11.903	-65.403	 24.23289	 12.66666	  6.20843	  1.45405	 18.54092	 -0.71066	 25.72496	710.96997	 26.50	
 11.893	-73.654	 24.21206	 11.25829	  7.45053	  1.05486	 19.01444	 -0.70376	 25.72441	711.07001	 26.50	
 11.892	-81.845	 24.18537	  9.89135	  8.78471	  0.84831	 19.26472	 -0.68445	 25.72824	711.00000	 26.50	
 11.900	-90.000	 24.15575	  8.51211	 10.12950	  0.81584	 19.28463	 -0.66461	 25.73921	710.96997	 26.50	
 11.892	-98.155	 24.13097	  7.21384	 11.46806	  0.95615	 19.08551	 -0.66169	 25.74304	710.96997	 26.50	
 11.893	-106.346	 24.07176	  5.92006	 12.80987	  1.24011	 18.64287	 -0.68608	 25.72030	711.13000	 26.50	
 11.903	-114.597	 24.06478	  4.70736	 14.16317	  1.64371	 18.01114	 -0.71375	 25.74873	711.03003	 26.50	
 11.897	-122.732	 24.03338	  3.63232	 15.43248	  2.21693	 17.17346	 -0.71476	 25.73562	711.03003	 26.50	
 11.894	-130.867	 24.00308	  2.68751	 16.68021	  2.92724	 16.17359	 -0.69896	 25.75057	711.01001	 26.60	
 11.902	-139.148	 23.97055	  1.88506	 17.74867	  3.81132	 14.99296	 -0.70190	 25.73576	710.95001	 26.60	
 11.909	-147.299	 23.94938	  1.27791	 18.60139	  4.81926	 13.71821	 -0.72060	 25.72958	711.13000	 26.60	
 11.889	-155.445	 23.93686	  0.80071	 19.25699	  5.94745	 12.39010	 -0.74699	 25.73603	711.02002	 26.60	
 11.890	-163.610	 23.91432	  0.40949	 19.68006	  7.10943	 10.99297	 -0.77310	 25.74055	710.98999	 26.60	
 11.899	-171.783	 23.90427	  0.23112	 19.93524	  8.29290	  9.55661	 -0.78597	 25.73551	711.06000	 26.60	
 11.900	180.000	 23.88534	  0.17697	 19.97329	  9.68677	  8.10772	 -0.78434	 25.72748	710.87000	 26.60	
 13.600	180.000	 23.26984	 -1.47881	 20.89894	  9.22427	  7.52767	 -0.95665	 25.74022	710.91998	 26.60	
 13.608	-172.853	 23.24878	 -1.44025	 20.88964	  7.82833	  8.92369	 -0.96945	 25.73406	710.90997	 26.60	
 13.611	-165.583	 23.26541	 -1.36205	 20.69595	  6.64105	 10.40225	 -0.93549	 25.75014	710.95001	 26.60	
 13.601	-158.353	 23.27186	 -1.00584	 20.27452	  5.44475	 11.82125	 -0.90706	 25.72132	711.02002	 26.60	
 13.609	-151.210	 23.30729	 -0.53790	 19.71985	  4.30709	 13.20572	 -0.85853	 25.73313	710.96997	 26.60	
 13.611	-143.999	 23.33966	 -0.00308	 19.00000	  3.23463	 14.53043	 -0.82900	 25.74919	710.94000	 26.60	
 13.601	-136.825	 23.35454	  0.74322	 18.04313	  2.27180	 15.78057	 -0.81093	 25.73645	710.94000	 26.60	
 13.596	-129.640	 23.38436	  1.55992	 16.97695	  1.46530	 16.90080	 -0.79910	 25.72925	710.98999	 26.60	
 13.611	-122.431	 23.42352	  2.51123	 15.73185	  0.76414	 17.94151	 -0.79975	 25.74921	711.03003	 26.60	
 13.604	-115.211	 23.43700	  3.57713	 14.41437	  0.21174	 18.78448	 -0.79846	 25.72668	710.98999	 26.60	
 13.595	-108.042	 23.47226	  4.72641	 13.07167	 -0.22571	 19.46157	 -0.78657	 25.73555	710.95001	 26.60	
 13.607	-100.793	 23.49229	  5.98565	 11.72596	 -0.56881	 19.96571	 -0.77131	 25.73396	711.03003	 26.60	
 13.601	-93.617	 23.53888	  7.31349	 10.38025	 -0.72269	 20.26282	 -0.76101	 25.74184	711.00000	 26.60	
 13.601	-86.383	 23.56159	  8.65036	  9.02127	 -0.77161	 20.34796	 -0.78460	 25.73865	711.10999	 26.60	
 13.607	-79.207	 23.59342	 10.06275	  7.66142	 -0.65913	 20.25300	 -0.80647	 25.73343	710.97998	 26.60	
 13.595	-71.958	 23.64033	 11.49038	  6.35286	 -0.37647	 19.93823	 -0.82692	 25.73771	711.03003	 26.60	
 13.604	-64.789	 23.66150	 12.82360	  5.11791	  0.01514	 19.43728	 -0.85308	 25.73171	711.07001	 26.60	
 13.611	-57.569	 23.68396	 14.19089	  3.96239	  0.52287	 18.73423	 -0.84114	 25.72192	711.00000	 26.70	
 13.596	-50.360	 23.70060	 15.49479	  3.18770	  1.08189	 17.86931	 -0.84326	 25.73638	711.04999	 26.70	
 13.601	-43.175	 23.71206	 16.68678	  2.32992	  1.82368	 16.84358	 -0.84792	 25.73973	711.02002	 26.70	
 13.611	-36.001	 23.71883	 17.74437	  1.58525	  2.70158	 15.67037	 -0.84261	 25.72589	710.97998	 26.70	
 13.609	-28.790	 23.73623	 18.66564	  0.98294	  3.70777	 14.37754	 -0.84595	 25.73276	711.04999	 26.70	
 13.601	-21.647	 23.75225	 19.40184	  0.47914	  4.80158	 13.08703	 -0.81998	 25.74430	711.01001	 26.70	
 13.611	-14.417	 23.76417	 19.96351	  0.05805	  5.96472	 11.69093	 -0.78683	 25.74810	710.90002	 26.70	
 13.608	 -7.147	 23.76576	 20.30920	 -0.17872	  7.23781	 10.22075	 -0.74770	 25.74171	710.90997	 26.70	
 13.600	  0.000	 23.77554	 20.44962	 -0.26607	  8.40923	  8.80250	 -0.71778	 25.74065	711.03003	 26.70	
 13.608	  7.147	 23.75657	 20.39640	 -0.28084	  9.77646	  7.39851	 -0.72302	 25.72226	710.88000	 26.70	
 13.611	 14.417	 23.75745	 20.15041	 -0.12890	 11.21833	  6.03788	 -0.72736	 25.74676	711.01001	 26.70	
 13.601	 21.647	 23.73269	 19.68623	  0.13613	 12.61636	  4.77734	 -0.71381	 25.73218	710.97998	 26.70	
 13.609	 28.790	 23.70898	 19.06834	  0.46365	 13.91674	  3.61043	 -0.69842	 25.74017	710.94000	 26.70	
 13.611	 36.001	 23.66700	 18.23797	  0.97098	 15.25102	  2.53056	 -0.70081	 25.73338	710.92999	 26.70	
 13.601	 43.175	 23.63101	 17.25684	  1.61915	 16.48335	  1.57740	 -0.73038	 25.73421	710.88000	 26.70	
 13.596	 50.360	 23.60977	 16.13238	  2.37825	 17.66116	  0.75605	 -0.78861	 25.73870	710.96997	 26.80	
 13.611	 57.569	 23.57886	 14.87373	  3.26506	 18.65790	  0.03030	 -0.86827	 25.74509	710.95001	 26.80	
 13.604	 64.789	 23.54984	 13.51837	  4.02214	 19.48115	 -0.45055	 -0.89575	 25.73387	710.91998	 26.80	
 13.595	 71.958	 23.53365	 12.15515	  5.18017	 20.09989	 -0.81764	 -0.89519	 25.74916	710.90002	 26.80	
 13.607	 79.207	 23.49325	 10.78248	  6.45908	 20.55146	 -1.16855	 -0.89868	 25.74697	710.88000	 26.80	
 13.601	 86.383	 23.46259	  9.37776	  7.78674	 20.76653	 -1.35564	 -0.92446	 25.73629	710.92999	 26.80	
 13.601	 93.617	 23.43973	  7.99216	  9.15025	 20.81935	 -1.40394	 -0.96643	 25.73961	710.90002	 26.80	
 13.607	100.793	 23.39654	  6.62730	 10.50666	 20.67292	 -1.32311	 -1.01725	 25.72296	710.95001	 26.80	
 13.595	108.042	 23.37671	  5.34271	 11.90867	 20.34972	 -1.09616	 -1.04021	 25.72405	710.95001	 26.80	
 13.604	115.211	 23.36085	  4.14733	 13.21512	 19.85318	 -0.80208	 -1.03684	 25.73796	710.90002	 26.80	
 13.611	122.431	 23.33668	  3.01976	 14.57153	 19.13174	 -0.41726	 -1.02541	 25.72924	710.90002	 26.80	
 13.596	129.640	 23.30427	  2.01070	 15.86444	 18.17891	  0.15316	 -1.02326	 25.71859	710.89001	 26.80	
 13.601	136.825	 23.29593	  1.15863	 17.10065	 17.15341	  0.88600	 -1.04279	 25.73873	710.90997	 26.80	
 13.611	143.999	 23.27855	  0.39646	 18.13857	 15.92725	  1.74006	 -1.06160	 25.72582	710.96002	 26.80	
 13.609	151.210	 23.27039	 -0.30238	 19.07061	 14.65171	  2.71639	 -1.08832	 25.73100	710.96002	 26.80	
 13.601	158.353	 23.26867	 -0.81138	 19.79585	 13.36617	  3.74916	 -1.07016	 25.74008	710.84998	 26.80	
 13.611	165.583	 23.24758	 -1.16644	 20.33263	 12.01225	  4.89928	 -1.01623	 25.72814	710.96002	 26.80	
 13.608	172.853	 23.26811	 -1.36609	 20.71894	 10.58475	  6.23299	 -0.98077	 25.73984	710.84003	 26.80	
 15.298	173.587	 22.55114	 -2.66495	 21.59248	 10.07318	  5.62276	 -1.12449	 25.72491	710.97998	 26.80	
 15.291	167.167	 22.54280	 -2.48879	 21.24384	 11.49658	  4.34544	 -1.18692	 25.73829	711.02002	 26.80	
 15.307	160.676	 22.55787	 -2.22712	 20.74105	 12.88942	  3.17332	 -1.24911	 25.74852	710.83002	 26.80	
 15.300	154.261	 22.55153	 -1.84313	 20.06471	 14.19896	  2.11570	 -1.31332	 25.72714	710.96002	 26.80	
 15.288	147.854	 22.56976	 -1.32803	 19.23165	 15.51907	  1.11953	 -1.31103	 25.73136	710.96002	 26.80	
 15.293	141.428	 22.58701	 -0.71475	 18.26292	 16.75708	  0.20982	 -1.28863	 25.73759	710.94000	 26.80	
 15.299	134.985	 22.59980	  0.03094	 17.17805	 17.90337	 -0.58073	 -1.26106	 25.73859	710.92999	 26.80	
 15.305	128.583	 22.61110	  0.92708	 15.90156	 18.95168	 -1.25643	 -1.25874	 25.74018	710.83002	 26.80	
 15.309	122.142	 22.61892	  1.95556	 14.60593	 19.82321	 -1.78179	 -1.27511	 25.73216	710.94000	 26.80	
 15.304	115.711	 22.64866	  3.02743	 13.24244	 20.51241	 -2.13575	 -1.30540	 25.73570	711.00000	 26.80	
 15.297	109.291	 22.67106	  4.21484	 11.96126	 21.03432	 -2.43841	 -1.31692	 25.72301	710.94000	 26.80	
 15.293	102.897	 22.68795	  5.44722	 10.56036	 21.40642	 -2.69449	 -1.30504	 25.73565	710.96997	 26.80	
 15.293	 96.458	 22.70389	  6.78560	  9.17642	 21.61705	 -2.82663	 -1.25700	 25.72685	710.92999	 26.80	
 15.300	 90.000	 22.73920	  8.17695	  7.79136	 21.66333	 -2.84317	 -1.21124	 25.73249	710.92999	 26.80	
 15.293	 83.542	 22.76122	  9.57059	  6.42662	 21.51154	 -2.72419	 -1.18162	 25.73094	710.96997	 26.80	
 15.293	 77.103	 22.79376	 10.98467	  5.09999	 21.20115	 -2.50021	 -1.18129	 25.73409	710.94000	 26.90	
 15.297	 70.709	 22.81306	 12.32833	  4.17152	 20.74072	 -2.20010	 -1.17085	 25.72713	710.91998	 26.90	
 15.304	 64.289	 22.84802	 13.70022	  3.12525	 20.13672	 -1.86603	 -1.16491	 25.72942	711.02002	 26.90	
 15.309	 57.858	 22.89128	 15.06712	  2.13822	 19.34708	 -1.37561	 -1.14113	 25.75025	710.90002	 26.90	
 15.305	 51.417	 22.92825	 16.33042	  1.26635	 18.34204	 -0.67358	 -1.05489	 25.74646	710.95001	 26.90	
 15.299	 45.015	 22.97365	 17.50095	  0.50226	 17.22595	  0.14646	 -0.99690	 25.75523	710.91998	 26.90	
 15.293	 38.572	 23.00356	 18.53192	 -0.15881	 16.02637	  1.03611	 -0.95317	 25.74989	710.90997	 26.90	
 15.288	 32.146	 23.03564	 19.42169	 -0.84483	 14.72219	  2.04559	 -0.93826	 25.74351	710.96002	 26.90	
 15.300	 25.739	 23.07837	 20.16732	 -1.29407	 13.38267	  3.15064	 -0.94922	 25.74930	711.00000	 26.90	
 15.307	 19.324	 23.11431	 20.73983	 -1.67146	 12.03427	  4.31953	 -0.96760	 25.76082	710.97998	 26.90	
 15.291	 12.833	 23.13577	 21.12357	 -1.82994	 10.61961	  5.58615	 -0.96424	 25.74951	710.96997	 26.90	
 15.298	  6.413	 23.12439	 21.33583	 -1.86192	  9.18182	  6.91347	 -0.94419	 25.74356	711.04999	 26.90	
 15.300	  0.000	 23.14652	 21.38838	 -1.91216	  7.80542	  8.30600	 -0.92704	 25.74887	710.98999	 26.90	
 15.298	 -6.413	 23.13056	 21.24739	 -1.82872	  6.65203	  9.77766	 -0.92781	 25.73794	711.02002	 26.90	
 15.291	-12.833	 23.13772	 20.92486	 -1.56915	  5.39910	 11.23761	 -0.95827	 25.74536	711.06000	 26.90	
 15.307	-19.324	 23.11154	 20.44250	 -1.31654	  4.20927	 12.63409	 -0.97535	 25.74840	710.97998	 26.90	
 15.300	-25.739	 23.10867	 19.77421	 -0.83390	  3.10553	 13.98072	 -0.98212	 25.76007	711.10999	 26.90	
 15.288	-32.146	 23.08311	 18.92960	 -0.11400	  2.07602	 15.26698	 -0.98861	 25.74760	711.04999	 26.90	
 15.293	-38.572	 23.06353	 17.93081	  0.53675	  1.13274	 16.50191	 -0.95738	 25.72878	711.04999	 26.90	
 15.299	-45.015	 23.05182	 16.83025	  1.30326	  0.31649	 17.63358	 -0.94349	 25.74094	711.02002	 26.90	
 15.305	-51.417	 23.03707	 15.61126	  2.17497	 -0.38356	 18.66540	 -0.92628	 25.74059	711.03003	 26.90	
 15.309	-57.858	 23.00862	 14.29222	  3.16421	 -0.97449	 19.55552	 -0.92893	 25.74327	710.98999	 26.90	
 15.304	-64.289	 22.96863	 12.88858	  4.22034	 -1.43380	 20.23357	 -0.90164	 25.72195	711.06000	 26.90	
 15.297	-70.709	 22.97479	 11.57456	  5.18070	 -1.74086	 20.77326	 -0.87006	 25.73829	711.04999	 26.90	
 15.293	-77.103	 22.94304	 10.20262	  6.45816	 -1.97068	 21.10597	 -0.83832	 25.73146	710.90002	 26.90	
 15.293	-83.542	 22.89765	  8.76814	  7.82467	 -2.11489	 21.26415	 -0.81549	 25.73395	710.92999	 27.00	
 15.300	-90.000	 22.86580	  7.38463	  9.20175	 -2.15914	 21.26995	 -0.79791	 25.73592	710.98999	 27.00	
 15.293	-96.458	 22.82546	  6.04634	 10.55877	 -2.07669	 21.08004	 -0.79142	 25.72796	710.98999	 27.00	
 15.293	-102.897	 22.80132	  4.75404	 11.90529	 -1.91723	 20.72470	 -0.79404	 25.73200	710.96002	 27.00	
 15.297	-109.291	 22.75268	  3.53764	 13.20426	 -1.65304	 20.19198	 -0.80127	 25.72181	711.00000	 27.00	
 15.304	-115.711	 22.73433	  2.39026	 14.57404	 -1.26769	 19.51529	 -0.82237	 25.73716	710.95001	 27.00	
 15.309	-122.142	 22.70103	  1.37868	 15.87958	 -0.73928	 18.63218	 -0.83980	 25.73480	710.97998	 27.00	
 15.305	-128.583	 22.67951	  0.40851	 17.14548	 -0.03888	 17.61717	 -0.83467	 25.73915	711.03998	 27.00	
 15.299	-134.985	 22.66073	 -0.41967	 18.21878	  0.76768	 16.49878	 -0.86048	 25.73400	710.98999	 27.00	
 15.293	-141.428	 22.63508	 -1.09480	 19.24096	  1.67428	 15.26218	 -0.87813	 25.72664	710.97998	 27.00	
 15.288	-147.854	 22.61420	 -1.67861	 20.05546	  2.67622	 13.95774	 -0.91861	 25.73934	710.96997	 27.00	
 15.300	-154.261	 22.57938	 -2.17093	 20.71956	  3.77584	 12.57788	 -0.97008	 25.72743	710.90002	 27.00	
 15.307	-160.676	 22.54320	 -2.53735	 21.24828	  4.92473	 11.18769	 -1.02042	 25.72216	711.01001	 27.00	
 15.291	-167.167	 22.53727	 -2.76249	 21.59564	  6.16673	  9.74473	 -1.06552	 25.74197	711.07001	 27.00	
 15.298	-173.587	 22.52347	 -2.82673	 21.75446	  7.32592	  8.26130	 -1.08466	 25.72184	710.96002	 27.00	
 15.300	180.000	 22.53031	 -2.78343	 21.75349	  8.68145	  6.92348	 -1.10481	 25.71719	710.91998	 27.00	
 17.000	180.000	 21.74005	 -3.99467	 22.57997	  8.09137	  6.26203	 -1.19101	 25.73889	710.88000	 27.00	
 16.990	-174.179	 21.72598	 -4.01455	 22.57385	  6.78209	  7.60878	 -1.13567	 25.72651	710.89001	 27.00	
 17.009	-168.383	 21.71203	 -3.96552	 22.42496	  5.59428	  9.02979	 -1.08409	 25.72727	710.96002	 27.00	
 17.000	-162.596	 21.71706	 -3.84431	 22.13445	  4.37675	 10.40976	 -1.04022	 25.71729	710.88000	 27.00	
 16.990	-156.759	 21.74529	 -3.54245	 21.66166	  3.21928	 11.83648	 -0.96823	 25.71378	710.90002	 27.00	
 16.995	-150.919	 21.78582	 -3.10761	 21.03967	  2.08900	 13.26031	 -0.92129	 25.72538	710.94000	 27.00	
 16.988	-145.161	 21.83120	 -2.63563	 20.30260	  1.08044	 14.59721	 -0.88854	 25.73980	710.83002	 27.00	
 17.014	-139.343	 21.83205	 -2.10818	 19.42225	  0.11596	 15.89036	 -0.84469	 25.72018	710.90997	 27.00	
 17.007	-133.546	 21.86772	 -1.48133	 18.36352	 -0.74907	 17.11182	 -0.81089	 25.73582	710.90997	 27.00	
 17.001	-127.699	 21.87907	 -0.73399	 17.21815	 -1.49011	 18.23070	 -0.80390	 25.72074	710.82001	 27.00	
 17.006	-121.937	 21.90211	  0.13665	 15.97406	 -2.07663	 19.23125	 -0.78144	 25.72112	710.90997	 27.10	
 17.002	-116.134	 21.93595	  1.15446	 14.67936	 -2.54278	 20.09455	 -0.76868	 25.72372	710.83002	 27.10	
 17.001	-110.310	 21.96056	  2.32282	 13.30396	 -2.88960	 20.81631	 -0.75549	 25.71976	710.90997	 27.10	
 16.988	-104.517	 21.99331	  3.49200	 11.99602	 -3.15228	 21.38165	 -0.74430	 25.71487	710.90002	 27.10	
 17.008	-98.662	 22.03138	  4.74047	 10.63756	 -3.33092	 21.80709	 -0.74092	 25.71530	710.87000	 27.10	
 16.996	-92.909	 22.07691	  6.03929	  9.31152	 -3.42964	 22.07763	 -0.74471	 25.73310	710.92999	 27.10	
 16.996	-87.091	 22.09964	  7.38458	  7.93732	 -3.46534	 22.15326	 -0.77837	 25.71701	710.89001	 27.10	
 17.012	-81.253	 22.12015	  8.77798	  6.55836	 -3.42343	 22.09184	 -0.79323	 25.71418	710.91998	 27.10	
 16.988	-75.483	 22.16867	 10.19936	  5.22980	 -3.26633	 21.86269	 -0.81702	 25.71606	710.95001	 27.10	
 17.001	-69.690	 22.18604	 11.57389	  4.28177	 -3.08710	 21.48614	 -0.84121	 25.71520	710.85999	 27.10	
 17.002	-63.866	 22.21428	 12.93438	  3.15977	 -2.79411	 20.94518	 -0.87054	 25.73021	710.94000	 27.10	
 17.006	-58.063	 22.22408	 14.31548	  2.08466	 -2.38304	 20.22806	 -0.88466	 25.72458	710.90997	 27.10	
 17.001	-52.301	 22.24939	 15.63101	  1.12765	 -1.84655	 19.37640	 -0.90858	 25.71869	710.94000	 27.10	
 17.007	-46.454	 22.27625	 16.89277	  0.05625	 -1.20376	 18.37161	 -0.93402	 25.72645	710.94000	 27.10	
 17.014	-40.657	 22.30623	 18.05365	 -0.72432	 -0.44724	 17.26261	 -0.97832	 25.73289	710.94000	 27.10	
 16.988	-34.839	 22.33666	 19.07167	 -1.34465	  0.45403	 16.08419	 -1.02149	 25.74344	711.01001	 27.10	
 16.995	-29.081	 22.33004	 19.96284	 -1.88136	  1.40670	 14.79576	 -1.04835	 25.72906	710.90002	 27.10	
 16.990	-23.241	 22.36097	 20.75021	 -2.31519	  2.47738	 13.42678	 -1.06402	 25.73270	710.90002	 27.10	
 17.000	-17.404	 22.37154	 21.35892	 -2.65875	  3.57547	 12.08611	 -1.07631	 25.73479	710.84998	 27.10	
 17.009	-11.617	 22.38270	 21.80800	 -2.92421	  4.72104	 10.68491	 -1.09255	 25.73674	710.96002	 27.10	
 16.990	 -5.821	 22.39246	 22.08963	 -3.06611	  6.00176	  9.21378	 -1.08266	 25.72997	710.98999	 27.10	
 17.000	  0.000	 22.38901	 22.20484	 -3.15390	  7.16555	  7.77960	 -1.11771	 25.70824	710.84003	 27.10	
 16.990	  5.821	 22.38881	 22.16588	 -3.18262	  8.47318	  6.41761	 -1.15666	 25.72400	710.87000	 27.10	
 17.009	 11.617	 22.37644	 21.99632	 -3.15298	  9.91406	  5.09419	 -1.18823	 25.72443	710.84998	 27.10	
 17.000	 17.404	 22.35688	 21.64928	 -3.03124	 11.32123	  3.85165	 -1.21090	 25.72845	710.85999	 27.10	
 16.990	 23.241	 22.32179	 21.13097	 -2.83741	 12.69979	  2.67333	 -1.22770	 25.72086	710.90002	 27.10	
 16.995	 29.081	 22.28219	 20.46613	 -2.52198	 14.05266	  1.53043	 -1.21336	 25.72022	710.88000	 27.10	
 16.988	 34.839	 22.24472	 19.66281	 -2.07698	 15.37791	  0.50699	 -1.20901	 25.72548	710.91998	 27.10	
 17.014	 40.657	 22.20729	 18.72691	 -1.53642	 16.64432	 -0.44443	 -1.23937	 25.72973	710.91998	 27.10	
 17.007	 46.454	 22.17182	 17.62972	 -0.85024	 17.85367	 -1.32614	 -1.26270	 25.72547	710.96997	 27.10	
 17.001	 52.301	 22.12952	 16.41907	 -0.08876	 18.94063	 -2.10756	 -1.33802	 25.72128	710.92999	 27.10	
 17.006	 58.063	 22.10153	 15.15949	  0.88620	 19.90517	 -2.72717	 -1.41563	 25.72829	710.94000	 27.20	
 17.002	 63.866	 22.08198	 13.83422	  1.95051	 20.68984	 -3.15739	 -1.44189	 25.73223	711.03003	 27.20	
 17.001	 69.690	 22.04954	 12.47471	  2.97135	 21.31737	 -3.47675	 -1.45395	 25.72361	710.91998	 27.20	
 16.988	 75.483	 22.01694	 11.08349	  4.07923	 21.84798	 -3.83792	 -1.45506	 25.73164	710.96002	 27.20	
 17.012	 81.253	 21.97335	  9.69489	  5.06079	 22.21338	 -4.04604	 -1.45403	 25.71516	711.03003	 27.20	
 16.996	 87.091	 21.93976	  8.27605	  6.37117	 22.41606	 -4.22547	 -1.47295	 25.70869	710.96997	 27.20	
 16.996	 92.909	 21.93018	  6.89830	  7.76363	 22.49595	 -4.27519	 -1.51210	 25.74062	710.97998	 27.20	
 17.008	 98.662	 21.88801	  5.55922	  9.13200	 22.38408	 -4.22814	 -1.56829	 25.73348	710.98999	 27.20	
 16.988	104.517	 21.89315	  4.26734	 10.54110	 22.10777	 -4.03314	 -1.60012	 25.73334	710.97998	 27.20	
 17.001	110.310	 21.87432	  3.05232	 11.93882	 21.68138	 -3.75553	 -1.62267	 25.72830	710.98999	 27.20	
 17.002	116.134	 21.85667	  1.85871	 13.26767	 21.10465	 -3.43584	 -1.58978	 25.72695	711.02002	 27.20	
 17.006	121.937	 21.83239	  0.81097	 14.58494	 20.43355	 -3.09289	 -1.54444	 25.72451	711.00000	 27.20	
 17.001	127.699	 21.81136	 -0.11019	 15.86284	 19.59408	 -2.65777	 -1.52422	 25.73240	711.03003	 27.20	
 17.007	133.546	 21.78100	 -0.99499	 17.13150	 18.57349	 -2.04860	 -1.49507	 25.72353	711.00000	 27.20	
 17.014	139.343	 21.76088	 -1.72484	 18.30794	 17.44476	 -1.29856	 -1.49993	 25.72928	710.92999	 27.20	
 16.988	145.161	 21.75891	 -2.35878	 19.31199	 16.25105	 -0.44513	 -1.51075	 25.72627	710.94000	 27.20	
 16.995	150.919	 21.74412	 -2.88245	 20.20487	 14.97859	  0.48756	 -1.52733	 25.73394	711.03998	 27.20	
 16.990	156.759	 21.73755	 -3.22545	 20.98096	 13.62102	  1.51272	 -1.48350	 25.72969	711.03003	 27.20	
 17.000	162.596	 21.73508	 -3.53883	 21.61560	 12.30890	  2.58385	 -1.40505	 25.72946	711.01001	 27.20	
 17.009	168.383	 21.72007	 -3.77889	 22.08571	 10.92669	  3.72454	 -1.31948	 25.72854	710.82001	 27.20	
 16.990	174.179	 21.74023	 -3.92491	 22.40840	  9.52729	  4.96576	 -1.24625	 25.73583	710.96997	 27.20	
 18.709	174.675	 20.82507	 -5.20932	 23.15112	  8.83244	  4.28634	 -1.28476	 25.71997	710.96997	 27.20	
 18.703	169.441	 20.82466	 -5.11203	 22.85590	 10.24122	  3.07744	 -1.36194	 25.73347	711.10999	 27.20	
 18.691	164.085	 20.84301	 -4.84953	 22.40133	 11.67096	  1.91802	 -1.45285	 25.72974	711.00000	 27.20	
 18.706	158.818	 20.85054	 -4.52902	 21.83628	 13.03775	  0.81407	 -1.54640	 25.74554	710.98999	 27.20	
 18.695	153.537	 20.88072	 -4.08942	 21.09070	 14.39713	 -0.19845	 -1.60228	 25.74077	710.96997	 27.20	
 18.704	148.255	 20.86131	 -3.67658	 20.24009	 15.67699	 -1.14686	 -1.60557	 25.71488	711.10999	 27.20	
 18.698	142.952	 20.87754	 -3.18435	 19.32048	 16.90691	 -1.98362	 -1.62304	 25.72845	710.96997	 27.20	
 18.699	137.625	 20.88496	 -2.63253	 18.26257	 18.07398	 -2.74145	 -1.62637	 25.72221	711.07001	 27.20	
 18.705	132.343	 20.90930	 -1.97124	 17.08943	 19.15417	 -3.38779	 -1.64018	 25.72106	711.04999	 27.20	
 18.713	127.067	 20.92449	 -1.14750	 15.83212	 20.11991	 -3.92703	 -1.68784	 25.70288	711.00000	 27.20	
 18.700	121.794	 20.98136	 -0.24252	 14.54020	 20.96321	 -4.34345	 -1.73899	 25.71705	711.03003	 27.30	
 18.698	116.504	 20.99708	  0.73954	 13.21957	 21.68220	 -4.73132	 -1.77434	 25.71712	711.04999	 27.30	
 18.707	111.165	 21.00363	  1.84160	 11.85305	 22.28124	 -5.08886	 -1.79727	 25.72746	711.01001	 27.20	
 18.690	105.863	 21.02288	  3.06600	 10.48003	 22.72953	 -5.31967	 -1.79187	 25.72828	711.02002	 27.20	
 18.696	100.583	 21.03099	  4.31780	  9.09534	 23.04256	 -5.53407	 -1.76117	 25.72652	711.01001	 27.30	
 18.700	 95.309	 21.03300	  5.62976	  7.67851	 23.19390	 -5.65082	 -1.71152	 25.70162	711.13000	 27.30	
 18.700	 90.000	 21.07169	  6.98418	  6.32148	 23.23202	 -5.64719	 -1.67917	 25.72039	711.10999	 27.30	
 18.700	 84.691	 21.08351	  8.36379	  5.20104	 23.10381	 -5.61006	 -1.66731	 25.71763	710.95001	 27.30	
 18.696	 79.417	 21.12837	  9.76882	  3.97226	 22.83750	 -5.42701	 -1.63418	 25.71550	710.98999	 27.30	
 18.690	 74.137	 21.17628	 11.15917	  2.83020	 22.43748	 -5.12091	 -1.64643	 25.73006	710.94000	 27.30	
 18.707	 68.835	 21.19632	 12.51332	  1.57775	 21.87422	 -4.80418	 -1.67401	 25.71234	711.03003	 27.30	
 18.698	 63.496	 21.24215	 13.94307	  0.56939	 21.17675	 -4.41925	 -1.64182	 25.71789	711.03998	 27.30	
 18.700	 58.206	 21.26764	 15.25614	 -0.31758	 20.36910	 -3.98313	 -1.60079	 25.70533	710.96997	 27.30	
 18.713	 52.933	 21.29079	 16.53275	 -1.16440	 19.44315	 -3.49325	 -1.54700	 25.71638	710.97998	 27.30	
 18.705	 47.657	 21.32751	 17.72449	 -1.88650	 18.40671	 -2.78817	 -1.47739	 25.71930	711.02002	 27.30	
 18.699	 42.375	 21.36576	 18.85079	 -2.55671	 17.23226	 -1.94373	 -1.44346	 25.72658	711.00000	 27.30	
 18.698	 37.048	 21.41099	 19.85097	 -3.14489	 15.96496	 -1.01756	 -1.40720	 25.73686	711.07001	 27.30	
 18.704	 31.745	 21.45158	 20.70197	 -3.58248	 14.67730	 -0.05507	 -1.40828	 25.72388	711.09998	 27.30	
 18.695	 26.463	 21.49853	 21.44063	 -3.92311	 13.34754	  1.00259	 -1.40869	 25.72482	711.10999	 27.30	
 18.706	 21.182	 21.53356	 22.03938	 -4.19211	 11.97592	  2.14516	 -1.38638	 25.72437	711.03003	 27.30	
 18.691	 15.915	 21.54993	 22.48596	 -4.37045	 10.58500	  3.31495	 -1.34153	 25.71490	711.02002	 27.30	
 18.703	 10.559	 21.56099	 22.81917	 -4.49298	  9.14954	  4.54981	 -1.31224	 25.72908	711.08002	 27.30	
 18.709	  5.325	 21.57158	 22.99269	 -4.55715	  7.79630	  5.80795	 -1.24519	 25.72780	711.09998	 27.30	
 18.700	  0.000	 21.57503	 23.01542	 -4.55495	  6.49575	  7.17219	 -1.18534	 25.72330	711.09998	 27.30	
 18.709	 -5.325	 21.55537	 22.88562	 -4.47897	  5.26269	  8.58110	 -1.12176	 25.72219	711.10999	 27.30	
 18.703	-10.559	 21.55105	 22.61976	 -4.29942	  4.04535	  9.99281	 -1.08908	 25.72953	711.06000	 27.30	
 18.691	-15.915	 21.56287	 22.20197	 -4.04974	  2.89823	 11.40877	 -1.05869	 25.73028	711.07001	 27.30	
 18.706	-21.182	 21.53805	 21.63094	 -3.75468	  1.78052	 12.80614	 -1.03830	 25.72962	711.02002	 27.30	
 18.695	-26.463	 21.53183	 20.92046	 -3.34295	  0.73919	 14.18823	 -1.00907	 25.72661	711.03998	 27.30	
 18.704	-31.745	 21.50762	 20.10867	 -2.89307	 -0.25375	 15.49904	 -0.96144	 25.72725	711.06000	 27.30	
 18.698	-37.048	 21.47890	 19.13409	 -2.34045	 -1.15453	 16.75734	 -0.91868	 25.71527	711.12000	 27.30	
 18.699	-42.375	 21.46053	 18.05233	 -1.69640	 -1.95655	 17.95523	 -0.88047	 25.72200	710.97998	 27.30	
 18.705	-47.657	 21.43558	 16.86812	 -0.94947	 -2.65068	 19.03972	 -0.82106	 25.71963	711.00000	 27.30	
 18.713	-52.933	 21.42408	 15.61123	 -0.10275	 -3.20907	 19.98043	 -0.80623	 25.72673	711.10999	 27.30	
 18.700	-58.206	 21.41267	 14.29803	  0.88406	 -3.67235	 20.82048	 -0.77682	 25.72672	711.03003	 27.30	
 18.698	-63.496	 21.36874	 12.91948	  2.04561	 -4.06803	 21.52846	 -0.75650	 25.71412	711.03003	 27.30	
 18.707	-68.835	 21.33308	 11.55631	  3.13805	 -4.36293	 22.10099	 -0.72685	 25.71114	711.00000	 27.30	
 18.690	-74.137	 21.33382	 10.19184	  4.29379	 -4.55977	 22.52441	 -0.70395	 25.72430	711.03998	 27.30	
 18.696	-79.417	 21.29850	  8.75570	  5.50155	 -4.73144	 22.80068	 -0.68305	 25.71863	711.00000	 27.30	
 18.700	-84.691	 21.26056	  7.34639	  6.59251	 -4.77734	 22.91810	 -0.67978	 25.72082	711.12000	 27.30	
 18.700	-90.000	 21.22993	  5.98495	  7.96566	 -4.77305	 22.89373	 -0.66660	 25.71984	710.96002	 27.30	
 18.700	-95.309	 21.18401	  4.67985	  9.31568	 -4.73956	 22.72601	 -0.64514	 25.70981	711.10999	 27.30	
 18.696	-100.583	 21.15785	  3.44267	 10.68155	 -4.63774	 22.41494	 -0.65106	 25.71060	711.03998	 27.30	
 18.690	-105.863	 21.13058	  2.24192	 11.99956	 -4.43757	 21.94685	 -0.66848	 25.70659	711.02002	 27.30	
 18.707	-111.165	 21.09609	  1.06375	 13.34330	 -4.16692	 21.36212	 -0.65769	 25.72554	711.09998	 27.40	
 18.698	-116.504	 21.06865	 -0.00322	 14.72132	 -3.81700	 20.61686	 -0.68092	 25.71855	711.04999	 27.30	
 18.700	-121.794	 21.04338	 -0.87581	 16.03259	 -3.32949	 19.72729	 -0.68303	 25.71693	711.00000	 27.40	
 18.713	-127.067	 20.99225	 -1.73587	 17.26691	 -2.78193	 18.73360	 -0.68373	 25.71322	711.02002	 27.40	
 18.705	-132.343	 20.97943	 -2.40405	 18.43252	 -2.09954	 17.65623	 -0.71487	 25.72065	711.03998	 27.30	
 18.699	-137.625	 20.96287	 -3.01424	 19.46387	 -1.34553	 16.45188	 -0.76223	 25.72267	711.09998	 27.40	
 18.698	-142.952	 20.95243	 -3.58278	 20.41715	 -0.50523	 15.17216	 -0.81468	 25.72179	711.02002	 27.40	
 18.704	-148.255	 20.92370	 -4.05620	 21.25143	  0.44383	 13.83834	 -0.84078	 25.72411	711.09003	 27.40	
 18.695	-153.537	 20.89080	 -4.45115	 21.94529	  1.47513	 12.48600	 -0.88902	 25.72729	711.02002	 27.40	
 18.706	-158.818	 20.85601	 -4.81444	 22.51807	  2.60641	 11.06871	 -0.93726	 25.72635	710.97998	 27.40	
 18.691	-164.085	 20.83265	 -5.07519	 22.91438	  3.77639	  9.64805	 -0.98301	 25.70875	711.15997	 27.40	
 18.703	-169.441	 20.83012	 -5.25769	 23.18937	  5.01111	  8.22976	 -1.04647	 25.72015	711.12000	 27.40	
 18.709	-174.675	 20.82524	 -5.29153	 23.31227	  6.16898	  6.86222	 -1.10318	 25.71899	711.10999	 27.40	
 18.700	180.000	 20.83505	 -5.29372	 23.29874	  7.49336	  5.50628	 -1.18758	 25.71960	711.00000	 27.40	
 20.400	180.000	 19.85892	 -6.56155	 23.92576	  6.85860	  4.75082	 -1.16491	 25.70844	711.01001	 27.40	
 20.401	-175.153	 19.86429	 -6.54387	 23.94027	  5.55678	  6.07379	 -1.08213	 25.70631	711.00000	 27.40	
 20.407	-170.264	 19.84699	 -6.53825	 23.83876	  4.34880	  7.44769	 -1.01655	 25.70625	710.94000	 27.40	
 20.410	-165.423	 19.85936	 -6.38784	 23.60636	  3.14653	  8.80483	 -0.95126	 25.71465	710.96002	 27.40	
 20.392	-160.496	 19.89196	 -6.14935	 23.23215	  1.91319	 10.24678	 -0.91200	 25.71945	711.03998	 27.40	
 20.401	-155.705	 19.89345	 -5.91040	 22.72880	  0.69691	 11.61184	 -0.85967	 25.71619	711.07001	 27.40	
 20.405	-150.835	 19.91812	 -5.64318	 22.10973	 -0.22564	 12.94713	 -0.81270	 25.71969	711.06000	 27.40	
 20.397	-145.903	 19.95607	 -5.23568	 21.34472	 -1.07469	 14.33620	 -0.74024	 25.70901	711.21997	 27.40	
 20.392	-141.062	 19.97691	 -4.66995	 20.47201	 -1.94998	 15.67263	 -0.72437	 25.71317	711.21997	 27.40	
 20.396	-136.227	 20.00250	 -4.04402	 19.49631	 -2.74248	 16.93004	 -0.70014	 25.72225	711.09003	 27.40	
 20.408	-131.372	 20.03363	 -3.33468	 18.41401	 -3.41927	 18.09365	 -0.65924	 25.70422	711.09003	 27.40	
 20.410	-126.511	 20.06794	 -2.60748	 17.24689	 -4.00170	 19.17798	 -0.64102	 25.72303	711.06000	 27.40	
 20.400	-121.604	 20.09783	 -1.82562	 15.98480	 -4.53678	 20.18207	 -0.62368	 25.72264	711.08002	 27.40	
 20.403	-116.741	 20.10329	 -0.99945	 14.69206	 -5.01602	 21.03806	 -0.62009	 25.71123	711.09003	 27.40	
 20.413	-111.900	 20.13913	 -0.07913	 13.35376	 -5.39974	 21.80080	 -0.61428	 25.70886	711.07001	 27.40	
 20.398	-107.004	 20.19841	  0.96195	 11.98511	 -5.65375	 22.43661	 -0.61793	 25.71721	711.06000	 27.40	
 20.394	-102.132	 20.24305	  2.10998	 10.67167	 -5.82591	 22.92536	 -0.63133	 25.72240	711.06000	 27.40	
 20.403	-97.332	 20.26649	  3.35428	  9.32589	 -5.94785	 23.28576	 -0.64709	 25.71526	711.13000	 27.40	
 20.392	-92.440	 20.29895	  4.64345	  7.96880	 -6.01394	 23.49985	 -0.60866	 25.70940	711.08002	 27.40	
 20.392	-87.560	 20.33324	  5.94290	  6.62323	 -6.02991	 23.58631	 -0.61990	 25.70035	711.08002	 27.40	
 20.403	-82.668	 20.36118	  7.28553	  5.51332	 -6.09284	 23.57661	 -0.63217	 25.72611	711.07001	 27.40	
 20.394	-77.868	 20.39852	  8.65449	  4.31971	 -5.98867	 23.41155	 -0.63471	 25.72509	711.02002	 27.40	
 20.398	-72.996	 20.41610	 10.06983	  3.10247	 -5.83949	 23.10985	 -0.66994	 25.72450	711.01001	 27.40	
 20.413	-68.100	 20.41961	 11.45685	  1.90729	 -5.63955	 22.65858	 -0.69412	 25.71365	711.06000	 27.40	
 20.403	-63.259	 20.45638	 12.79023	  0.75631	 -5.31877	 22.07372	 -0.70853	 25.71665	710.97998	 27.40	
 20.400	-58.396	 20.48047	 14.14827	 -0.18029	 -4.97215	 21.38292	 -0.74731	 25.72326	711.13000	 27.40	
 20.410	-53.489	 20.50040	 15.48592	 -1.09828	 -4.52870	 20.54221	 -0.76206	 25.71118	711.00000	 27.40	
 20.408	-48.628	 20.53094	 16.77162	 -1.93234	 -4.02450	 19.60974	 -0.78044	 25.72789	710.96997	 27.40	
 20.396	-43.773	 20.54044	 17.95085	 -2.67143	 -3.41633	 18.56666	 -0.81812	 25.71914	711.07001	 27.40	
 20.392	-38.938	 20.56577	 19.06034	 -3.32570	 -2.70494	 17.42411	 -0.87584	 25.72076	711.03003	 27.40	
 20.397	-34.097	 20.58866	 20.06952	 -3.90768	 -1.89717	 16.19552	 -0.89435	 25.71428	711.02002	 27.50	
 20.405	-29.165	 20.61232	 21.00678	 -4.38335	 -0.99507	 14.87993	 -0.96311	 25.73672	711.01001	 27.50	
 20.401	-24.295	 20.62805	 21.77767	 -4.81079	 -0.03455	 13.52846	 -0.98009	 25.72701	710.97998	 27.50	
 20.392	-19.504	 20.65591	 22.39560	 -5.14029	  1.03311	 12.15252	 -1.05651	 25.71490	711.06000	 27.50	
 20.410	-14.577	 20.66990	 22.94813	 -5.45047	  2.18645	 10.73783	 -1.09377	 25.72802	710.98999	 27.50	
 20.407	 -9.736	 20.65990	 23.32763	 -5.67535	  3.30068	  9.36600	 -1.12361	 25.72385	711.15002	 27.50	
 20.401	 -4.847	 20.67047	 23.58333	 -5.85784	  4.52984	  7.95420	 -1.20281	 25.73629	710.97998	 27.50	
 20.400	  0.000	 20.67762	 23.68744	 -5.93523	  5.76960	  6.57769	 -1.27943	 25.73021	711.04999	 27.50	
 20.401	  4.847	 20.67041	 23.66833	 -5.94254	  7.00333	  5.23845	 -1.32639	 25.72845	711.01001	 27.50	
 20.407	  9.736	 20.65417	 23.51130	 -5.87650	  8.37245	  3.96992	 -1.41300	 25.71798	711.09003	 27.50	
 20.410	 14.577	 20.63374	 23.23306	 -5.75266	  9.71528	  2.73442	 -1.48738	 25.71959	710.97998	 27.50	
 20.392	 19.504	 20.62715	 22.80641	 -5.59349	 11.15217	  1.55089	 -1.53978	 25.72020	710.98999	 27.50	
 20.401	 24.295	 20.58253	 22.28094	 -5.35789	 12.53930	  0.40897	 -1.57487	 25.72006	710.98999	 27.50	
 20.405	 29.165	 20.55091	 21.59295	 -4.99936	 13.87083	 -0.64203	 -1.61320	 25.71385	711.03003	 27.50	
 20.397	 34.097	 20.52924	 20.79728	 -4.60242	 15.20346	 -1.60288	 -1.62372	 25.72250	711.08002	 27.50	
 20.392	 38.938	 20.48849	 19.90506	 -4.15570	 16.48011	 -2.50650	 -1.64319	 25.73045	711.02002	 27.50	
 20.396	 43.773	 20.43002	 18.85860	 -3.61149	 17.68984	 -3.36718	 -1.68190	 25.70915	711.02002	 27.50	
 20.408	 48.628	 20.41451	 17.76085	 -2.98135	 18.83799	 -4.09682	 -1.71242	 25.73411	711.02002	 27.50	
 20.410	 53.489	 20.37370	 16.54561	 -2.27752	 19.87954	 -4.70016	 -1.76371	 25.73361	710.96997	 27.50	
 20.400	 58.396	 20.32773	 15.23662	 -1.49791	 20.80029	 -5.21536	 -1.81443	 25.70962	711.01001	 27.50	
 20.403	 63.259	 20.27379	 13.90237	 -0.65764	 21.60556	 -5.70626	 -1.84262	 25.71041	710.91998	 27.50	
 20.413	 68.100	 20.24424	 12.53618	  0.30820	 22.31723	 -6.11468	 -1.86566	 25.72174	710.95001	 27.50	
 20.398	 72.996	 20.21742	 11.15294	  1.36394	 22.89361	 -6.39908	 -1.87498	 25.72441	711.03003	 27.50	
 20.394	 77.868	 20.18999	  9.78041	  2.43434	 23.33186	 -6.66438	 -1.87895	 25.70896	710.90997	 27.50	
 20.403	 82.668	 20.14783	  8.41611	  3.78291	 23.65060	 -6.92853	 -1.87021	 25.72020	711.00000	 27.50	
 20.392	 87.560	 20.12909	  7.02239	  5.06219	 23.82312	 -7.01004	 -1.89929	 25.71756	710.95001	 27.50	
 20.392	 92.440	 20.11605	  5.66670	  6.30970	 23.87991	 -6.98757	 -1.94561	 25.72348	710.95001	 27.50	
 20.403	 97.332	 20.07056	  4.35644	  7.56251	 23.78948	 -6.92809	 -1.97575	 25.71103	710.96997	 27.50	
 20.394	102.132	 20.06642	  3.06554	  8.88719	 23.59415	 -6.84287	 -1.98207	 25.71868	710.96997	 27.50	
 20.398	107.004	 20.04477	  1.84758	 10.26640	 23.26156	 -6.69957	 -1.99069	 25.72548	710.98999	 27.50	
 20.413	111.900	 20.01152	  0.67550	 11.66158	 22.78852	 -6.53402	 -1.98064	 25.71655	710.92999	 27.50	
 20.403	116.741	 19.99725	 -0.32256	 13.01280	 22.17047	 -6.21184	 -1.94789	 25.71279	710.91998	 27.50	
 20.400	121.604	 19.98527	 -1.32224	 14.32360	 21.44201	 -5.84967	 -1.88421	 25.71533	710.87000	 27.50	
 20.410	126.511	 19.94870	 -2.21905	 15.66004	 20.59225	 -5.40327	 -1.85392	 25.72486	711.01001	 27.50	
 20.408	131.372	 19.93230	 -2.88560	 16.92092	 19.63683	 -4.84524	 -1.83142	 25.71567	710.94000	 27.50	
 20.396	136.227	 19.91183	 -3.53782	 18.10871	 18.57168	 -4.14168	 -1.81439	 25.70132	710.95001	 27.50	
 20.392	141.062	 19.90547	 -4.16194	 19.21079	 17.43982	 -3.41228	 -1.76082	 25.70310	711.12000	 27.50	
 20.397	145.903	 19.90643	 -4.69403	 20.21626	 16.23922	 -2.62711	 -1.71461	 25.73187	710.97998	 27.50	
 20.405	150.835	 19.87091	 -5.11571	 21.10121	 14.94828	 -1.80748	 -1.64599	 25.70247	711.09003	 27.50	
 20.401	155.705	 19.86678	 -5.50431	 21.86304	 13.65911	 -0.93209	 -1.57724	 25.70910	711.04999	 27.50	
 20.392	160.496	 19.86579	 -5.91852	 22.54177	 12.34640	  0.10333	 -1.50960	 25.71958	710.97998	 27.50	
 20.410	165.423	 19.84575	 -6.22852	 23.10574	 10.93411	  1.21128	 -1.41869	 25.71727	710.89001	 27.50	
 20.407	170.264	 19.84833	 -6.36345	 23.50814	  9.54560	  2.34691	 -1.32833	 25.71960	711.03003	 27.50	
 20.401	175.153	 19.84805	 -6.47651	 23.77445	  8.18011	  3.56944	 -1.27679	 25.70882	710.96997	 27.50	
  0.141	 45.000	 25.77114	 10.59036	 11.21196	 11.21860	 10.35414	  0.48097	 25.72127	710.90997	 27.60	
  4.001	128.691	 25.64883	  8.49126	 12.91214	 13.51463	  7.63203	  0.30160	 25.72149	711.02002	 27.50	
  4.002	 76.995	 25.69241	 11.13151	 10.16835	 14.10820	  7.15106	  0.41160	 25.73993	711.07001	 27.50	
  4.002	 25.892	 25.71720	 13.42983	  8.22822	 12.23376	  9.00028	  0.47903	 25.72999	710.95001	 27.50	
  4.002	-25.892	 25.72280	 13.31334	  8.37135	  9.45212	 11.87077	  0.42851	 25.73104	710.98999	 27.60	
  4.002	-76.995	 25.69294	 10.90273	 10.53339	  7.81347	 13.57609	  0.33799	 25.72250	711.03003	 27.60	
  4.001	-128.691	 25.65799	  8.32254	 13.24269	  8.49475	 12.74836	  0.27371	 25.72882	711.01001	 27.60	
  4.000	180.000	 25.62009	  7.21992	 14.37384	 11.02312	 10.06056	  0.24867	 25.70928	710.90997	 27.60	
  8.000	180.000	 24.99124	  3.72191	 17.47269	 10.51345	  9.23442	 -0.25780	 25.71383	711.07001	 27.60	
  7.991	-152.370	 25.04078	  4.34444	 16.80876	  7.54319	 12.42512	 -0.24420	 25.72394	710.95001	 27.60	
  7.997	-124.550	 25.07887	  6.06623	 14.57606	  5.54809	 15.06694	 -0.19328	 25.71092	711.03003	 27.60	
  8.006	-96.837	 25.15467	  8.75598	 11.61422	  4.49176	 16.54440	 -0.12349	 25.72488	711.00000	 27.60	
  7.988	-69.228	 25.20180	 11.82287	  8.65009	  4.73706	 16.29111	 -0.13623	 25.71830	711.03003	 27.60	
  7.997	-41.563	 25.25009	 14.71499	  6.17654	  6.17562	 14.46780	 -0.04650	 25.71509	711.08002	 27.60	
  8.008	-13.821	 25.26324	 16.53450	  4.73908	  8.54810	 11.59592	  0.02191	 25.72073	711.03003	 27.60	
  8.008	 13.821	 25.26372	 16.65692	  4.60797	 11.64685	  8.40366	  0.07727	 25.73116	711.09998	 27.60	
  7.997	 41.563	 25.20507	 15.07812	  5.68793	 14.55493	  5.61244	  0.09485	 25.71097	711.09998	 27.60	
  7.988	 69.228	 25.14689	 12.28152	  7.93149	 16.70030	  3.92877	 -0.03270	 25.72267	711.15997	 27.60	
  8.006	 96.837	 25.09323	  9.17583	 10.88378	 17.27710	  3.42566	 -0.13091	 25.72574	711.07001	 27.60	
  7.997	124.550	 25.03890	  6.34998	 13.90123	 16.09936	  4.22192	 -0.19757	 25.72235	711.17999	 27.60	
  7.991	152.370	 25.00907	  4.47390	 16.39391	 13.55817	  6.25976	 -0.26226	 25.71950	711.16998	 27.60	
 12.009	161.059	 23.85137	  0.60936	 19.23803	 12.88873	  5.02565	 -0.83949	 25.72787	711.10999	 27.60	
 12.013	142.081	 23.87088	  1.83623	 17.33276	 15.86341	  2.58520	 -0.83259	 25.72588	711.14001	 27.60	
 12.006	123.113	 23.91221	  3.99622	 14.49258	 18.38841	  0.90431	 -0.79950	 25.72151	711.01001	 27.60	
 12.007	104.200	 23.95574	  6.73133	 11.40004	 19.71143	  0.10360	 -0.78745	 25.72298	711.14001	 27.60	
 11.989	 85.301	 24.02540	  9.90215	  8.22607	 19.84190	  0.02361	 -0.67593	 25.71371	711.15002	 27.60	
 12.013	 66.294	 24.09404	 13.15456	  5.23632	 18.87603	  0.74282	 -0.66555	 25.72514	711.10999	 27.60	
 12.012	 47.388	 24.16994	 16.11252	  2.95693	 16.70075	  2.26052	 -0.54410	 25.72817	711.09998	 27.60	
 11.990	 28.440	 24.23425	 18.26286	  1.77972	 13.75079	  4.56667	 -0.47919	 25.71941	710.97998	 27.60	
 11.991	  9.464	 24.28630	 19.34912	  1.14877	 10.57454	  7.54628	 -0.50305	 25.72187	711.10999	 27.60	
 11.991	 -9.464	 24.29708	 19.24700	  1.29389	  7.36644	 10.86574	 -0.54584	 25.72406	711.02002	 27.60	
 11.990	-28.440	 24.29370	 17.94574	  2.25215	  4.83433	 14.06452	 -0.64567	 25.73874	711.09998	 27.60	
 12.012	-47.388	 24.24159	 15.57138	  3.71707	  2.67345	 16.84547	 -0.68451	 25.73028	711.07001	 27.60	
 12.013	-66.294	 24.19564	 12.51982	  6.26757	  1.30821	 18.66155	 -0.72527	 25.72187	711.07001	 27.60	
 11.989	-85.301	 24.11889	  9.27660	  9.30991	  0.74418	 19.34363	 -0.69139	 25.71448	711.09998	 27.60	
 12.007	-104.200	 24.04811	  6.19727	 12.45178	  1.06342	 18.83676	 -0.69315	 25.71637	711.07001	 27.60	
 12.006	-123.113	 23.96925	  3.50782	 15.49294	  2.16491	 17.14746	 -0.72030	 25.70159	711.03998	 27.60	
 12.013	-142.081	 23.91083	  1.56360	 18.07943	  4.09088	 14.54402	 -0.71810	 25.71647	711.04999	 27.60	
 12.009	-161.059	 23.86166	  0.39515	 19.61075	  6.66992	 11.42358	 -0.78330	 25.72479	711.15002	 27.60	
 16.000	180.000	 22.21442	 -3.28603	 22.10032	  8.45997	  6.64186	 -1.13640	 25.72319	711.01001	 27.60	
 15.990	-165.604	 22.19764	 -3.19611	 21.84412	  5.52533	  9.92619	 -1.05744	 25.71026	711.07001	 27.60	
 16.002	-151.165	 22.25634	 -2.44906	 20.68331	  2.78487	 13.21264	 -0.94907	 25.71425	711.12000	 27.60	
 16.002	-136.836	 22.33077	 -1.14793	 18.70260	  0.51565	 16.25187	 -0.85910	 25.71599	711.09003	 27.60	
 15.995	-122.439	 22.37559	  0.81484	 15.98497	 -1.26724	 18.79792	 -0.82583	 25.71096	710.96997	 27.60	
 15.993	-107.966	 22.44872	  3.38606	 12.85248	 -2.23172	 20.59371	 -0.78684	 25.70692	710.91998	 27.60	
 16.005	-93.629	 22.52714	  6.33107	  9.76431	 -2.63936	 21.52484	 -0.77493	 25.71373	710.97998	 27.60	
 15.992	-79.234	 22.60462	  9.55570	  6.56759	 -2.57347	 21.50380	 -0.82316	 25.70546	710.94000	 27.60	
 16.009	-64.774	 22.66120	 12.79065	  3.89674	 -2.02820	 20.59080	 -0.88419	 25.72562	710.84003	 27.60	
 15.997	-50.364	 22.71696	 15.94106	  1.51335	 -0.84196	 18.71374	 -0.92828	 25.70793	710.91998	 27.60	
 15.997	-36.045	 22.75398	 18.55223	 -0.47700	  0.99157	 16.12172	 -0.99304	 25.71118	711.02002	 27.60	
 16.000	-21.597	 22.79385	 20.51511	 -1.71327	  3.39485	 13.06994	 -1.02632	 25.71902	710.95001	 27.60	
 16.003	 -7.169	 22.79880	 21.54912	 -2.34754	  6.16328	  9.77101	 -1.00823	 25.70694	710.89001	 27.60	
 16.003	  7.169	 22.82114	 21.66226	 -2.47639	  9.12659	  6.48123	 -1.04186	 25.71571	711.01001	 27.60	
 16.000	 21.597	 22.76892	 20.85502	 -2.16201	 12.42458	  3.52839	 -1.06734	 25.72884	710.97998	 27.60	
 15.997	 36.045	 22.67815	 19.14216	 -1.23861	 15.57494	  0.94497	 -1.05853	 25.71183	710.97998	 27.60	
 15.997	 50.364	 22.59637	 16.65685	  0.57081	 18.33559	 -1.10990	 -1.15571	 25.72310	711.06000	 27.60	
 16.009	 64.774	 22.50797	 13.59872	  2.72747	 20.44783	 -2.48657	 -1.28973	 25.71101	710.94000	 27.70	
 15.992	 79.234	 22.46172	 10.37782	  5.14123	 21.64426	 -3.15913	 -1.28964	 25.71802	710.96002	 27.60	
 16.005	 93.629	 22.37998	  7.11852	  8.28662	 22.00193	 -3.44807	 -1.35174	 25.71743	710.95001	 27.60	
 15.993	107.966	 22.34332	  4.06957	 11.54449	 21.44078	 -3.08709	 -1.43299	 25.72425	710.96997	 27.70	
 15.995	122.439	 22.28074	  1.38304	 14.65961	 20.01959	 -2.31106	 -1.38265	 25.71159	711.07001	 27.70	
 16.002	136.836	 22.25292	 -0.76238	 17.62827	 17.75862	 -0.91018	 -1.37345	 25.72581	711.01001	 27.70	
 16.002	151.165	 22.21287	 -2.13899	 19.91116	 14.87694	  1.16029	 -1.40455	 25.70698	711.02002	 27.70	
 15.990	165.604	 22.19810	 -2.93679	 21.41641	 11.75204	  3.67310	 -1.26968	 25.70289	710.97998	 27.70	
 20.003	168.362	 20.07408	 -6.05183	 23.22328	 10.20706	  2.11638	 -1.39368	 25.70849	711.06000	 27.70	
 20.008	156.764	 20.08926	 -5.30163	 21.90948	 13.41370	 -0.46436	 -1.56054	 25.70152	711.03003	 27.70	
 20.000	145.147	 20.12206	 -4.30774	 19.97004	 16.42818	 -2.49170	 -1.71319	 25.70050	711.00000	 27.70	
 19.995	133.545	 20.16128	 -2.94475	 17.45328	 19.12225	 -4.11138	 -1.80883	 25.71075	711.02002	 27.70	
 20.009	121.926	 20.22200	 -1.14320	 14.49292	 21.27525	 -5.29071	 -1.90342	 25.69658	711.02002	 27.70	
 20.005	110.327	 20.25431	  1.28021	 11.32503	 22.80059	 -6.17570	 -1.97316	 25.70451	710.98999	 27.70	
 19.989	 98.733	 20.29291	  4.19279	  8.10315	 23.58529	 -6.55594	 -1.91592	 25.70476	710.98999	 27.70	
 19.999	 87.075	 20.34943	  7.29015	  5.13469	 23.66320	 -6.67352	 -1.86202	 25.71255	710.98999	 27.60	
 19.992	 75.457	 20.42405	 10.55090	  2.14129	 22.99169	 -6.19824	 -1.84907	 25.70489	711.09003	 27.60	
 20.009	 63.844	 20.49389	 13.76766	 -0.25604	 21.58279	 -5.42786	 -1.83284	 25.70166	711.09998	 27.70	
 19.989	 52.269	 20.60188	 16.78783	 -2.17346	 19.53237	 -4.26611	 -1.70864	 25.71158	710.92999	 27.60	
 19.999	 40.602	 20.67638	 19.46928	 -3.70746	 16.88721	 -2.55242	 -1.60838	 25.70883	710.88000	 27.70	
 20.004	 29.051	 20.77212	 21.47746	 -4.70487	 13.88536	 -0.35471	 -1.60135	 25.71904	711.03998	 27.70	
 20.005	 17.433	 20.83297	 22.84945	 -5.37016	 10.64610	  2.27592	 -1.49554	 25.70372	710.98999	 27.70	
 20.006	  5.780	 20.87850	 23.48622	 -5.61549	  7.41512	  5.14211	 -1.36621	 25.71578	711.02002	 27.70	
 20.006	 -5.780	 20.86103	 23.35864	 -5.50782	  4.49634	  8.31378	 -1.19052	 25.70339	711.02002	 27.70	
 20.005	-17.433	 20.84527	 22.49694	 -4.98935	  1.76559	 11.59242	 -1.05384	 25.70549	711.00000	 27.70	
 20.004	-29.051	 20.80459	 20.89021	 -4.10794	 -0.69546	 14.83009	 -0.97624	 25.70164	710.91998	 27.70	
 19.999	-40.602	 20.76133	 18.62764	 -2.85407	 -2.66465	 17.76064	 -0.85539	 25.71404	710.94000	 27.70	
 19.989	-52.269	 20.73849	 15.80541	 -1.03429	 -4.09825	 20.21046	 -0.78866	 25.71006	710.96997	 27.70	
 20.009	-63.844	 20.66790	 12.66975	  1.12968	 -5.05815	 22.02182	 -0.74106	 25.71336	710.87000	 27.70	
 19.992	-75.457	 20.62849	  9.48503	  3.91030	 -5.59195	 23.11786	 -0.67094	 25.71674	710.88000	 27.70	
 19.999	-87.075	 20.55202	  6.21224	  6.65249	 -5.74542	 23.43745	 -0.65281	 25.69884	710.92999	 27.70	
 19.989	-98.733	 20.47439	  3.21382	  9.82985	 -5.60948	 23.03372	 -0.64204	 25.70007	710.94000	 27.70	
 20.005	-110.327	 20.38821	  0.46768	 12.95862	 -5.19785	 21.91498	 -0.64806	 25.71197	710.97998	 27.70	
 20.009	-121.926	 20.31973	 -1.65959	 16.06398	 -4.24007	 20.03288	 -0.66254	 25.71797	710.89001	 27.70	
 19.995	-133.545	 20.25654	 -3.35320	 18.84448	 -2.83932	 17.55054	 -0.71378	 25.71277	710.98999	 27.70	
 20.000	-145.147	 20.18536	 -4.82681	 21.08554	 -0.96205	 14.57722	 -0.78422	 25.70518	710.92999	 27.70	
 20.008	-156.764	 20.11487	 -5.65355	 22.71827	  1.27910	 11.39163	 -0.91038	 25.70616	710.90002	 27.70	
 20.003	-168.362	 20.07565	 -6.18333	 23.60179	  4.09763	  8.11077	 -1.01913	 25.70056	710.98999	 27.70	
 20.000	180.000	 20.08141	 -6.25737	 23.76170	  7.00497	  4.94247	 -1.19241	 25.69259	710.96997	 27.70	
