FileType=PCF
NHL=14
Date=03/13/19	09:11:25
Facility=APL
Serial=16071-1
Customer=NASA
NP=6
Mach=0.300000
Calibration=1:1
CalPts=490
TstPts=95
PortNumbering=AP Standard
Units=Torr C m/s kg/m^3 deg mm 
Theta[deg]	Phi[deg]	P1[Torr]	P2[Torr]	P3[Torr]	P4[Torr]	P5[Torr]	P6[Torr]	Pt[Torr]	Ps[Abs,Torr]	Ts[C]	
  0.000	  0.000	 42.87450	 17.84661	 19.53919	 18.86791	 17.58990	  0.84427	 42.82040	712.46002	 19.30	
  1.691	128.401	 42.86813	 16.45594	 20.67235	 20.67031	 15.63193	  0.77433	 42.81784	712.44000	 19.30	
  1.692	 77.194	 42.86670	 18.21890	 18.91524	 21.08752	 15.29300	  0.85216	 42.81771	712.44000	 19.30	
  1.699	 26.182	 42.89814	 19.82263	 17.38543	 19.72116	 16.62109	  0.88906	 42.83448	712.53003	 19.30	
  1.699	-26.182	 42.89119	 19.75999	 17.54315	 17.81863	 18.66702	  0.86399	 42.84005	712.51001	 19.30	
  1.692	-77.194	 42.89376	 18.17354	 19.13958	 16.71439	 19.90189	  0.80321	 42.83881	712.39001	 19.20	
  1.691	-128.401	 42.90911	 16.36989	 20.80374	 17.21137	 19.30397	  0.74964	 42.86565	712.42999	 19.20	
  1.700	180.000	 42.89000	 15.55320	 21.34406	 18.91523	 17.38614	  0.72633	 42.85853	712.46002	 19.20	
  3.400	180.000	 42.75338	 13.12592	 23.66429	 18.83037	 17.06087	  0.54891	 42.85033	712.35999	 19.20	
  3.388	-152.325	 42.78721	 13.58164	 23.21563	 16.80428	 19.27498	  0.55745	 42.85883	712.29999	 19.20	
  3.397	-124.529	 42.80590	 14.94475	 21.72589	 15.16952	 21.24019	  0.59775	 42.85804	712.38000	 19.20	
  3.399	-96.763	 42.85242	 17.00080	 20.10520	 14.37698	 22.26188	  0.64262	 42.88631	712.29999	 19.20	
  3.394	-69.283	 42.88095	 19.02172	 18.02200	 14.56222	 22.10430	  0.69804	 42.88209	712.25000	 19.20	
  3.400	-41.398	 42.90403	 21.02430	 15.96984	 15.69241	 20.79122	  0.75252	 42.88799	712.37000	 19.20	
  3.401	-14.021	 42.92444	 22.20985	 14.88603	 17.50985	 18.74576	  0.80497	 42.90603	712.34003	 19.20	
  3.401	 14.021	 42.92434	 22.30018	 14.75582	 19.59027	 16.48307	  0.84990	 42.90491	712.31000	 19.20	
  3.400	 41.398	 42.90265	 21.24722	 15.61576	 21.55867	 14.46553	  0.83708	 42.89154	712.32001	 19.20	
  3.394	 69.283	 42.87420	 19.29772	 17.33945	 22.75749	 13.08048	  0.79405	 42.88810	712.33002	 19.20	
  3.399	 96.763	 42.86520	 17.27950	 19.66798	 23.10455	 12.71666	  0.72172	 42.90977	712.42999	 19.20	
  3.397	124.529	 42.85433	 15.20435	 21.27410	 22.36874	 13.36020	  0.62644	 42.92766	712.41998	 19.20	
  3.388	152.325	 42.84439	 13.73484	 22.97593	 20.99835	 14.96030	  0.56026	 42.91668	712.35999	 19.20	
  5.099	161.165	 42.56873	 11.14603	 25.33689	 20.85713	 14.40910	  0.30455	 42.92683	712.42999	 19.30	
  5.109	142.013	 42.55642	 12.18266	 24.01250	 23.07684	 12.43440	  0.34358	 42.91016	712.40002	 19.30	
  5.095	123.033	 42.59853	 13.84297	 22.05567	 24.66799	 11.01551	  0.40854	 42.91872	712.41998	 19.30	
  5.105	104.191	 42.63140	 15.93344	 20.37803	 25.53806	 10.23275	  0.47386	 42.93555	712.39001	 19.30	
  5.093	 85.207	 42.66445	 18.15158	 18.02178	 25.32942	 10.20105	  0.58457	 42.92756	712.50000	 19.30	
  5.104	 66.290	 42.69869	 20.30030	 15.81934	 24.64104	 10.82050	  0.65186	 42.92805	712.42999	 19.30	
  5.094	 47.331	 42.72129	 22.34635	 14.05524	 23.17313	 12.18005	  0.69691	 42.90786	712.46002	 19.30	
  5.089	 28.397	 42.77136	 23.79743	 12.89785	 21.57000	 14.09685	  0.72182	 42.92760	712.42999	 19.30	
  5.096	  9.576	 42.79730	 24.51751	 12.34835	 19.29143	 16.30166	  0.70059	 42.92910	712.41998	 19.30	
  5.096	 -9.576	 42.81516	 24.44298	 12.47450	 17.15940	 18.62549	  0.66845	 42.95029	712.44000	 19.30	
  5.089	-28.397	 42.79611	 23.55501	 13.28526	 15.13609	 20.90425	  0.61004	 42.92274	712.50000	 19.30	
  5.094	-47.331	 42.77139	 21.99124	 14.64869	 13.47391	 22.82852	  0.54441	 42.93682	712.45001	 19.40	
  5.104	-66.290	 42.75617	 19.87887	 16.53060	 12.40060	 24.04665	  0.48285	 42.93470	712.40002	 19.40	
  5.093	-85.207	 42.72592	 17.74764	 18.94231	 11.98995	 24.48187	  0.44065	 42.95038	712.40002	 19.40	
  5.105	-104.191	 42.69902	 15.52063	 21.06679	 12.21846	 24.15414	  0.38567	 42.95759	712.45001	 19.40	
  5.095	-123.033	 42.63836	 13.47719	 22.82868	 13.07987	 23.05012	  0.35288	 42.93741	711.82001	 19.40	
  5.109	-142.013	 42.63599	 11.91317	 24.61890	 14.58771	 21.25356	  0.31825	 42.96980	712.40002	 19.40	
  5.099	-161.165	 42.59393	 10.98371	 25.67277	 16.55013	 18.94984	  0.30256	 42.94806	712.35999	 19.50	
  5.100	180.000	 42.57328	 10.73543	 25.90010	 18.68520	 16.64191	  0.29371	 42.94248	712.45001	 19.50	
  6.800	180.000	 42.12976	  8.24630	 27.89478	 18.38307	 16.08734	 -0.00866	 42.94837	712.46997	 19.50	
  6.796	-166.229	 42.13973	  8.38775	 27.76388	 16.27257	 18.36403	 -0.00776	 42.94679	712.40002	 19.50	
  6.808	-152.311	 42.15300	  9.03005	 27.01941	 14.23669	 20.65678	 -0.00161	 42.93074	712.54999	 19.50	
  6.795	-138.383	 42.19746	 10.16507	 25.74552	 12.50882	 22.75609	  0.02964	 42.94662	712.42999	 19.50	
  6.792	-124.591	 42.25021	 11.68984	 24.07332	 11.16350	 24.38391	  0.05694	 42.95517	712.41998	 19.60	
  6.787	-110.754	 42.28659	 13.54240	 21.96469	 10.17443	 25.70301	  0.04807	 42.95062	712.40997	 19.60	
  6.800	-96.985	 42.32675	 15.63102	 20.30858	  9.61267	 26.47703	  0.10099	 42.94614	712.54999	 19.60	
  6.800	-83.015	 42.38828	 17.81695	 17.91591	  9.56167	 26.62328	  0.13920	 42.96434	712.46997	 19.60	
  6.787	-69.246	 42.44654	 19.88358	 15.80921	  9.98214	 26.13836	  0.17359	 42.96799	712.40002	 19.60	
  6.792	-55.409	 42.47511	 22.09440	 13.89037	 10.84646	 25.08542	  0.23033	 42.96092	712.47998	 19.60	
  6.795	-41.617	 42.49963	 23.91473	 12.31991	 12.10425	 23.64732	  0.27696	 42.96523	712.47998	 19.70	
  6.808	-27.689	 42.50693	 25.37916	 11.06031	 13.75051	 21.72386	  0.34033	 42.96342	712.40997	 19.70	
  6.796	-13.771	 42.52684	 26.28273	 10.25310	 15.69661	 19.42220	  0.41858	 42.96362	712.47998	 19.70	
  6.800	  0.000	 42.53399	 26.66692	  9.88312	 17.78501	 17.17791	  0.46391	 42.98143	712.51001	 19.70	
  6.796	 13.771	 42.52570	 26.43670	 10.01565	 19.89465	 14.95071	  0.49506	 42.97558	712.10999	 19.70	
  6.808	 27.689	 42.47757	 25.67291	 10.57878	 22.05183	 12.77389	  0.52498	 42.97543	712.58002	 19.70	
  6.795	 41.617	 42.43409	 24.34910	 11.62165	 23.79364	 10.86414	  0.49339	 42.95448	712.53003	 19.80	
  6.792	 55.409	 42.41471	 22.61861	 13.04236	 25.49889	  9.36365	  0.44198	 42.99010	712.50000	 19.80	
  6.787	 69.246	 42.38104	 20.49405	 14.84606	 26.74689	  8.31224	  0.40300	 42.99108	712.54999	 19.80	
  6.800	 83.015	 42.32647	 18.39921	 16.85854	 27.43691	  7.71862	  0.33386	 42.98116	712.50000	 19.80	
  6.800	 96.985	 42.30334	 16.20863	 19.30677	 27.52157	  7.62632	  0.25457	 42.99170	712.46002	 19.80	
  6.787	110.754	 42.26816	 14.07733	 21.44863	 26.98275	  8.00873	  0.17189	 42.99038	712.45001	 19.80	
  6.792	124.591	 42.23423	 12.14623	 23.14332	 25.91772	  8.84977	  0.10625	 42.99797	712.54999	 19.90	
  6.795	138.383	 42.19622	 10.55532	 24.99626	 24.33815	 10.09751	 -0.02996	 42.98517	712.59998	 19.90	
  6.808	152.311	 42.19034	  9.30964	 26.51067	 22.43971	 11.82998	 -0.02959	 43.00055	712.52002	 19.90	
  6.796	166.229	 42.18240	  8.55565	 27.48800	 20.51283	 13.89201	 -0.04608	 42.99259	712.57001	 19.90	
  8.491	168.704	 41.57183	  5.92856	 29.38246	 20.07068	 13.19455	 -0.53972	 42.98843	712.46002	 19.90	
  8.502	157.493	 41.56321	  6.49107	 28.59905	 22.45041	 11.04611	 -0.38966	 42.99260	712.44000	 20.00	
  8.494	146.194	 41.58838	  7.53491	 27.32564	 24.57054	  9.20379	 -0.46252	 42.98562	712.50000	 20.00	
  8.495	135.039	 41.63564	  8.92973	 25.71059	 26.07236	  7.72148	 -0.27544	 42.99710	712.42999	 20.00	
  8.487	123.723	 41.66764	 10.62627	 23.70220	 27.62779	  6.51989	 -0.37463	 43.00541	712.47998	 20.00	
  8.492	112.575	 41.71188	 12.53023	 21.99227	 28.71060	  5.69599	 -0.27106	 43.02370	712.40997	 20.00	
  8.510	101.220	 41.74076	 14.66859	 19.78022	 29.34202	  5.20211	 -0.24767	 43.02335	712.46997	 20.10	
  8.500	 90.000	 41.78025	 16.88307	 17.30810	 29.50168	  5.13905	 -0.03748	 43.00586	712.48999	 20.10	
  8.510	 78.780	 41.80293	 19.04432	 15.15766	 29.16493	  5.41462	 -0.00717	 43.00521	712.53003	 20.10	
  8.492	 67.425	 41.86055	 21.27985	 13.12467	 28.36587	  6.08712	  0.08709	 43.00515	712.56000	 20.10	
  8.487	 56.277	 41.90457	 23.39657	 11.35255	 27.13050	  7.11646	  0.14115	 42.98940	712.41998	 20.10	
  8.495	 44.961	 41.95494	 25.25327	  9.89043	 25.40301	  8.55267	  0.20235	 42.99412	712.27002	 20.20	
  8.494	 33.806	 42.00711	 26.72765	  8.77990	 23.47558	 10.25056	  0.24120	 42.99386	712.44000	 20.20	
  8.502	 22.507	 42.06817	 27.85650	  7.94915	 21.69086	 12.28076	  0.23020	 43.01936	712.46002	 20.20	
  8.491	 11.296	 42.06908	 28.53189	  7.51100	 19.37917	 14.46976	  0.19907	 42.99050	712.40997	 20.20	
  8.500	  0.000	 42.07838	 28.71071	  7.41268	 17.23063	 16.75817	  0.15679	 42.98796	712.44000	 20.20	
  8.491	-11.296	 42.08546	 28.37020	  7.75369	 15.07971	 19.09900	  0.10376	 42.99344	712.53998	 20.20	
  8.502	-22.507	 42.08309	 27.55566	  8.44257	 13.06997	 21.47024	  0.02442	 42.99685	712.53998	 20.30	
  8.494	-33.806	 42.08894	 26.28567	  9.49221	 11.30346	 23.56921	 -0.06383	 43.01335	712.40997	 20.30	
  8.495	-44.961	 42.05920	 24.70473	 10.82060	  9.80136	 25.34406	 -0.11441	 43.01530	712.40997	 20.30	
  8.487	-56.277	 42.02968	 22.75152	 12.45738	  8.57051	 26.86171	 -0.18256	 43.00554	712.46002	 20.30	
  8.492	-67.425	 41.98696	 20.53024	 14.31843	  7.69847	 27.95521	 -0.21237	 43.01883	712.45001	 20.30	
  8.510	-78.780	 41.91192	 18.32118	 16.43116	  7.16456	 28.58186	 -0.25750	 42.99352	712.44000	 20.40	
  8.500	-90.000	 41.87254	 16.16675	 18.69514	  7.03937	 28.72782	 -0.25667	 43.00254	712.52002	 20.40	
  8.510	-101.220	 41.82542	 13.99380	 21.01330	  7.28331	 28.30921	 -0.36421	 43.00649	712.44000	 20.40	
  8.492	-112.575	 41.78944	 11.89578	 22.82635	  7.95617	 27.39155	 -0.32854	 43.01643	712.50000	 20.40	
  8.487	-123.723	 41.74755	 10.06338	 24.90660	  8.95615	 26.00568	 -0.38490	 43.01913	712.51001	 20.40	
  8.495	-135.039	 41.69237	  8.45973	 26.67956	 10.29127	 24.28169	 -0.31580	 42.99972	712.52002	 20.40	
  8.494	-146.194	 41.65341	  7.19210	 28.06949	 11.90210	 22.35103	 -0.46695	 42.99709	712.41998	 20.50	
  8.502	-157.493	 41.62263	  6.24423	 29.15596	 13.76691	 20.09488	 -0.38802	 43.01282	712.44000	 20.50	
  8.491	-168.704	 41.59101	  5.77009	 29.69252	 15.83272	 17.77807	 -0.37831	 42.99880	712.44000	 20.50	
  8.500	180.000	 41.58218	  5.63308	 29.80964	 17.98984	 15.44833	 -0.48074	 43.00504	712.50000	 20.50	
 10.200	180.000	 40.82394	  2.96782	 31.54480	 17.47155	 14.65053	 -0.93944	 43.01414	712.54999	 20.50	
 10.191	-170.497	 40.83043	  3.04978	 31.46408	 15.28890	 17.01466	 -0.93251	 43.01439	712.50000	 20.60	
 10.210	-161.034	 40.84821	  3.46960	 31.06079	 13.15475	 19.42130	 -0.93256	 43.01355	712.34003	 20.60	
 10.194	-151.526	 40.86800	  4.22680	 30.18412	 11.20984	 21.69614	 -0.88151	 42.97864	712.40997	 20.60	
 10.190	-142.105	 40.93250	  5.25581	 29.02105	  9.46207	 23.80151	 -0.83019	 43.00135	712.44000	 20.60	
 10.215	-132.646	 40.96000	  6.60268	 27.48842	  7.85538	 25.80564	 -0.70013	 43.01104	712.42999	 20.60	
 10.203	-123.092	 41.01232	  8.25977	 25.60478	  6.56546	 27.56408	 -0.80319	 43.01771	712.40997	 20.60	
 10.192	-113.678	 41.06736	 10.11225	 23.50491	  5.59371	 28.91177	 -0.85308	 43.01647	712.40002	 20.70	
 10.208	-104.249	 41.11168	 12.17039	 21.66376	  4.86350	 29.88736	 -0.82045	 43.00422	712.45001	 20.70	
 10.210	-94.801	 41.18176	 14.36006	 19.37501	  4.46191	 30.47246	 -0.66909	 43.01347	712.48999	 20.70	
 10.210	-85.199	 41.21385	 16.64355	 16.97701	  4.41619	 30.59323	 -0.68907	 42.99275	712.42999	 20.70	
 10.208	-75.751	 41.28210	 18.84693	 14.79577	  4.69034	 30.30640	 -0.76911	 42.99543	712.40002	 20.70	
 10.192	-66.322	 41.34493	 21.03822	 12.72521	  5.31993	 29.63345	 -0.78845	 43.00254	712.44000	 20.70	
 10.203	-56.908	 41.35578	 23.27995	 10.82783	  6.11862	 28.54676	 -0.73112	 42.99448	712.40002	 20.70	
 10.215	-47.354	 41.42104	 25.33255	  9.20183	  7.31621	 27.07164	 -0.68609	 43.01814	712.46002	 20.80	
 10.190	-37.895	 41.43798	 27.07498	  7.79869	  8.76685	 25.22275	 -0.65553	 43.00297	712.40002	 20.80	
 10.194	-28.474	 41.46320	 28.52035	  6.65594	 10.41287	 23.27046	 -0.60915	 43.02720	712.40002	 20.80	
 10.210	-18.966	 41.45928	 29.62272	  5.78039	 12.27112	 21.07608	 -0.49323	 42.99692	712.46997	 20.80	
 10.191	 -9.503	 41.48628	 30.23799	  5.25878	 14.37528	 18.66228	 -0.43924	 43.01554	712.42999	 20.80	
 10.200	  0.000	 41.46065	 30.52650	  4.95817	 16.53286	 16.26964	 -0.38441	 42.98759	712.48999	 20.80	
 10.191	  9.503	 41.46341	 30.40723	  4.97642	 18.75972	 13.88963	 -0.31300	 43.00665	712.58002	 20.90	
 10.210	 18.966	 41.40491	 29.92256	  5.26953	 20.97205	 11.61353	 -0.29859	 42.99380	712.47998	 20.90	
 10.194	 28.474	 41.37471	 28.92947	  5.91631	 23.28041	  9.57067	 -0.13110	 42.99266	712.46997	 20.90	
 10.190	 37.895	 41.34349	 27.64145	  6.86953	 25.30926	  7.80784	 -0.21601	 43.00582	712.51001	 20.90	
 10.215	 47.354	 41.25602	 26.01005	  8.05953	 26.99800	  6.17991	 -0.36808	 42.98659	712.47998	 20.90	
 10.203	 56.908	 41.22628	 24.06935	  9.55767	 28.63034	  4.82986	 -0.57210	 43.00447	712.47998	 20.90	
 10.192	 66.322	 41.15825	 21.89588	 11.30127	 29.84692	  3.83443	 -0.61471	 42.99340	712.45001	 20.90	
 10.208	 75.751	 41.11182	 19.54934	 13.26381	 30.74993	  3.12896	 -0.62303	 43.00860	712.47998	 21.00	
 10.210	 85.199	 41.05500	 17.48628	 15.39962	 31.24218	  2.70137	 -0.67308	 42.99771	712.46997	 21.00	
 10.210	 94.801	 41.00930	 15.16394	 17.63853	 31.31000	  2.60937	 -0.73802	 42.98351	712.44000	 21.00	
 10.208	104.249	 40.97233	 12.92941	 20.15872	 30.99520	  2.80263	 -0.84391	 43.00769	712.42999	 21.00	
 10.192	113.678	 40.94070	 10.84709	 22.33805	 30.24626	  3.34905	 -0.87787	 43.00428	712.53003	 21.00	
 10.203	123.092	 40.91220	  8.92856	 24.13146	 29.19825	  4.14586	 -0.86395	 43.00465	712.58002	 21.00	
 10.215	132.646	 40.83766	  7.17346	 26.20196	 27.68564	  5.24892	 -0.85995	 42.96781	712.52002	 21.10	
 10.190	142.105	 40.84998	  5.73198	 27.98965	 25.84405	  6.68345	 -0.92820	 43.00085	712.60999	 21.10	
 10.194	151.526	 40.80886	  4.54957	 29.40726	 23.75740	  8.30183	 -1.00020	 42.99511	712.53998	 21.10	
 10.210	161.034	 40.81770	  3.75727	 30.49185	 21.94515	 10.20291	 -1.01005	 43.00576	712.50000	 21.10	
 10.191	170.497	 40.80122	  3.24390	 31.17705	 19.60464	 12.33600	 -0.96519	 42.98304	712.53003	 21.10	
 11.899	171.783	 39.90456	  0.56375	 33.03443	 19.04246	 11.47669	 -1.32818	 42.99029	712.58002	 21.10	
 11.890	163.610	 39.91709	  0.99621	 32.25375	 21.25704	  9.37187	 -1.38196	 43.00097	712.57001	 21.20	
 11.889	155.445	 39.92299	  1.64543	 31.24935	 23.58243	  7.47024	 -1.43306	 42.98954	712.63000	 21.20	
 11.909	147.299	 39.91458	  2.52474	 29.96981	 25.64988	  5.73941	 -1.41134	 42.96989	712.53998	 21.20	
 11.902	139.148	 39.93155	  3.87070	 28.44237	 27.38684	  4.14847	 -1.34112	 42.99401	712.58002	 21.20	
 11.894	130.867	 39.96955	  5.42740	 26.55574	 29.14067	  2.85360	 -1.30414	 42.99166	712.65997	 21.20	
 11.897	122.732	 40.01466	  7.16009	 24.44445	 30.54234	  1.81351	 -1.29527	 42.99211	712.53003	 21.20	
 11.903	114.597	 40.03065	  9.07340	 22.62076	 31.63412	  1.05394	 -1.32975	 42.97730	712.45001	 21.20	
 11.893	106.346	 40.05009	 11.19287	 20.40127	 32.40403	  0.52374	 -1.29759	 42.96085	712.58002	 21.30	
 11.892	 98.155	 40.10827	 13.42411	 17.88634	 33.05312	  0.20391	 -1.21528	 42.97196	712.52002	 21.30	
 11.900	 90.000	 40.15607	 15.67574	 15.65125	 33.19099	  0.11118	 -1.12888	 42.98685	712.56000	 21.30	
 11.892	 81.845	 40.19605	 17.95763	 13.45948	 32.82918	  0.35769	 -1.07340	 42.97998	712.46997	 21.30	
 11.893	 73.654	 40.24056	 20.00868	 11.35668	 32.07148	  0.90365	 -1.05669	 42.96697	712.46002	 21.30	
 11.903	 65.403	 40.30637	 22.43671	  9.44226	 31.16716	  1.59830	 -1.06983	 42.97430	712.39001	 21.30	
 11.897	 57.268	 40.34796	 24.60606	  7.72096	 29.92999	  2.57117	 -1.02357	 42.96847	712.56000	 21.30	
 11.894	 49.133	 40.39389	 26.56642	  6.22455	 28.39491	  3.81107	 -0.89134	 42.95913	712.57001	 21.40	
 11.902	 40.852	 40.47131	 28.34778	  4.92027	 26.47112	  5.30828	 -0.79131	 42.98634	712.54999	 21.40	
 11.909	 32.701	 40.53251	 29.79707	  3.89934	 24.30704	  7.02023	 -0.77648	 42.97651	712.45001	 21.40	
 11.889	 24.555	 40.58503	 30.88413	  3.21442	 22.48297	  8.92012	 -0.78855	 42.96985	712.46002	 21.40	
 11.890	 16.390	 40.64108	 31.81296	  2.73147	 20.19417	 10.97494	 -0.82144	 42.98926	712.53998	 21.40	
 11.899	  8.217	 40.64507	 32.33513	  2.44182	 17.97550	 13.24386	 -0.79983	 42.95605	712.47998	 21.40	
 11.900	  0.000	 40.64362	 32.43305	  2.42740	 15.71789	 15.65075	 -0.80285	 42.95805	712.53003	 21.40	
 11.899	 -8.217	 40.66856	 32.16959	  2.70973	 13.52994	 18.06746	 -0.83578	 42.97989	712.50000	 21.50	
 11.890	-16.390	 40.65161	 31.38536	  3.23446	 11.41654	 20.48817	 -0.92478	 42.97194	712.46002	 21.50	
 11.889	-24.555	 40.64705	 30.40097	  3.96780	  9.51560	 22.75866	 -1.01299	 42.96897	712.39001	 21.50	
 11.909	-32.701	 40.61000	 29.20220	  4.85059	  7.70327	 24.83492	 -1.07219	 42.96230	712.40997	 21.50	
 11.902	-40.852	 40.59719	 27.64588	  6.04071	  5.92321	 26.83104	 -1.07251	 42.99033	712.39001	 21.50	
 11.894	-49.133	 40.58210	 25.78543	  7.51398	  4.45641	 28.61117	 -1.09943	 42.99239	712.51001	 21.50	
 11.897	-57.268	 40.52903	 23.69404	  9.12962	  3.37231	 30.00974	 -1.12886	 42.96395	712.40997	 21.50	
 11.903	-65.403	 40.49723	 21.42740	 10.98721	  2.58978	 31.08809	 -1.16922	 42.96884	712.48999	 21.60	
 11.893	-73.654	 40.45402	 19.20433	 13.06600	  2.03805	 31.83693	 -1.17622	 42.97577	712.52002	 21.60	
 11.892	-81.845	 40.37426	 16.98363	 15.24664	  1.62478	 32.23264	 -1.12816	 42.94559	712.45001	 21.60	
 11.900	-90.000	 40.31910	 14.69453	 17.46318	  1.52470	 32.27753	 -1.09298	 42.96017	712.40002	 21.60	
 11.892	-98.155	 40.26435	 12.45297	 19.86011	  1.69362	 31.94801	 -1.11231	 42.96734	712.50000	 21.60	
 11.893	-106.346	 40.19148	 10.27595	 22.13475	  2.18772	 31.24771	 -1.13776	 42.95819	712.40997	 21.60	
 11.903	-114.597	 40.14348	  8.23351	 24.00305	  2.92143	 30.21051	 -1.17764	 42.95721	712.53998	 21.60	
 11.897	-122.732	 40.09552	  6.36754	 26.15019	  3.85535	 28.85220	 -1.16792	 42.94996	712.48999	 21.70	
 11.894	-130.867	 40.04408	  4.69631	 28.06133	  5.03297	 27.18092	 -1.12217	 42.96089	712.42999	 21.70	
 11.902	-139.148	 39.98076	  3.32183	 29.67347	  6.71545	 25.17435	 -1.13035	 42.95110	712.46002	 21.70	
 11.909	-147.299	 39.96940	  2.11530	 31.01553	  8.60873	 23.13196	 -1.20453	 42.95812	712.37000	 21.70	
 11.889	-155.445	 39.93907	  1.31910	 32.01927	 10.48833	 20.89916	 -1.25060	 42.94598	712.44000	 21.70	
 11.890	-163.610	 39.89858	  0.69737	 32.89243	 12.47873	 18.56720	 -1.28704	 42.95420	712.51001	 21.70	
 11.899	-171.783	 39.86877	  0.32404	 33.35635	 14.63325	 16.14308	 -1.31402	 42.95210	712.58002	 21.70	
 11.900	180.000	 39.85456	  0.27866	 33.42382	 16.83325	 13.74660	 -1.30623	 42.94468	712.47998	 21.80	
 13.600	180.000	 38.79199	 -2.17113	 35.11699	 16.08805	 12.74028	 -1.57468	 42.95900	712.42999	 21.80	
 13.608	-172.853	 38.77795	 -2.17973	 35.03160	 13.88936	 15.10623	 -1.55697	 42.94775	712.40997	 21.80	
 13.611	-165.583	 38.79450	 -1.92815	 34.71288	 11.68249	 17.53059	 -1.53724	 42.94323	712.41998	 21.80	
 13.601	-158.353	 38.85166	 -1.40002	 34.01183	  9.63182	 19.94901	 -1.49778	 42.95712	712.40002	 21.80	
 13.609	-151.210	 38.88009	 -0.72792	 32.96189	  7.47540	 22.22547	 -1.43022	 42.93198	712.59998	 21.80	
 13.611	-143.999	 38.92601	  0.21143	 31.63547	  5.46204	 24.41675	 -1.35372	 42.92731	712.46002	 21.80	
 13.601	-136.825	 38.98465	  1.31146	 30.18113	  3.90883	 26.48463	 -1.29554	 42.94664	712.47998	 21.90	
 13.596	-129.640	 39.01728	  2.64370	 28.50538	  2.63798	 28.36564	 -1.29425	 42.92118	712.50000	 21.90	
 13.611	-122.431	 39.03797	  4.41807	 26.55572	  1.43761	 30.05702	 -1.29811	 42.92464	712.52002	 21.90	
 13.604	-115.211	 39.11586	  6.33318	 24.39234	  0.57290	 31.43961	 -1.32935	 42.95143	712.53998	 21.90	
 13.595	-108.042	 39.16697	  8.33086	 22.53504	 -0.13313	 32.53383	 -1.28619	 42.94169	712.46997	 21.90	
 13.607	-100.793	 39.21748	 10.47040	 20.24726	 -0.67640	 33.36142	 -1.26075	 42.94449	712.40997	 21.90	
 13.601	-93.617	 39.28023	 12.68280	 17.87938	 -0.97433	 33.81987	 -1.26844	 42.94028	712.53003	 21.90	
 13.601	-86.383	 39.32257	 14.95619	 15.61032	 -1.06324	 33.97314	 -1.28083	 42.93201	712.50000	 22.00	
 13.607	-79.207	 39.38161	 17.26572	 13.37347	 -0.87131	 33.80378	 -1.32155	 42.92616	712.47998	 22.00	
 13.595	-71.958	 39.43903	 19.46938	 11.23002	 -0.42797	 33.29399	 -1.38193	 42.91492	712.47998	 22.00	
 13.604	-64.789	 39.48988	 21.64076	  9.24671	  0.18648	 32.47152	 -1.41467	 42.93315	712.50000	 22.00	
 13.611	-57.569	 39.54016	 23.97638	  7.39759	  0.99705	 31.36461	 -1.37633	 42.93797	712.52002	 22.00	
 13.596	-50.360	 39.56674	 26.11471	  5.73004	  2.00298	 29.94800	 -1.36631	 42.92503	712.42999	 22.00	
 13.601	-43.175	 39.57711	 27.98348	  4.28566	  3.15326	 28.28283	 -1.38607	 42.92116	712.39001	 22.00	
 13.611	-36.001	 39.60913	 29.64402	  3.05989	  4.55781	 26.33257	 -1.40513	 42.91675	712.53998	 22.00	
 13.609	-28.790	 39.63219	 31.04992	  2.04311	  6.34032	 24.26899	 -1.39982	 42.90983	712.40997	 22.00	
 13.601	-21.647	 39.65028	 32.28848	  1.12412	  8.42152	 22.09523	 -1.34478	 42.91211	712.47998	 22.10	
 13.611	-14.417	 39.65921	 33.29861	  0.26998	 10.42829	 19.72812	 -1.28426	 42.91931	712.50000	 22.10	
 13.608	 -7.147	 39.65449	 33.89586	 -0.28622	 12.57423	 17.25788	 -1.22276	 42.91552	712.50000	 22.10	
 13.600	  0.000	 39.65847	 34.15011	 -0.57935	 14.75975	 14.86701	 -1.20182	 42.92096	712.42999	 22.10	
 13.608	  7.147	 39.65645	 34.08173	 -0.53458	 16.99706	 12.51252	 -1.20894	 42.93066	712.53998	 22.10	
 13.611	 14.417	 39.62012	 33.63033	 -0.21858	 19.30974	 10.23308	 -1.23696	 42.91521	712.56000	 22.10	
 13.601	 21.647	 39.57745	 32.81066	  0.29090	 21.53417	  8.21622	 -1.23195	 42.89232	712.59003	 22.10	
 13.609	 28.790	 39.53225	 31.69720	  0.93619	 23.77660	  6.30323	 -1.19950	 42.89530	712.53003	 22.20	
 13.611	 36.001	 39.47063	 30.37193	  1.86521	 25.92238	  4.46084	 -1.18503	 42.90622	712.63000	 22.20	
 13.601	 43.175	 39.40305	 28.80074	  3.00232	 27.75092	  2.84938	 -1.22703	 42.89670	712.50000	 22.20	
 13.596	 50.360	 39.34259	 27.00741	  4.32838	 29.52182	  1.48591	 -1.32836	 42.89398	712.58002	 22.20	
 13.611	 57.569	 39.29671	 25.00462	  5.83182	 31.07351	  0.26330	 -1.47886	 42.91418	712.46002	 22.20	
 13.604	 64.789	 39.22915	 22.77662	  7.51913	 32.33032	 -0.70973	 -1.52158	 42.89924	712.38000	 22.20	
 13.595	 71.958	 39.16675	 20.36322	  9.38183	 33.40461	 -1.40089	 -1.49646	 42.89578	712.48999	 22.20	
 13.607	 79.207	 39.09706	 18.31738	 11.38198	 34.20785	 -1.98667	 -1.50383	 42.88781	712.46997	 22.20	
 13.601	 86.383	 39.06984	 16.03705	 13.51453	 34.69897	 -2.32812	 -1.54305	 42.90256	712.38000	 22.30	
 13.601	 93.617	 39.02388	 13.76641	 15.75195	 34.81908	 -2.35810	 -1.61513	 42.91792	712.47998	 22.30	
 13.607	100.793	 38.95771	 11.49509	 18.02102	 34.56183	 -2.24398	 -1.70553	 42.89006	712.46002	 22.30	
 13.595	108.042	 38.94827	  9.32565	 20.43236	 33.92140	 -1.86658	 -1.76538	 42.91013	712.48999	 22.30	
 13.604	115.211	 38.90620	  7.24501	 22.68670	 32.91380	 -1.31207	 -1.76049	 42.90030	712.53998	 22.30	
 13.611	122.431	 38.86738	  5.28385	 24.58922	 31.72725	 -0.55704	 -1.71639	 42.87916	712.51001	 22.30	
 13.596	129.640	 38.83028	  3.44092	 26.72199	 30.31890	  0.46954	 -1.70959	 42.88210	712.39001	 22.30	
 13.601	136.825	 38.80079	  1.93204	 28.62944	 28.70755	  1.65670	 -1.76078	 42.89743	712.39001	 22.30	
 13.611	143.999	 38.75607	  0.69042	 30.27710	 26.75711	  3.08032	 -1.82443	 42.87926	712.39001	 22.40	
 13.609	151.210	 38.74421	 -0.31959	 31.72145	 24.57195	  4.73178	 -1.86138	 42.87353	712.54999	 22.40	
 13.601	158.353	 38.72528	 -1.13247	 33.03284	 22.75601	  6.50606	 -1.81007	 42.87587	712.44000	 22.40	
 13.611	165.583	 38.70417	 -1.67286	 34.04598	 20.33280	  8.42836	 -1.71018	 42.85933	712.41998	 22.40	
 13.608	172.853	 38.74488	 -2.01346	 34.71517	 18.24673	 10.49909	 -1.62815	 42.90454	712.45001	 22.40	
 15.298	173.587	 37.51780	 -4.48996	 36.21617	 17.40948	  9.52789	 -1.85409	 42.87329	712.40997	 22.40	
 15.291	167.167	 37.52345	 -4.12637	 35.62392	 19.61763	  7.50646	 -1.97166	 42.87354	712.42999	 22.40	
 15.307	160.676	 37.50971	 -3.69097	 34.72577	 21.82106	  5.54698	 -2.08325	 42.85903	712.53998	 22.40	
 15.300	154.261	 37.51942	 -3.00252	 33.51049	 24.07952	  3.72184	 -2.20074	 42.85434	712.44000	 22.50	
 15.288	147.854	 37.54825	 -2.09594	 32.04370	 26.19328	  2.06134	 -2.20544	 42.86541	712.40997	 22.50	
 15.293	141.428	 37.59135	 -1.03524	 30.50153	 28.05048	  0.56535	 -2.17085	 42.87828	712.44000	 22.50	
 15.299	134.985	 37.62281	  0.23599	 28.76880	 29.87116	 -0.74722	 -2.11813	 42.88349	712.53003	 22.50	
 15.305	128.583	 37.64173	  1.69763	 26.79119	 31.49297	 -1.89494	 -2.11670	 42.88111	712.47998	 22.50	
 15.309	122.142	 37.68378	  3.34152	 24.60892	 32.89089	 -2.84233	 -2.12444	 42.87155	712.40002	 22.50	
 15.304	115.711	 37.69084	  5.29867	 22.67270	 34.21563	 -3.63679	 -2.18278	 42.85912	712.46002	 22.50	
 15.297	109.291	 37.72300	  7.38060	 20.28926	 35.21778	 -4.20441	 -2.20578	 42.87489	712.41998	 22.50	
 15.293	102.897	 37.74510	  9.52990	 18.08192	 35.86851	 -4.58283	 -2.16563	 42.86362	712.47998	 22.60	
 15.293	 96.458	 37.81023	 11.79009	 15.77976	 36.23531	 -4.74155	 -2.09174	 42.87588	712.44000	 22.60	
 15.300	 90.000	 37.85786	 14.07045	 13.52763	 36.30650	 -4.74083	 -2.00252	 42.86991	712.46002	 22.60	
 15.293	 83.542	 37.87037	 16.32396	 11.34627	 36.04810	 -4.63248	 -1.94869	 42.84498	712.46997	 22.60	
 15.293	 77.103	 37.95562	 18.63539	  9.30057	 35.53796	 -4.24302	 -1.93324	 42.87894	712.47998	 22.60	
 15.297	 70.709	 38.00038	 20.59263	  7.36588	 34.65149	 -3.71075	 -1.94538	 42.86534	712.53003	 22.60	
 15.304	 64.289	 38.05889	 23.01031	  5.55017	 33.46942	 -3.00915	 -1.94421	 42.85585	712.44000	 22.60	
 15.309	 57.858	 38.11584	 25.27825	  3.72018	 32.12953	 -2.08889	 -1.91413	 42.86934	712.45001	 22.60	
 15.305	 51.417	 38.18838	 27.32975	  2.06357	 30.58455	 -0.87922	 -1.77315	 42.87160	712.45001	 22.60	
 15.299	 45.015	 38.23041	 29.13756	  0.69112	 28.85988	  0.45385	 -1.67893	 42.85439	712.44000	 22.70	
 15.293	 38.572	 38.30327	 30.74918	 -0.48737	 26.86424	  1.95294	 -1.62540	 42.85411	712.46997	 22.70	
 15.288	 32.146	 38.34921	 32.25757	 -1.47950	 24.67020	  3.70912	 -1.58264	 42.83681	712.34998	 22.70	
 15.300	 25.739	 38.42098	 33.55902	 -2.23472	 22.77746	  5.59467	 -1.59837	 42.85855	712.48999	 22.70	
 15.307	 19.324	 38.46315	 34.49720	 -2.74939	 20.43858	  7.51980	 -1.66446	 42.83819	712.52002	 22.70	
 15.291	 12.833	 38.50814	 35.13371	 -3.04781	 18.30047	  9.57140	 -1.63896	 42.83569	712.47998	 22.70	
 15.298	  6.413	 38.52171	 35.51127	 -3.28629	 15.98069	 11.70811	 -1.58383	 42.85112	712.48999	 22.70	
 15.300	  0.000	 38.53305	 35.60678	 -3.30339	 13.77008	 14.01500	 -1.54392	 42.84618	712.46997	 22.70	
 15.298	 -6.413	 38.54548	 35.38116	 -3.10021	 11.56903	 16.42913	 -1.54605	 42.85926	712.40002	 22.70	
 15.291	-12.833	 38.52613	 34.83166	 -2.68737	  9.32077	 18.86616	 -1.56813	 42.83923	712.38000	 22.80	
 15.307	-19.324	 38.51207	 34.01050	 -2.08584	  7.14084	 21.23506	 -1.60313	 42.84792	712.28998	 22.80	
 15.300	-25.739	 38.50334	 32.89369	 -1.29405	  5.18992	 23.52326	 -1.61970	 42.85057	712.37000	 22.80	
 15.288	-32.146	 38.46672	 31.44814	 -0.29356	  3.50215	 25.57016	 -1.60038	 42.82974	712.37000	 22.80	
 15.293	-38.572	 38.45325	 29.90516	  0.91032	  2.01175	 27.64259	 -1.56358	 42.84050	712.35999	 22.80	
 15.299	-45.015	 38.41992	 28.17983	  2.35164	  0.66282	 29.52446	 -1.51282	 42.84281	712.37000	 22.80	
 15.305	-51.417	 38.36550	 26.22126	  3.94604	 -0.47194	 31.13181	 -1.48316	 42.81580	712.39001	 22.80	
 15.309	-57.858	 38.34474	 24.06245	  5.62477	 -1.46854	 32.54560	 -1.47224	 42.83356	712.38000	 22.80	
 15.304	-64.289	 38.28482	 21.71204	  7.45298	 -2.25036	 33.69048	 -1.45466	 42.82767	712.32001	 22.80	
 15.297	-70.709	 38.26756	 19.58738	  9.42571	 -2.80093	 34.56360	 -1.42430	 42.83476	712.31000	 22.80	
 15.293	-77.103	 38.18842	 17.39128	 11.44666	 -3.29281	 35.12107	 -1.36681	 42.81925	712.42999	 22.80	
 15.293	-83.542	 38.15387	 15.09459	 13.64172	 -3.43255	 35.40042	 -1.31699	 42.82470	712.40997	 22.90	
 15.300	-90.000	 38.10334	 12.84109	 15.85348	 -3.46593	 35.40664	 -1.27976	 42.84038	712.46002	 22.90	
 15.293	-96.458	 38.01333	 10.60903	 18.09777	 -3.26729	 35.07553	 -1.28180	 42.80514	712.40002	 22.90	
 15.293	-102.897	 37.94532	  8.39978	 20.40507	 -2.96217	 34.47470	 -1.29823	 42.79432	712.42999	 22.90	
 15.297	-109.291	 37.90704	  6.30567	 22.70123	 -2.45177	 33.61428	 -1.31621	 42.82127	712.41998	 22.90	
 15.304	-115.711	 37.83797	  4.14599	 24.55952	 -1.75507	 32.47815	 -1.32507	 42.80284	712.41998	 22.90	
 15.309	-122.142	 37.79583	  2.37859	 26.76262	 -0.89134	 31.08462	 -1.33823	 42.82842	712.42999	 22.90	
 15.305	-128.583	 37.73999	  0.76786	 28.72436	  0.17474	 29.44493	 -1.31835	 42.80911	712.35999	 22.90	
 15.299	-134.985	 37.70846	 -0.54217	 30.44889	  1.45532	 27.55663	 -1.35494	 42.81221	712.40997	 23.00	
 15.293	-141.428	 37.66672	 -1.64887	 31.99187	  2.87553	 25.48754	 -1.38759	 42.81549	712.44000	 23.00	
 15.288	-147.854	 37.60696	 -2.63274	 33.46889	  4.40914	 23.38142	 -1.47212	 42.80645	712.48999	 23.00	
 15.300	-154.261	 37.52499	 -3.41227	 34.65820	  6.29686	 21.13256	 -1.54941	 42.78670	712.44000	 23.00	
 15.307	-160.676	 37.47578	 -4.03518	 35.55373	  8.37786	 18.77943	 -1.62954	 42.79292	712.38000	 23.00	
 15.291	-167.167	 37.47102	 -4.38502	 36.13012	 10.78477	 16.37106	 -1.68106	 42.78963	712.39001	 23.00	
 15.298	-173.587	 37.45532	 -4.57170	 36.42400	 12.99206	 13.95479	 -1.73738	 42.79321	712.42999	 23.00	
 15.300	180.000	 37.43927	 -4.61001	 36.41040	 15.17125	 11.64200	 -1.78650	 42.77481	712.34003	 23.00	
 17.000	180.000	 36.08974	 -6.97092	 37.67058	 14.21405	 10.53418	 -1.88672	 42.80167	712.45001	 23.00	
 16.990	-174.179	 36.11509	 -7.00374	 37.68487	 12.01313	 12.74734	 -1.78221	 42.80557	712.39001	 23.00	
 17.009	-168.383	 36.08218	 -6.91670	 37.41539	  9.52220	 15.10691	 -1.70566	 42.77447	712.34998	 23.10	
 17.000	-162.596	 36.13960	 -6.57869	 36.98510	  7.42738	 17.50131	 -1.63537	 42.80349	712.34998	 23.10	
 16.990	-156.759	 36.18106	 -6.02284	 36.23420	  5.31755	 19.91182	 -1.55877	 42.79080	712.37000	 23.10	
 16.995	-150.919	 36.21511	 -5.37039	 35.16278	  3.45679	 22.25914	 -1.46315	 42.79418	712.39001	 23.10	
 16.988	-145.161	 36.27143	 -4.51303	 33.85693	  1.83128	 24.39644	 -1.39888	 42.77607	712.41998	 23.10	
 17.014	-139.343	 36.32587	 -3.50069	 32.28970	  0.28311	 26.50141	 -1.34734	 42.79357	712.39001	 23.10	
 17.007	-133.546	 36.36675	 -2.30581	 30.62740	 -1.04811	 28.57044	 -1.29577	 42.77670	712.35999	 23.10	
 17.001	-127.699	 36.38962	 -0.99298	 28.84267	 -2.27850	 30.40124	 -1.24688	 42.75486	712.39001	 23.10	
 17.006	-121.937	 36.45288	  0.46978	 26.89355	 -3.31355	 31.98947	 -1.23340	 42.77349	712.47998	 23.10	
 17.002	-116.134	 36.51536	  2.15289	 24.71146	 -4.14958	 33.39264	 -1.23302	 42.77628	712.44000	 23.10	
 17.001	-110.310	 36.57558	  4.05746	 22.80744	 -4.89224	 34.61458	 -1.21439	 42.78020	712.46002	 23.20	
 16.988	-104.517	 36.64539	  6.17649	 20.41423	 -5.44344	 35.56408	 -1.21056	 42.77699	712.46002	 23.20	
 17.008	-98.662	 36.66109	  8.40765	 18.19409	 -5.91816	 36.26093	 -1.19569	 42.76423	712.46997	 23.20	
 16.996	-92.909	 36.73474	 10.62832	 15.93885	 -6.15452	 36.68307	 -1.21193	 42.77335	712.40002	 23.20	
 16.996	-87.091	 36.79787	 12.83565	 13.76724	 -6.10938	 36.82121	 -1.23281	 42.78096	712.50000	 23.20	
 17.012	-81.253	 36.85205	 15.06075	 11.61821	 -6.07121	 36.75636	 -1.28210	 42.79818	712.44000	 23.20	
 16.988	-75.483	 36.92942	 17.36548	  9.54008	 -5.90841	 36.36544	 -1.30626	 42.79274	712.40002	 23.20	
 17.001	-69.690	 36.97906	 19.62057	  7.53390	 -5.39785	 35.72289	 -1.35099	 42.79393	712.42999	 23.20	
 17.002	-63.866	 37.01600	 21.66434	  5.56892	 -4.74733	 34.80046	 -1.41336	 42.77203	712.38000	 23.20	
 17.006	-58.063	 37.02098	 24.03202	  3.51474	 -4.01803	 33.60025	 -1.41976	 42.75301	712.39001	 23.30	
 17.001	-52.301	 37.06328	 26.19820	  1.81995	 -3.08420	 32.25560	 -1.45977	 42.76384	712.32001	 23.30	
 17.007	-46.454	 37.10828	 28.21334	  0.29416	 -1.90549	 30.66415	 -1.50795	 42.76513	712.39001	 23.30	
 17.014	-40.657	 37.15792	 30.06834	 -1.09184	 -0.59617	 28.85229	 -1.56880	 42.78730	712.40002	 23.30	
 16.988	-34.839	 37.18493	 31.69889	 -2.29328	  0.84810	 26.81525	 -1.61624	 42.77344	712.56000	 23.30	
 16.995	-29.081	 37.19203	 33.22691	 -3.32506	  2.34188	 24.77221	 -1.67740	 42.77269	712.57001	 23.30	
 16.990	-23.241	 37.24222	 34.48169	 -4.17051	  4.10366	 22.58459	 -1.71853	 42.78768	712.46002	 23.30	
 17.000	-17.404	 37.24878	 35.46749	 -4.79301	  6.02529	 20.24046	 -1.72985	 42.76443	712.46002	 23.30	
 17.009	-11.617	 37.25890	 36.20016	 -5.30725	  8.04211	 17.91000	 -1.74928	 42.76989	712.46002	 23.30	
 16.990	 -5.821	 37.28104	 36.68529	 -5.61693	 10.22099	 15.50149	 -1.75803	 42.78356	712.40002	 23.30	
 17.000	  0.000	 37.26777	 36.90898	 -5.76907	 12.64179	 13.10521	 -1.83249	 42.77785	712.42999	 23.30	
 16.990	  5.821	 37.26691	 36.83853	 -5.77563	 14.87365	 10.88681	 -1.89736	 42.76913	712.34998	 23.30	
 17.009	 11.617	 37.22926	 36.53532	 -5.69512	 17.16394	  8.79153	 -1.99276	 42.76599	712.38000	 23.40	
 17.000	 17.404	 37.18815	 35.95525	 -5.38840	 19.36915	  6.79077	 -2.03862	 42.75909	712.41998	 23.40	
 16.990	 23.241	 37.14207	 35.11755	 -4.96031	 21.47489	  4.80315	 -2.02560	 42.76509	712.37000	 23.30	
 16.995	 29.081	 37.07775	 34.02951	 -4.40558	 23.88298	  2.87374	 -1.99583	 42.77176	712.34003	 23.40	
 16.988	 34.839	 36.99056	 32.58634	 -3.57361	 25.98672	  1.08135	 -1.99003	 42.74191	712.39001	 23.40	
 17.014	 40.657	 36.92220	 31.00638	 -2.53029	 27.84489	 -0.53884	 -2.04178	 42.74105	712.46997	 23.40	
 17.007	 46.454	 36.88281	 29.32607	 -1.30955	 29.80165	 -1.97217	 -2.11397	 42.77129	712.40002	 23.40	
 17.001	 52.301	 36.78704	 27.42943	  0.00118	 31.50563	 -3.32618	 -2.23742	 42.75807	712.27002	 23.40	
 17.006	 58.063	 36.72569	 25.38461	  1.52575	 33.06586	 -4.43614	 -2.33409	 42.76344	712.34998	 23.40	
 17.002	 63.866	 36.68505	 23.13566	  3.21357	 34.44786	 -5.31189	 -2.39176	 42.76851	712.41998	 23.40	
 17.001	 69.690	 36.61361	 20.67024	  5.03044	 35.61481	 -5.95389	 -2.37093	 42.73448	712.47998	 23.40	
 16.988	 75.483	 36.57537	 18.71696	  7.14511	 36.49319	 -6.53104	 -2.37419	 42.76206	712.33002	 23.40	
 17.012	 81.253	 36.49323	 16.45559	  9.15991	 37.09441	 -6.95976	 -2.36949	 42.74564	712.41998	 23.40	
 16.996	 87.091	 36.44081	 14.17467	 11.24543	 37.37724	 -7.09398	 -2.39212	 42.72997	712.34998	 23.40	
 16.996	 92.909	 36.41876	 11.95669	 13.39676	 37.48642	 -7.08908	 -2.46148	 42.73694	712.40002	 23.50	
 17.008	 98.662	 36.37682	  9.72004	 15.64019	 37.36935	 -7.07282	 -2.56490	 42.76627	712.34998	 23.50	
 16.988	104.517	 36.32855	  7.49917	 17.95632	 36.89285	 -6.86220	 -2.60992	 42.74072	712.51001	 23.50	
 17.001	110.310	 36.31499	  5.22775	 20.16899	 36.22643	 -6.48663	 -2.60370	 42.76006	712.47998	 23.50	
 17.002	116.134	 36.27002	  3.26852	 22.52323	 35.21023	 -5.91473	 -2.56242	 42.73980	712.40002	 23.50	
 17.006	121.937	 36.22243	  1.49355	 24.43686	 33.92788	 -5.19844	 -2.49052	 42.72893	712.39001	 23.50	
 17.001	127.699	 36.20984	 -0.02463	 26.62074	 32.49723	 -4.26310	 -2.46263	 42.74575	712.41998	 23.50	
 17.007	133.546	 36.20806	 -1.45047	 28.69338	 30.88310	 -3.15221	 -2.44966	 42.77687	712.40997	 23.50	
 17.014	139.343	 36.14067	 -2.73530	 30.49704	 29.09948	 -1.95082	 -2.46106	 42.75309	712.38000	 23.60	
 16.988	145.161	 36.11088	 -3.85808	 32.08071	 27.11752	 -0.58628	 -2.45620	 42.74792	712.45001	 23.60	
 16.995	150.919	 36.09208	 -4.82355	 33.67577	 24.98392	  0.95770	 -2.45017	 42.74794	712.35999	 23.60	
 16.990	156.759	 36.09168	 -5.65424	 35.01212	 23.04863	  2.69040	 -2.37678	 42.74666	712.35999	 23.60	
 17.000	162.596	 36.07724	 -6.25166	 36.10416	 20.66969	  4.52587	 -2.26426	 42.77131	712.46997	 23.60	
 17.009	168.383	 36.05234	 -6.62356	 36.86688	 18.65831	  6.44322	 -2.14502	 42.74574	712.39001	 23.60	
 16.990	174.179	 36.06026	 -6.81080	 37.35239	 16.42390	  8.50595	 -2.01509	 42.74200	712.31000	 23.60	
 18.709	174.675	 34.53644	 -9.37882	 38.50791	 15.23707	  7.41258	 -2.06109	 42.73802	712.40002	 23.60	
 18.703	169.441	 34.51625	 -9.22729	 38.04548	 17.47199	  5.38411	 -2.19397	 42.73674	712.38000	 23.60	
 18.691	164.085	 34.53837	 -8.86420	 37.34120	 19.68770	  3.43746	 -2.29328	 42.74680	712.42999	 23.70	
 18.706	158.818	 34.55143	 -8.33860	 36.36855	 21.78184	  1.52774	 -2.36756	 42.72545	712.29999	 23.70	
 18.695	153.537	 34.56662	 -7.52378	 35.15995	 24.11343	 -0.18776	 -2.48606	 42.69185	712.34003	 23.70	
 18.704	148.255	 34.60515	 -6.66764	 33.71124	 26.03544	 -1.72755	 -2.55767	 42.71378	712.34003	 23.70	
 18.698	142.952	 34.65915	 -5.61170	 32.13628	 28.13918	 -3.11845	 -2.62202	 42.73496	712.47998	 23.70	
 18.699	137.625	 34.65864	 -4.46976	 30.40227	 30.05830	 -4.42670	 -2.64417	 42.70433	712.33002	 23.70	
 18.705	132.343	 34.71052	 -3.18183	 28.54390	 31.82933	 -5.60076	 -2.69235	 42.73498	712.41998	 23.70	
 18.713	127.067	 34.75189	 -1.79224	 26.48519	 33.45424	 -6.64982	 -2.70537	 42.74185	712.34998	 23.70	
 18.700	121.794	 34.79357	 -0.28956	 24.49255	 34.86455	 -7.49341	 -2.76949	 42.71977	712.34998	 23.70	
 18.698	116.504	 34.80240	  1.40230	 22.33129	 36.13445	 -8.29265	 -2.82788	 42.73047	712.39001	 23.80	
 18.707	111.165	 34.80947	  3.28681	 19.97930	 37.15400	 -8.88638	 -2.89715	 42.71811	712.41998	 23.80	
 18.690	105.863	 34.85283	  5.29543	 17.70960	 37.84098	 -9.20417	 -2.91562	 42.71793	712.33002	 23.80	
 18.696	100.583	 34.87299	  7.53937	 15.42012	 38.33146	 -9.43314	 -2.93086	 42.71245	712.29999	 23.80	
 18.700	 95.309	 34.93748	  9.75471	 13.20078	 38.60342	 -9.43572	 -2.86427	 42.73575	712.40002	 23.80	
 18.700	 90.000	 34.95453	 11.87441	 11.08902	 38.61862	 -9.58420	 -2.75150	 42.70938	712.46997	 23.80	
 18.700	 84.691	 35.00602	 14.11286	  8.99411	 38.45595	 -9.66113	 -2.73051	 42.73555	712.44000	 23.80	
 18.696	 79.417	 35.02845	 16.45158	  6.73685	 38.01031	 -9.42076	 -2.69823	 42.71197	712.38000	 23.80	
 18.690	 74.137	 35.09793	 18.73446	  4.76048	 37.37088	 -8.95154	 -2.68677	 42.70930	712.41998	 23.80	
 18.707	 68.835	 35.16227	 20.72248	  2.90375	 36.48127	 -8.29961	 -2.67846	 42.69744	712.46997	 23.80	
 18.698	 63.496	 35.25109	 23.20584	  1.07692	 35.28679	 -7.61606	 -2.65630	 42.72561	712.39001	 23.80	
 18.700	 58.206	 35.30331	 25.46700	 -0.56799	 33.85326	 -6.70052	 -2.61687	 42.71158	712.32001	 23.80	
 18.713	 52.933	 35.37310	 27.53244	 -2.07284	 32.32916	 -5.62198	 -2.56993	 42.71666	712.45001	 23.90	
 18.705	 47.657	 35.44883	 29.41066	 -3.34647	 30.63574	 -4.33744	 -2.48684	 42.71900	712.39001	 23.90	
 18.699	 42.375	 35.52699	 31.21366	 -4.50181	 28.77732	 -2.95707	 -2.38271	 42.71251	712.33002	 23.90	
 18.698	 37.048	 35.59332	 32.86105	 -5.55665	 26.67743	 -1.45154	 -2.32323	 42.70891	712.40997	 23.90	
 18.704	 31.745	 35.65505	 34.30511	 -6.41625	 24.81603	  0.19178	 -2.31963	 42.70957	712.47998	 23.90	
 18.695	 26.463	 35.72078	 35.49721	 -6.91516	 22.59602	  1.98451	 -2.30070	 42.69537	712.51001	 23.90	
 18.706	 21.182	 35.79868	 36.52729	 -7.31723	 20.41936	  3.87188	 -2.28325	 42.70306	712.45001	 23.90	
 18.691	 15.915	 35.83810	 37.26350	 -7.64825	 18.26639	  5.84309	 -2.22903	 42.69535	712.46002	 23.90	
 18.703	 10.559	 35.86560	 37.81310	 -7.91406	 15.94954	  7.94748	 -2.16597	 42.71462	712.42999	 23.90	
 18.709	  5.325	 35.86670	 38.09219	 -8.05622	 13.55704	 10.03172	 -2.06878	 42.69742	712.40997	 23.90	
 18.700	  0.000	 35.87439	 38.13135	 -8.05451	 11.21143	 12.14535	 -1.98173	 42.69157	712.45001	 23.90	
 18.709	 -5.325	 35.87761	 37.95358	 -7.88448	  9.01450	 14.46209	 -1.88741	 42.70551	712.45001	 23.90	
 18.703	-10.559	 35.87656	 37.49096	 -7.60645	  6.87060	 16.83279	 -1.82891	 42.70675	712.40997	 23.90	
 18.691	-15.915	 35.89993	 36.77387	 -7.09518	  4.82288	 19.23068	 -1.79745	 42.69737	712.41998	 24.00	
 18.706	-21.182	 35.86268	 35.85583	 -6.56915	  3.03630	 21.56732	 -1.72261	 42.71624	712.47998	 24.00	
 18.695	-26.463	 35.83286	 34.74719	 -5.90764	  1.36161	 23.80273	 -1.64303	 42.70644	712.53998	 24.00	
 18.704	-31.745	 35.79634	 33.35629	 -5.16238	 -0.19699	 25.84573	 -1.58549	 42.69574	712.48999	 24.00	
 18.698	-37.048	 35.76485	 31.75302	 -4.20087	 -1.64465	 27.93537	 -1.52220	 42.70366	712.56000	 24.00	
 18.699	-42.375	 35.72204	 30.04951	 -3.03409	 -3.01463	 29.88654	 -1.41243	 42.69956	712.58002	 24.00	
 18.705	-47.657	 35.66039	 28.12186	 -1.66020	 -4.29118	 31.63991	 -1.38075	 42.68277	712.64001	 24.00	
 18.713	-52.933	 35.62622	 26.10291	 -0.11108	 -5.36938	 33.15287	 -1.32446	 42.67855	712.50000	 24.00	
 18.700	-58.206	 35.60350	 23.93614	  1.56093	 -6.30924	 34.54052	 -1.30146	 42.69345	712.46997	 24.00	
 18.698	-63.496	 35.54324	 21.48054	  3.35961	 -7.04334	 35.71560	 -1.23231	 42.68270	712.53003	 24.00	
 18.707	-68.835	 35.46886	 19.45623	  5.26605	 -7.74385	 36.69207	 -1.19400	 42.68415	712.50000	 24.10	
 18.690	-74.137	 35.45912	 17.20377	  7.48451	 -8.24252	 37.38801	 -1.18024	 42.68508	712.56000	 24.10	
 18.696	-79.417	 35.36477	 14.89129	  9.55919	 -8.56794	 37.84381	 -1.15020	 42.68279	712.54999	 24.10	
 18.700	-84.691	 35.32648	 12.62057	 11.68079	 -8.63342	 38.03820	 -1.11086	 42.68893	712.46997	 24.10	
 18.700	-90.000	 35.25076	 10.53540	 13.69485	 -8.58041	 37.97882	 -1.08888	 42.67537	712.44000	 24.10	
 18.700	-95.309	 35.19601	  8.32185	 15.87786	 -8.56698	 37.73738	 -1.08303	 42.68061	712.58002	 24.10	
 18.696	-100.583	 35.16529	  5.95524	 18.16644	 -8.23365	 37.21313	 -1.10618	 42.67282	712.47998	 24.10	
 18.690	-105.863	 35.13090	  3.99124	 20.39414	 -7.74435	 36.44822	 -1.07081	 42.68050	712.46002	 24.10	
 18.707	-111.165	 35.05498	  2.05490	 22.77522	 -7.13505	 35.47075	 -1.07838	 42.68261	712.45001	 24.10	
 18.698	-116.504	 35.00185	  0.25479	 24.97923	 -6.35595	 34.18972	 -1.08833	 42.66311	712.52002	 24.10	
 18.700	-121.794	 34.96040	 -1.30690	 26.88389	 -5.47549	 32.72535	 -1.11413	 42.67141	712.39001	 24.10	
 18.713	-127.067	 34.89199	 -2.73581	 28.86345	 -4.51447	 31.12769	 -1.14697	 42.66472	712.50000	 24.10	
 18.705	-132.343	 34.82776	 -4.08259	 30.64827	 -3.41671	 29.32552	 -1.18881	 42.66371	712.40997	 24.10	
 18.699	-137.625	 34.79019	 -5.25729	 32.33519	 -2.15111	 27.31638	 -1.21442	 42.67631	712.44000	 24.10	
 18.698	-142.952	 34.75645	 -6.30230	 33.95529	 -0.72528	 25.18027	 -1.26672	 42.66818	712.41998	 24.10	
 18.704	-148.255	 34.67725	 -7.22104	 35.38015	  0.81625	 23.07767	 -1.33675	 42.64324	712.38000	 24.10	
 18.695	-153.537	 34.61380	 -7.98196	 36.55635	  2.45935	 20.83255	 -1.40177	 42.64909	712.32001	 24.20	
 18.706	-158.818	 34.55272	 -8.59750	 37.45209	  4.25971	 18.44463	 -1.47684	 42.65901	712.39001	 24.20	
 18.691	-164.085	 34.51143	 -9.04910	 38.05899	  6.36445	 16.03736	 -1.50921	 42.63151	712.33002	 24.20	
 18.703	-169.441	 34.47628	 -9.42075	 38.51917	  8.51266	 13.61990	 -1.61997	 42.65762	712.32001	 24.20	
 18.709	-174.675	 34.45632	 -9.55924	 38.72075	 10.67127	 11.35369	 -1.71314	 42.65576	712.47998	 24.20	
 18.700	180.000	 34.47473	 -9.50775	 38.68624	 12.74748	  9.42909	 -1.87783	 42.65776	712.44000	 24.20	
 20.400	180.000	 32.81332	-12.04348	 39.71539	 11.39678	  8.25593	 -1.82358	 42.64182	712.41998	 24.20	
 20.401	-175.153	 32.82165	-12.04322	 39.76588	  9.50777	  9.99777	 -1.62005	 42.66343	712.37000	 24.20	
 20.407	-170.264	 32.81905	-11.85109	 39.56673	  7.37074	 12.12375	 -1.52247	 42.63228	712.41998	 24.20	
 20.410	-165.423	 32.88072	-11.48269	 39.20232	  5.29038	 14.46543	 -1.42883	 42.64871	712.33002	 24.20	
 20.392	-160.496	 32.90096	-11.10517	 38.57952	  3.30960	 16.93335	 -1.34083	 42.64935	712.34003	 24.20	
 20.401	-155.705	 32.93289	-10.59910	 37.80019	  1.48449	 19.29933	 -1.28766	 42.63989	712.34003	 24.20	
 20.405	-150.835	 33.03273	 -9.91554	 36.78941	 -0.18859	 21.60103	 -1.24153	 42.64999	712.34998	 24.20	
 20.397	-145.903	 33.11686	 -9.06508	 35.48248	 -1.77194	 23.85420	 -1.20709	 42.64791	712.32001	 24.20	
 20.392	-141.062	 33.16974	 -8.09734	 34.00784	 -3.20507	 25.99244	 -1.16020	 42.64698	712.34998	 24.30	
 20.396	-136.227	 33.21616	 -7.05461	 32.41109	 -4.53770	 28.08150	 -1.11899	 42.66294	712.34998	 24.30	
 20.408	-131.372	 33.25484	 -5.90188	 30.63204	 -5.73094	 30.00190	 -1.11136	 42.63821	712.40002	 24.30	
 20.410	-126.511	 33.31508	 -4.54848	 28.81588	 -6.79835	 31.84652	 -1.07493	 42.64289	712.29999	 24.30	
 20.400	-121.604	 33.37519	 -3.08077	 26.74542	 -7.75708	 33.46345	 -1.06705	 42.64490	712.37000	 24.30	
 20.403	-116.741	 33.40442	 -1.61608	 24.81613	 -8.60800	 34.90782	 -1.01446	 42.63813	712.35999	 24.30	
 20.413	-111.900	 33.43870	  0.02398	 22.69899	 -9.35334	 36.17089	 -1.00617	 42.64807	712.29999	 24.30	
 20.398	-107.004	 33.52108	  1.91052	 20.34441	 -9.93613	 37.20229	 -1.02322	 42.63714	712.37000	 24.30	
 20.394	-102.132	 33.59118	  3.88931	 17.98550	-10.38511	 38.01542	 -1.02324	 42.63603	712.39001	 24.30	
 20.403	-97.332	 33.62051	  5.85181	 15.69715	-10.71355	 38.59968	 -1.02050	 42.62320	712.34003	 24.30	
 20.392	-92.440	 33.68027	  8.15771	 13.44275	-10.92394	 38.96485	 -1.04011	 42.62416	712.29999	 24.30	
 20.392	-87.560	 33.71878	 10.18890	 11.51204	-10.94564	 39.10254	 -1.05110	 42.61857	712.34003	 24.40	
 20.403	-82.668	 33.73847	 12.25986	  9.52407	-11.06176	 39.07087	 -1.08038	 42.62695	712.48999	 24.30	
 20.394	-77.868	 33.80018	 14.61689	  7.24388	-10.87138	 38.79321	 -1.05599	 42.61573	712.37000	 24.40	
 20.398	-72.996	 33.85814	 16.93074	  5.19356	-10.55347	 38.28902	 -1.09331	 42.61050	712.40997	 24.40	
 20.413	-68.100	 33.88026	 19.21737	  3.18072	-10.09654	 37.56227	 -1.07827	 42.63058	712.39001	 24.40	
 20.403	-63.259	 33.93359	 21.37030	  1.33341	 -9.38025	 36.57581	 -1.13691	 42.61760	712.40997	 24.40	
 20.400	-58.396	 34.02406	 23.63914	 -0.44315	 -8.61513	 35.44733	 -1.14173	 42.62664	712.37000	 24.40	
 20.410	-53.489	 34.09431	 25.86772	 -2.09810	 -7.66291	 34.09100	 -1.20013	 42.63821	712.31000	 24.40	
 20.408	-48.628	 34.10279	 27.92190	 -3.57692	 -6.60810	 32.48625	 -1.28229	 42.60313	712.42999	 24.40	
 20.396	-43.773	 34.14546	 29.85638	 -4.78285	 -5.48948	 30.81101	 -1.33356	 42.61357	712.41998	 24.40	
 20.392	-38.938	 34.21396	 31.58900	 -5.88884	 -4.23566	 28.95518	 -1.40594	 42.63839	712.40997	 24.40	
 20.397	-34.097	 34.23024	 33.24320	 -6.94401	 -2.88302	 26.90898	 -1.46066	 42.62297	712.45001	 24.40	
 20.405	-29.165	 34.21688	 34.82036	 -7.97548	 -1.41143	 24.74162	 -1.49294	 42.62908	712.41998	 24.40	
 20.401	-24.295	 34.22372	 36.07408	 -8.78292	  0.18626	 22.55501	 -1.54949	 42.62045	712.42999	 24.40	
 20.392	-19.504	 34.24791	 37.10417	 -9.43051	  1.89655	 20.28029	 -1.62598	 42.60920	712.37000	 24.50	
 20.410	-14.577	 34.28165	 37.98112	 -9.89018	  3.75868	 17.88624	 -1.70049	 42.61285	712.29999	 24.50	
 20.407	 -9.736	 34.32986	 38.62391	-10.07586	  5.67564	 15.56819	 -1.81325	 42.64189	712.39001	 24.50	
 20.401	 -4.847	 34.36463	 39.00043	-10.00448	  7.76788	 13.34300	 -1.93304	 42.62188	712.32001	 24.50	
 20.400	  0.000	 34.36192	 39.17421	-10.13549	  9.93779	 11.18167	 -2.04434	 42.62048	712.29999	 24.50	
 20.401	  4.847	 34.34230	 39.16312	-10.34115	 12.03048	  9.16000	 -2.19273	 42.63466	712.32001	 24.50	
 20.407	  9.736	 34.23628	 38.89948	-10.58726	 14.21185	  6.99518	 -2.32649	 42.58252	712.28003	 24.50	
 20.410	 14.577	 34.23086	 38.48781	-10.44950	 16.68045	  4.91392	 -2.40484	 42.64082	712.27002	 24.50	
 20.392	 19.504	 34.20156	 37.75607	-10.07888	 18.99770	  2.88666	 -2.47337	 42.60921	712.34003	 24.50	
 20.401	 24.295	 34.12167	 36.84303	 -9.67483	 21.08609	  0.97057	 -2.51557	 42.60270	712.39001	 24.50	
 20.405	 29.165	 34.04107	 35.70390	 -9.16121	 23.32549	 -0.84534	 -2.54302	 42.57227	712.33002	 24.50	
 20.397	 34.097	 34.04346	 34.42181	 -8.38476	 25.54296	 -2.50775	 -2.56717	 42.61962	712.28003	 24.50	
 20.392	 38.938	 33.97290	 32.89133	 -7.45758	 27.45770	 -4.03076	 -2.61299	 42.61918	712.31000	 24.50	
 20.396	 43.773	 33.90588	 31.20348	 -6.40050	 29.45427	 -5.40601	 -2.70961	 42.60580	712.26001	 24.50	
 20.408	 48.628	 33.84727	 29.34753	 -5.20249	 31.27048	 -6.68293	 -2.78428	 42.61751	712.23999	 24.50	
 20.410	 53.489	 33.77074	 27.41417	 -3.95502	 33.01918	 -7.87696	 -2.83021	 42.61721	712.28998	 24.50	
 20.400	 58.396	 33.69655	 25.28812	 -2.61439	 34.54972	 -8.92246	 -2.87377	 42.61201	712.32001	 24.60	
 20.403	 63.259	 33.58760	 22.99658	 -1.13145	 35.91899	 -9.83471	 -2.92230	 42.59234	712.34003	 24.60	
 20.413	 68.100	 33.50005	 20.68062	  0.61362	 37.11857	-10.60055	 -2.96643	 42.59973	712.32001	 24.60	
 20.398	 72.996	 33.41727	 18.60236	  2.48621	 38.01848	-11.31695	 -2.95104	 42.59696	712.28003	 24.60	
 20.394	 77.868	 33.36411	 16.30729	  4.45974	 38.67933	-11.78682	 -2.96563	 42.58932	712.33002	 24.60	
 20.403	 82.668	 33.29830	 13.98221	  6.48115	 39.17034	-12.11848	 -3.01528	 42.57783	712.26001	 24.60	
 20.392	 87.560	 33.27029	 11.63773	  8.60748	 39.46082	-12.17868	 -3.06227	 42.58508	712.28998	 24.60	
 20.392	 92.440	 33.28393	  9.50838	 10.77266	 39.53873	-11.90056	 -3.10922	 42.60522	712.33002	 24.60	
 20.403	 97.332	 33.21581	  7.47228	 12.77484	 39.40761	-11.81381	 -3.19356	 42.58995	712.32001	 24.60	
 20.394	102.132	 33.17290	  5.37430	 14.97000	 39.06756	-11.78842	 -3.18225	 42.58421	712.28998	 24.60	
 20.398	107.004	 33.12878	  3.30349	 17.31118	 38.52708	-11.58715	 -3.14053	 42.60160	712.32001	 24.60	
 20.413	111.900	 33.06503	  1.33701	 19.60627	 37.80576	-11.22296	 -3.06719	 42.58174	712.32001	 24.60	
 20.403	116.741	 33.06982	 -0.42745	 21.80403	 36.81377	-10.61921	 -2.99613	 42.56937	712.28003	 24.60	
 20.400	121.604	 33.06924	 -2.02538	 24.06511	 35.55497	 -9.84872	 -2.97752	 42.55153	712.27002	 24.60	
 20.410	126.511	 33.02842	 -3.48301	 26.05846	 34.15343	 -8.95749	 -2.92496	 42.56890	712.31000	 24.60	
 20.408	131.372	 33.00135	 -4.90739	 28.18484	 32.56356	 -7.97120	 -2.84077	 42.57715	712.31000	 24.60	
 20.396	136.227	 32.95774	 -6.19959	 30.03703	 30.81824	 -6.88293	 -2.77830	 42.56716	712.32001	 24.60	
 20.392	141.062	 32.95174	 -7.33118	 31.85454	 28.96369	 -5.63862	 -2.71497	 42.58968	712.34003	 24.60	
 20.397	145.903	 32.93800	 -8.32529	 33.51219	 26.92112	 -4.29322	 -2.62844	 42.58380	712.33002	 24.60	
 20.405	150.835	 32.84976	 -9.31465	 35.04813	 24.87683	 -2.91203	 -2.53031	 42.56193	712.38000	 24.70	
 20.401	155.705	 32.82981	-10.09575	 36.30970	 22.77270	 -1.37586	 -2.41308	 42.57702	712.29999	 24.70	
 20.392	160.496	 32.82447	-10.77940	 37.43688	 20.57479	  0.37509	 -2.27870	 42.59465	712.28998	 24.70	
 20.410	165.423	 32.76550	-11.32408	 38.29265	 18.34500	  2.23699	 -2.16506	 42.57209	712.23999	 24.70	
 20.407	170.264	 32.75942	-11.66093	 38.97108	 16.09945	  4.16991	 -2.09458	 42.57815	712.26001	 24.70	
 20.401	175.153	 32.74757	-11.93438	 39.41648	 13.59762	  6.21074	 -1.97104	 42.57814	712.21997	 24.70	
  0.141	 45.000	 42.64678	 17.75953	 19.25105	 18.95954	 17.27345	  0.81230	 42.58828	712.25000	 24.70	
  4.001	128.691	 42.43983	 14.25725	 21.79988	 23.05611	 12.66706	  0.52450	 42.57501	712.33002	 24.70	
  4.002	 76.995	 42.51518	 18.66948	 17.58572	 23.99275	 11.87404	  0.69652	 42.58142	712.28003	 24.70	
  4.002	 25.892	 42.54530	 22.50916	 14.08483	 20.73352	 14.98662	  0.78729	 42.56414	712.37000	 24.70	
  4.002	-25.892	 42.56903	 22.35275	 14.35748	 16.12194	 19.85921	  0.71581	 42.58265	712.41998	 24.70	
  4.002	-76.995	 42.50747	 18.32174	 18.24712	 13.50419	 22.78766	  0.58458	 42.55053	712.32001	 24.70	
  4.001	-128.691	 42.43646	 14.00321	 22.32879	 14.62099	 21.37083	  0.47880	 42.55944	712.25000	 24.70	
  4.000	180.000	 42.39533	 12.20140	 24.26743	 18.65635	 16.74227	  0.43930	 42.54935	712.19000	 24.70	
  8.000	180.000	 41.33729	  6.36360	 28.91699	 17.90915	 15.47859	 -0.36110	 42.54853	712.28998	 24.70	
  7.991	-152.370	 41.39270	  7.31031	 27.88032	 13.18570	 20.78551	 -0.35515	 42.54896	712.34998	 24.80	
  7.997	-124.550	 41.49123	 10.36174	 24.51719	  9.58840	 25.17418	 -0.26779	 42.54977	712.38000	 24.80	
  8.006	-96.837	 41.57740	 14.94540	 19.96712	  7.79602	 27.63743	 -0.18675	 42.54435	712.28998	 24.80	
  7.988	-69.228	 41.70773	 19.90121	 14.81204	  8.19958	 27.21995	 -0.13426	 42.56030	712.35999	 24.80	
  7.997	-41.563	 41.81463	 24.60717	 10.83469	 10.71434	 24.18690	  0.02196	 42.57654	712.28998	 24.80	
  8.008	-13.821	 41.82247	 27.40884	  8.47585	 14.81107	 19.36282	  0.16867	 42.56291	712.35999	 24.80	
  8.008	 13.821	 41.79145	 27.59375	  8.18169	 19.72902	 14.09241	  0.25443	 42.55925	712.38000	 24.80	
  7.997	 41.563	 41.70011	 25.08045	 10.01289	 24.32463	  9.46597	  0.28149	 42.55437	712.28003	 24.80	
  7.988	 69.228	 41.59533	 20.59355	 13.69510	 27.71827	  6.55264	  0.17551	 42.55611	712.27002	 24.80	
  8.006	 96.837	 41.49321	 15.56956	 18.80087	 28.59862	  5.76813	 -0.00318	 42.56152	712.16998	 24.80	
  7.997	124.550	 41.39653	 10.88577	 23.38448	 26.81095	  7.15531	 -0.18617	 42.54165	712.21997	 24.80	
  7.991	152.370	 41.36215	  7.62420	 27.29547	 22.63260	 10.57222	 -0.26346	 42.56537	712.26001	 24.90	
 12.009	161.059	 39.46161	  1.01586	 31.73561	 21.83782	  8.53814	 -1.39766	 42.56176	712.22998	 24.90	
 12.013	142.081	 39.47070	  3.29077	 28.77425	 26.47054	  4.50855	 -1.36438	 42.55673	712.27002	 24.90	
 12.006	123.113	 39.53958	  6.91870	 24.31462	 30.24363	  1.70167	 -1.30451	 42.54949	712.25000	 24.90	
 12.007	104.200	 39.59763	 11.59584	 19.51023	 32.43206	  0.24115	 -1.27477	 42.52775	712.22998	 24.90	
 11.989	 85.301	 39.72955	 16.81664	 14.14368	 32.85609	  0.07104	 -1.08506	 42.55043	712.25000	 24.90	
 12.013	 66.294	 39.84639	 22.00240	  9.42216	 31.07718	  1.32711	 -1.06462	 42.55561	712.27002	 24.90	
 12.012	 47.388	 39.94992	 26.76320	  5.70259	 27.79952	  3.91166	 -0.86160	 42.54307	712.16998	 24.90	
 11.990	 28.440	 40.11467	 30.17555	  3.31986	 23.20399	  7.82588	 -0.76512	 42.54632	712.21997	 24.90	
 11.991	  9.464	 40.19152	 32.08242	  2.29281	 18.11233	 12.69431	 -0.80576	 42.54523	712.25000	 24.90	
 11.991	 -9.464	 40.19456	 31.88235	  2.57438	 12.99397	 18.23713	 -0.85554	 42.53047	712.26001	 24.90	
 11.990	-28.440	 40.19455	 29.63302	  4.16209	  8.47131	 23.53139	 -1.05073	 42.55771	712.22998	 24.90	
 12.012	-47.388	 40.11296	 25.97982	  6.93919	  4.56923	 28.02896	 -1.11176	 42.54099	712.27002	 24.90	
 12.013	-66.294	 40.05123	 20.99403	 11.01388	  2.29918	 30.95700	 -1.18181	 42.55087	712.28998	 24.90	
 11.989	-85.301	 39.91428	 15.82213	 15.99139	  1.37823	 32.07008	 -1.11929	 42.52990	712.34998	 25.00	
 12.007	-104.200	 39.76789	 10.65369	 21.34933	  1.86611	 31.22412	 -1.13051	 42.53195	712.26001	 25.00	
 12.006	-123.113	 39.65364	  6.14949	 26.02405	  3.69663	 28.55705	 -1.16837	 42.52479	712.28998	 25.00	
 12.013	-142.081	 39.54047	  2.82611	 29.94454	  7.28188	 24.21779	 -1.16493	 42.53017	712.29999	 25.00	
 12.009	-161.059	 39.46896	  0.72648	 32.47173	 11.66094	 19.11114	 -1.27478	 42.53419	712.31000	 25.00	
 16.000	180.000	 36.71322	 -5.48330	 36.71482	 14.74977	 11.10954	 -1.81420	 42.52996	712.32001	 25.00	
 15.990	-165.604	 36.72437	 -5.22172	 36.31942	  9.57744	 16.59836	 -1.66303	 42.53032	712.20001	 25.00	
 16.002	-151.165	 36.81268	 -3.95397	 34.40080	  4.59614	 22.06945	 -1.49364	 42.53300	712.29999	 25.00	
 16.002	-136.836	 36.92567	 -1.72131	 30.99337	  0.97226	 26.98464	 -1.35464	 42.53158	712.32001	 25.00	
 15.995	-122.439	 37.04317	  1.52008	 26.79414	 -1.76498	 31.18270	 -1.30177	 42.53437	712.26001	 25.00	
 15.993	-107.966	 37.17597	  6.04621	 22.00506	 -3.54271	 34.09045	 -1.27154	 42.52928	712.10999	 25.00	
 16.005	-93.629	 37.29656	 11.03929	 16.66960	 -4.37508	 35.58819	 -1.26747	 42.51716	712.23999	 25.00	
 15.992	-79.234	 37.44534	 16.24831	 11.59210	 -4.33224	 35.58094	 -1.34360	 42.53026	712.28003	 25.10	
 16.009	-64.774	 37.53553	 21.34192	  6.89105	 -3.24330	 34.04646	 -1.44200	 42.53099	712.19000	 25.10	
 15.997	-50.364	 37.63247	 26.54239	  2.74623	 -1.27476	 31.03461	 -1.50596	 42.51710	712.21002	 25.10	
 15.997	-36.045	 37.70815	 30.67310	 -0.60821	  1.73002	 26.83368	 -1.60780	 42.52357	712.29999	 25.10	
 16.000	-21.597	 37.75632	 33.92116	 -2.81943	  5.69816	 21.86499	 -1.63270	 42.53437	712.27002	 25.10	
 16.003	 -7.169	 37.77195	 35.61260	 -4.04371	 10.67540	 16.33673	 -1.62463	 42.52279	712.33002	 25.10	
 16.003	  7.169	 37.74138	 35.79499	 -4.27625	 15.82374	 10.88435	 -1.69853	 42.50732	712.27002	 25.10	
 16.000	 21.597	 37.66019	 34.45602	 -3.55792	 20.92098	  6.17963	 -1.77526	 42.48932	712.23999	 25.10	
 15.997	 36.045	 37.52555	 31.55173	 -1.87144	 26.18952	  1.81617	 -1.72134	 42.50956	712.29999	 25.10	
 15.997	 50.364	 37.37856	 27.61256	  0.91953	 30.38552	 -1.57649	 -1.88819	 42.50825	712.31000	 25.10	
 16.009	 64.774	 37.23731	 22.66980	  4.78906	 33.85733	 -4.01963	 -2.08678	 42.52816	712.33002	 25.10	
 15.992	 79.234	 37.09598	 17.51583	  9.28824	 35.97044	 -5.29617	 -2.05530	 42.48994	712.26001	 25.10	
 16.005	 93.629	 36.99335	 12.27089	 14.24967	 36.56047	 -5.64353	 -2.16092	 42.50139	712.22998	 25.10	
 15.993	107.966	 36.88695	  7.15833	 19.46754	 35.62259	 -5.20890	 -2.32327	 42.49394	712.28003	 25.10	
 15.995	122.439	 36.82970	  2.48194	 24.50634	 32.98769	 -3.69643	 -2.22907	 42.48993	712.37000	 25.10	
 16.002	136.836	 36.75658	 -0.96752	 29.25202	 29.38470	 -1.22380	 -2.22397	 42.50385	712.31000	 25.20	
 16.002	151.165	 36.69342	 -3.43342	 32.98565	 24.70270	  2.13062	 -2.27096	 42.50060	712.37000	 25.20	
 15.990	165.604	 36.68706	 -4.88755	 35.64407	 19.78608	  6.34592	 -2.05264	 42.50755	712.23999	 25.20	
 20.003	168.362	 33.10781	-10.95723	 38.45972	 17.18675	  3.77430	 -2.15952	 42.51075	712.21997	 25.20	
 20.008	156.764	 33.14576	 -9.71340	 36.34786	 22.32744	 -0.56291	 -2.39045	 42.50252	712.31000	 25.20	
 20.000	145.147	 33.25381	 -7.68393	 33.10092	 27.17367	 -4.01648	 -2.65595	 42.50259	712.40002	 25.20	
 19.995	133.545	 33.30373	 -5.00333	 28.96466	 31.64253	 -6.94269	 -2.77717	 42.48883	712.29999	 25.20	
 20.009	121.926	 33.37920	 -1.71296	 24.23395	 35.23956	 -9.20943	 -2.92423	 42.48704	712.32001	 25.20	
 20.005	110.327	 33.41101	  2.33389	 19.01628	 37.78218	-10.74573	 -3.04867	 42.50035	712.28998	 25.20	
 19.989	 98.733	 33.50822	  7.18236	 13.67179	 38.99099	-11.21897	 -3.14250	 42.48830	712.31000	 25.20	
 19.999	 87.075	 33.56712	 12.12010	  8.70335	 39.11793	-11.55913	 -2.99110	 42.48736	712.38000	 25.20	
 19.992	 75.457	 33.68260	 17.57409	  3.89014	 38.08513	-10.94161	 -2.86811	 42.49081	712.37000	 25.20	
 20.009	 63.844	 33.86801	 22.72667	 -0.35204	 35.79911	 -9.34866	 -2.85411	 42.48447	712.31000	 25.20	
 19.989	 52.269	 34.07949	 27.77554	 -3.73146	 32.35468	 -6.99226	 -2.77305	 42.47449	712.27002	 25.20	
 19.999	 40.602	 34.22267	 32.09899	 -6.54276	 28.06145	 -3.98063	 -2.58380	 42.48304	712.28003	 25.30	
 20.004	 29.051	 34.34687	 35.43995	 -8.55761	 23.34171	 -0.32048	 -2.49301	 42.48420	712.27002	 25.30	
 20.005	 17.433	 34.48957	 37.72315	 -9.49101	 18.21088	  4.10227	 -2.40004	 42.48383	712.34003	 25.20	
 20.006	  5.780	 34.57598	 38.75819	 -9.76886	 12.71761	  8.98274	 -2.18498	 42.48713	712.25000	 25.20	
 20.006	 -5.780	 34.59671	 38.57175	 -9.43811	  7.67062	 13.96720	 -1.92040	 42.48424	712.31000	 25.30	
 20.005	-17.433	 34.53980	 37.16561	 -8.97406	  3.02739	 19.39458	 -1.74256	 42.49739	712.34003	 25.30	
 20.004	-29.051	 34.49118	 34.55651	 -7.30602	 -0.87846	 24.65121	 -1.60066	 42.48996	712.44000	 25.30	
 19.999	-40.602	 34.43375	 30.79624	 -4.98557	 -4.13243	 29.43093	 -1.44577	 42.48738	712.34998	 25.30	
 19.989	-52.269	 34.37363	 26.31732	 -1.96832	 -6.80154	 33.40637	 -1.28971	 42.48330	712.34998	 25.30	
 20.009	-63.844	 34.20901	 21.10964	  2.03510	 -8.84826	 36.36988	 -1.21890	 42.47569	712.44000	 25.30	
 19.992	-75.457	 34.11045	 15.94584	  6.56685	-10.11518	 38.20383	 -1.15261	 42.49315	712.34998	 25.30	
 19.999	-87.075	 33.97223	 10.65701	 11.60379	-10.35408	 38.73282	 -1.10936	 42.46987	712.38000	 25.30	
 19.989	-98.733	 33.88366	  5.60724	 16.54593	-10.02300	 38.08731	 -1.09957	 42.48875	712.45001	 25.30	
 20.005	-110.327	 33.71701	  1.03248	 21.98208	 -8.98703	 36.20519	 -1.08034	 42.47698	712.33002	 25.30	
 20.009	-121.926	 33.62522	 -2.71176	 26.78831	 -7.14723	 33.09761	 -1.11654	 42.47067	712.44000	 25.30	
 19.995	-133.545	 33.49267	 -5.88831	 31.21729	 -4.68972	 28.98929	 -1.18552	 42.47467	712.39001	 25.30	
 20.000	-145.147	 33.36232	 -8.34802	 34.96516	 -1.54507	 24.17180	 -1.26822	 42.46365	712.40002	 25.30	
 20.008	-156.764	 33.18087	-10.13302	 37.63493	  2.25134	 18.85485	 -1.38212	 42.45819	712.34003	 25.30	
 20.003	-168.362	 33.12432	-11.10360	 39.06822	  6.88649	 13.27184	 -1.54955	 42.47715	712.26001	 25.40	
 20.000	180.000	 33.07942	-11.37199	 39.31766	 11.70390	  8.50093	 -1.86440	 42.46551	712.29999	 25.40	
