FileType=PCF
NHL=14
Date=08/29/17	12:14:51
Facility=APL
Serial=16328-14
Customer=NASA
NP=6
Mach=0.200000
Calibration=1:1
CalPts=490
TstPts=95
PortNumbering=AP Standard
Units=Torr C m/s kg/m^3 deg mm 
Theta[deg]	Phi[deg]	P1[Torr]	P2[Torr]	P3[Torr]	P4[Torr]	P5[Torr]	P6[Torr]	Pt[Torr]	Ps[Abs,Torr]	Ts[C]	
  0.000	  0.000	 19.67505	 10.29259	 10.25815	 10.10592	 10.45456	  0.17948	 19.64363	706.06299	 23.00	
  1.691	128.401	 19.71867	  9.72758	 10.87520	 10.89223	  9.70154	  0.17624	 19.69227	706.00299	 23.00	
  1.692	 77.194	 19.69821	 10.50507	 10.02013	 11.07618	  9.51334	  0.16353	 19.67132	706.07703	 23.00	
  1.699	 26.182	 19.69914	 11.18002	  9.40604	 10.51793	 10.02813	  0.15689	 19.67617	706.11603	 23.00	
  1.699	-26.182	 19.69917	 11.15791	  9.42466	  9.67888	 10.88427	  0.16453	 19.68343	705.94501	 23.00	
  1.692	-77.194	 19.71129	 10.46395	 10.05145	  9.18318	 11.37028	  0.16072	 19.68967	705.93597	 23.00	
  1.691	-128.401	 19.71637	  9.71691	 10.90365	  9.38880	 11.18264	  0.16176	 19.70238	706.00702	 23.00	
  1.700	180.000	 19.71417	  9.33986	 11.28076	 10.13400	 10.45101	  0.17059	 19.69761	705.92102	 23.00	
  3.400	180.000	 19.65058	  8.30011	 12.21453	 10.02727	 10.36537	  0.13072	 19.66102	706.00702	 23.00	
  3.388	-152.325	 19.62810	  8.50098	 11.97228	  9.12997	 11.20159	  0.12209	 19.64708	705.94702	 23.00	
  3.397	-124.529	 19.63769	  9.08882	 11.33329	  8.47107	 11.92273	  0.12143	 19.66235	706.15802	 23.00	
  3.399	-96.763	 19.63767	  9.94194	 10.42628	  8.14203	 12.28728	  0.12663	 19.67942	706.10101	 23.00	
  3.394	-69.283	 19.64213	 10.83909	  9.54781	  8.24024	 12.17158	  0.13148	 19.67170	705.92700	 23.00	
  3.400	-41.398	 19.65831	 11.70701	  8.80040	  8.76266	 11.60396	  0.13232	 19.68613	705.98297	 23.00	
  3.401	-14.021	 19.64897	 12.18458	  8.36545	  9.56139	 10.83128	  0.12700	 19.66612	705.98999	 23.00	
  3.401	 14.021	 19.68150	 12.22184	  8.34855	 10.48069	  9.91107	  0.10440	 19.69454	705.99500	 23.00	
  3.400	 41.398	 19.66758	 11.75671	  8.75682	 11.35790	  9.09574	  0.10787	 19.67313	706.00299	 23.00	
  3.394	 69.283	 19.64027	 10.91267	  9.45887	 11.89512	  8.56179	  0.11988	 19.63925	705.93903	 23.00	
  3.399	 96.763	 19.69246	 10.04755	 10.37518	 12.05851	  8.46069	  0.14375	 19.69131	705.91302	 23.00	
  3.397	124.529	 19.66211	  9.15519	 11.28620	 11.69116	  8.77896	  0.15254	 19.65956	705.97498	 23.00	
  3.388	152.325	 19.68289	  8.55222	 11.96321	 10.95520	  9.48503	  0.14754	 19.68863	706.02899	 23.00	
  5.099	161.165	 19.58793	  7.38658	 12.95958	 10.87132	  9.31372	  0.08920	 19.68351	705.95898	 23.00	
  5.109	142.013	 19.59015	  7.84178	 12.44513	 11.78073	  8.46043	  0.07432	 19.67469	705.89899	 23.00	
  5.095	123.033	 19.62156	  8.62101	 11.66197	 12.49647	  7.83032	  0.06917	 19.70150	705.92798	 23.00	
  5.105	104.191	 19.57131	  9.44006	 10.72423	 12.91147	  7.41675	  0.09114	 19.64995	705.93597	 23.00	
  5.093	 85.207	 19.56051	 10.35563	  9.79328	 12.96527	  7.34913	  0.03742	 19.64263	705.85400	 23.00	
  5.104	 66.290	 19.61428	 11.36498	  8.93321	 12.75748	  7.58234	  0.03643	 19.70823	705.88000	 23.00	
  5.094	 47.331	 19.58652	 12.22097	  8.13812	 12.13802	  8.11360	  0.02065	 19.68064	705.85400	 23.00	
  5.089	 28.397	 19.57563	 12.85944	  7.54539	 11.31728	  8.84613	  0.00937	 19.68030	705.97498	 23.00	
  5.096	  9.576	 19.56062	 13.18186	  7.24878	 10.32384	  9.73642	  0.01518	 19.67816	705.96198	 23.00	
  5.096	 -9.576	 19.54034	 13.14791	  7.27657	  9.40882	 10.70636	  0.02614	 19.66619	706.00702	 23.00	
  5.089	-28.397	 19.50348	 12.77495	  7.56996	  8.53112	 11.56044	  0.05841	 19.64324	705.95599	 23.00	
  5.094	-47.331	 19.51409	 12.10870	  8.18034	  7.77026	 12.40406	  0.06146	 19.66006	705.96698	 23.00	
  5.104	-66.290	 19.53459	 11.21755	  8.98230	  7.23697	 13.01393	  0.01538	 19.68826	705.89001	 23.00	
  5.093	-85.207	 19.49790	 10.19922	  9.85263	  7.00296	 13.25330	  0.04960	 19.65122	705.80902	 23.00	
  5.105	-104.191	 19.51461	  9.31226	 10.79808	  7.11234	 13.15277	 -0.01573	 19.66684	705.91101	 23.00	
  5.095	-123.033	 19.51109	  8.44887	 11.71109	  7.48029	 12.72670	  0.02843	 19.65074	705.89099	 23.00	
  5.109	-142.013	 19.55765	  7.77488	 12.49681	  8.12566	 12.01408	 -0.02533	 19.67915	705.86902	 23.00	
  5.099	-161.165	 19.56171	  7.35266	 12.99070	  8.96347	 11.10801	 -0.00254	 19.67852	705.80402	 23.00	
  5.100	180.000	 19.56487	  7.21235	 13.13698	  9.88135	 10.25879	  0.01699	 19.66958	705.88501	 23.00	
  6.800	180.000	 19.38417	  6.01201	 14.04019	  9.68869	 10.03092	 -0.09297	 19.65355	705.99799	 23.00	
  6.796	-166.229	 19.35509	  6.10862	 13.92292	  8.77658	 10.86127	 -0.11339	 19.63470	705.86798	 23.00	
  6.808	-152.311	 19.33393	  6.40439	 13.56560	  7.88307	 11.78942	 -0.13385	 19.64160	705.89697	 23.00	
  6.795	-138.383	 19.33134	  6.92924	 12.97168	  7.10414	 12.67212	 -0.13484	 19.65030	705.88300	 23.00	
  6.792	-124.591	 19.33989	  7.63099	 12.20939	  6.49562	 13.39335	 -0.14469	 19.67235	705.77899	 23.00	
  6.787	-110.754	 19.33962	  8.44711	 11.30297	  6.08300	 13.88441	 -0.14891	 19.67443	705.81799	 23.00	
  6.800	-96.985	 19.31099	  9.33078	 10.30589	  5.85400	 14.11088	 -0.12515	 19.64541	705.83398	 23.00	
  6.800	-83.015	 19.34160	 10.24844	  9.45507	  5.83315	 14.15785	 -0.11553	 19.69364	705.89099	 23.00	
  6.787	-69.246	 19.31731	 11.19935	  8.57967	  6.03900	 13.89069	 -0.10938	 19.66653	705.79602	 23.00	
  6.792	-55.409	 19.31372	 12.13822	  7.74301	  6.47811	 13.39890	 -0.09773	 19.65637	705.84497	 23.00	
  6.795	-41.617	 19.31604	 12.92971	  7.04675	  7.10283	 12.71012	 -0.07411	 19.65671	705.77197	 23.00	
  6.808	-27.689	 19.32588	 13.56879	  6.49715	  7.89864	 11.83427	 -0.09289	 19.65013	705.75500	 23.00	
  6.796	-13.771	 19.34843	 13.95451	  6.16705	  8.78145	 10.93233	 -0.12530	 19.66268	705.86499	 23.00	
  6.800	  0.000	 19.35069	 14.08953	  6.06557	  9.67643	 10.01991	 -0.14779	 19.65639	705.75800	 23.00	
  6.796	 13.771	 19.40411	 14.02411	  6.16506	 10.60429	  9.10368	 -0.17295	 19.69387	705.79797	 23.00	
  6.808	 27.689	 19.37631	 13.66033	  6.46362	 11.55042	  8.18453	 -0.18381	 19.65343	705.81799	 23.00	
  6.795	 41.617	 19.39133	 13.06744	  7.00600	 12.41687	  7.39938	 -0.17629	 19.66536	705.74701	 23.00	
  6.792	 55.409	 19.39534	 12.29430	  7.68600	 13.11203	  6.79556	 -0.14388	 19.65343	705.75500	 23.00	
  6.787	 69.246	 19.39777	 11.39375	  8.48516	 13.60911	  6.42023	 -0.11925	 19.64609	705.71600	 23.00	
  6.800	 83.015	 19.42130	 10.42047	  9.34525	 13.88549	  6.22004	 -0.08910	 19.66365	705.73602	 23.00	
  6.800	 96.985	 19.42567	  9.51714	 10.24516	 13.90244	  6.24368	 -0.05133	 19.66155	705.72400	 23.00	
  6.787	110.754	 19.42529	  8.65389	 11.21266	 13.65354	  6.44905	 -0.01631	 19.66286	705.85999	 23.00	
  6.792	124.591	 19.44112	  7.81015	 12.11911	 13.16479	  6.85754	 -0.02582	 19.67931	705.82898	 23.00	
  6.795	138.383	 19.44487	  7.10152	 12.91763	 12.45988	  7.47873	 -0.01080	 19.67935	705.84100	 23.10	
  6.808	152.311	 19.40983	  6.49992	 13.52671	 11.59000	  8.23619	 -0.01142	 19.66029	705.70801	 23.00	
  6.796	166.229	 19.39568	  6.15080	 13.89826	 10.63310	  9.10390	 -0.06021	 19.65727	705.82599	 23.10	
  8.491	168.704	 19.13068	  4.91651	 14.74708	 10.43985	  8.78185	 -0.19371	 19.62961	705.78699	 23.00	
  8.502	157.493	 19.16384	  5.17104	 14.45259	 11.41231	  7.86226	 -0.12892	 19.65571	705.78699	 23.00	
  8.494	146.194	 19.19447	  5.68700	 13.94584	 12.34978	  7.00232	 -0.11413	 19.67412	705.65997	 23.10	
  8.495	135.039	 19.20884	  6.28672	 13.26399	 13.18872	  6.33377	 -0.14157	 19.67927	705.86200	 23.10	
  8.487	123.723	 19.19651	  7.06473	 12.40462	 13.87724	  5.78343	 -0.15689	 19.66091	705.73901	 23.10	
  8.492	112.575	 19.20184	  7.90186	 11.47910	 14.38210	  5.40433	 -0.16680	 19.66593	705.78900	 23.10	
  8.510	101.220	 19.19547	  8.81357	 10.48519	 14.69105	  5.13799	 -0.18877	 19.67127	705.87701	 23.10	
  8.500	 90.000	 19.21312	  9.76469	  9.52311	 14.79230	  5.07386	 -0.22703	 19.67930	705.78699	 23.10	
  8.510	 78.780	 19.19153	 10.70516	  8.58182	 14.67683	  5.13076	 -0.25182	 19.67226	705.72803	 23.10	
  8.492	 67.425	 19.20388	 11.71871	  7.74876	 14.36566	  5.37713	 -0.28020	 19.69533	705.78601	 23.10	
  8.487	 56.277	 19.15371	 12.60554	  6.89891	 13.81490	  5.72535	 -0.30858	 19.65036	705.64899	 23.10	
  8.495	 44.961	 19.14812	 13.43306	  6.16613	 13.11814	  6.26551	 -0.34852	 19.66361	705.76501	 23.10	
  8.494	 33.806	 19.16246	 14.11878	  5.59228	 12.29354	  6.97162	 -0.37934	 19.69833	705.75000	 23.10	
  8.502	 22.507	 19.12523	 14.58842	  5.14890	 11.33872	  7.82183	 -0.37626	 19.66836	705.75598	 23.10	
  8.491	 11.296	 19.10738	 14.85514	  4.89983	 10.35560	  8.77748	 -0.35922	 19.65016	705.68298	 23.10	
  8.500	  0.000	 19.11952	 14.96247	  4.81754	  9.42178	  9.76575	 -0.33540	 19.67952	705.84302	 23.10	
  8.491	-11.296	 19.08138	 14.81557	  4.90202	  8.48155	 10.70520	 -0.30266	 19.65336	705.86798	 23.10	
  8.502	-22.507	 19.07204	 14.50292	  5.17681	  7.56769	 11.65332	 -0.25849	 19.65557	705.71899	 23.10	
  8.494	-33.806	 19.07573	 13.96765	  5.62882	  6.70610	 12.61220	 -0.22988	 19.67666	705.67999	 23.10	
  8.495	-44.961	 19.05703	 13.26383	  6.24914	  5.94201	 13.43854	 -0.23393	 19.67295	705.82098	 23.10	
  8.487	-56.277	 19.03031	 12.39580	  6.99862	  5.34001	 14.08992	 -0.23933	 19.64137	705.74701	 23.10	
  8.492	-67.425	 19.06665	 11.48099	  7.84715	  4.89225	 14.61304	 -0.25903	 19.68622	705.76202	 23.10	
  8.510	-78.780	 19.04259	 10.45943	  8.72816	  4.60818	 14.91161	 -0.26469	 19.66525	705.75098	 23.10	
  8.500	-90.000	 19.05602	  9.54587	  9.62488	  4.53419	 15.01328	 -0.26882	 19.67316	705.67200	 23.10	
  8.510	-101.220	 19.04261	  8.58584	 10.58371	  4.64248	 14.89979	 -0.29766	 19.66482	705.41602	 23.10	
  8.492	-112.575	 19.06362	  7.68427	 11.57651	  4.93943	 14.59296	 -0.31356	 19.67634	705.62402	 23.10	
  8.487	-123.723	 19.05840	  6.82881	 12.48681	  5.35433	 14.06681	 -0.29942	 19.65760	705.62299	 23.10	
  8.495	-135.039	 19.10097	  6.09020	 13.34211	  5.96703	 13.41431	 -0.27688	 19.68753	705.64099	 23.10	
  8.494	-146.194	 19.11007	  5.52064	 14.01340	  6.72872	 12.58317	 -0.25943	 19.68893	705.62097	 23.10	
  8.502	-157.493	 19.14885	  5.11157	 14.53703	  7.59954	 11.64548	 -0.26427	 19.71062	705.77899	 23.10	
  8.491	-168.704	 19.13226	  4.88580	 14.80128	  8.51331	 10.67384	 -0.25240	 19.67341	705.61798	 23.10	
  8.500	180.000	 19.17783	  4.79640	 14.91867	  9.49603	  9.77573	 -0.24071	 19.69430	705.59198	 23.10	
 10.200	180.000	 18.84213	  3.59904	 15.69580	  9.23051	  9.41886	 -0.39086	 19.67835	705.53699	 23.20	
 10.191	-170.497	 18.79346	  3.66522	 15.59875	  8.21506	 10.37187	 -0.41140	 19.64632	705.58398	 23.20	
 10.210	-161.034	 18.79247	  3.84087	 15.36909	  7.26181	 11.35631	 -0.40321	 19.67227	705.68799	 23.20	
 10.194	-151.526	 18.76077	  4.16975	 14.91443	  6.33645	 12.33079	 -0.38887	 19.65516	705.58197	 23.20	
 10.190	-142.105	 18.73732	  4.63454	 14.31598	  5.43473	 13.22947	 -0.38109	 19.64472	705.64099	 23.20	
 10.215	-132.646	 18.71994	  5.22855	 13.59499	  4.68331	 14.02489	 -0.40284	 19.65207	705.59302	 23.20	
 10.203	-123.092	 18.69133	  5.98510	 12.72948	  4.09204	 14.69378	 -0.44120	 19.64252	705.65399	 23.20	
 10.192	-113.678	 18.70269	  6.85329	 11.80140	  3.68308	 15.22315	 -0.46965	 19.65822	705.56500	 23.20	
 10.208	-104.249	 18.71074	  7.75022	 10.84494	  3.37954	 15.60189	 -0.47599	 19.67690	705.48297	 23.20	
 10.210	-94.801	 18.70045	  8.71808	  9.84349	  3.22613	 15.78984	 -0.46473	 19.66885	705.63397	 23.20	
 10.210	-85.199	 18.68816	  9.69417	  8.89480	  3.21057	 15.79645	 -0.41642	 19.66988	705.51398	 23.20	
 10.208	-75.751	 18.69613	 10.66665	  7.95365	  3.35312	 15.63388	 -0.42044	 19.67635	705.57300	 23.20	
 10.192	-66.322	 18.68339	 11.66262	  7.04306	  3.66021	 15.26342	 -0.42045	 19.65698	705.69299	 23.20	
 10.203	-56.908	 18.67639	 12.61329	  6.18490	  4.09066	 14.74250	 -0.40263	 19.63940	705.48499	 23.20	
 10.215	-47.354	 18.68953	 13.50236	  5.41061	  4.70588	 14.08200	 -0.38944	 19.64693	705.58600	 23.20	
 10.190	-37.895	 18.69839	 14.24834	  4.76337	  5.46488	 13.28709	 -0.37649	 19.64772	705.58099	 23.20	
 10.194	-28.474	 18.73499	 14.87531	  4.18493	  6.28488	 12.41095	 -0.39808	 19.66795	705.60699	 23.20	
 10.210	-18.966	 18.74264	 15.34151	  3.80121	  7.18767	 11.42800	 -0.44992	 19.66606	705.60901	 23.20	
 10.191	 -9.503	 18.77167	 15.63212	  3.58415	  8.13608	 10.47302	 -0.49206	 19.67185	705.53003	 23.20	
 10.200	  0.000	 18.77016	 15.73229	  3.51094	  9.11346	  9.48741	 -0.52910	 19.66127	705.54199	 23.20	
 10.191	  9.503	 18.78964	 15.67347	  3.57179	 10.07586	  8.46012	 -0.56184	 19.66300	705.51300	 23.20	
 10.210	 18.966	 18.81418	 15.45961	  3.76782	 11.08228	  7.46383	 -0.59863	 19.68958	705.53101	 23.20	
 10.194	 28.474	 18.78338	 14.99905	  4.15062	 12.03461	  6.57057	 -0.60761	 19.64592	705.50598	 23.20	
 10.190	 37.895	 18.80782	 14.43563	  4.61181	 12.95672	  5.79421	 -0.58713	 19.65209	705.53101	 23.20	
 10.215	 47.354	 18.81276	 13.72346	  5.26648	 13.78107	  5.14050	 -0.53734	 19.64578	705.53400	 23.20	
 10.203	 56.908	 18.82334	 12.87581	  6.03979	 14.45730	  4.53610	 -0.49225	 19.64981	705.47998	 23.20	
 10.192	 66.322	 18.85241	 11.95728	  6.89810	 14.99672	  4.10136	 -0.47604	 19.66394	705.40100	 23.20	
 10.208	 75.751	 18.90732	 10.98890	  7.80097	 15.40740	  3.83726	 -0.46213	 19.70291	705.45502	 23.20	
 10.210	 85.199	 18.89012	  9.97725	  8.70451	 15.57538	  3.71340	 -0.43522	 19.68177	705.53900	 23.20	
 10.210	 94.801	 18.88977	  9.00845	  9.70723	 15.57970	  3.73155	 -0.40337	 19.67604	705.46503	 23.20	
 10.208	104.249	 18.89223	  8.03591	 10.71020	 15.39746	  3.89996	 -0.37130	 19.66523	705.58600	 23.20	
 10.192	113.678	 18.89396	  7.10915	 11.69033	 15.03857	  4.25776	 -0.35427	 19.66346	705.50598	 23.20	
 10.203	123.092	 18.87504	  6.23421	 12.61852	 14.53163	  4.69296	 -0.34349	 19.65394	705.51599	 23.20	
 10.215	132.646	 18.89215	  5.49731	 13.51138	 13.88183	  5.17954	 -0.32046	 19.67806	705.48798	 23.20	
 10.190	142.105	 18.88922	  4.83155	 14.26042	 13.07040	  5.81969	 -0.28035	 19.67606	705.61798	 23.20	
 10.194	151.526	 18.86473	  4.31825	 14.84669	 12.13992	  6.56126	 -0.25736	 19.65910	705.56500	 23.20	
 10.210	161.034	 18.86689	  3.93731	 15.31515	 11.16421	  7.48770	 -0.29607	 19.67777	705.59198	 23.20	
 10.191	170.497	 18.85535	  3.71083	 15.58548	 10.19011	  8.45757	 -0.34992	 19.66971	705.43500	 23.20	
 11.899	171.783	 18.45227	  2.28401	 16.32746	  9.88793	  8.00741	 -0.50158	 19.66812	705.61298	 23.30	
 11.890	163.610	 18.45406	  2.50319	 16.06986	 10.84171	  7.02887	 -0.44326	 19.65061	705.49103	 23.30	
 11.889	155.445	 18.47003	  2.93494	 15.68699	 11.84754	  6.14168	 -0.38830	 19.64965	705.55103	 23.30	
 11.909	147.299	 18.47554	  3.39327	 15.15772	 12.81197	  5.30994	 -0.38422	 19.66156	705.41998	 23.30	
 11.902	139.148	 18.50033	  3.92959	 14.49905	 13.69851	  4.56344	 -0.43680	 19.66691	705.43701	 23.30	
 11.894	130.867	 18.48189	  4.56948	 13.67765	 14.45074	  3.95214	 -0.47241	 19.64083	705.52802	 23.30	
 11.897	122.732	 18.51948	  5.34711	 12.82984	 15.13928	  3.44900	 -0.51547	 19.67556	705.54199	 23.30	
 11.903	114.597	 18.50021	  6.21379	 11.86631	 15.65619	  3.02974	 -0.54402	 19.65890	705.50500	 23.30	
 11.893	106.346	 18.50791	  7.18066	 10.85206	 16.04225	  2.73525	 -0.54910	 19.66212	705.41302	 23.30	
 11.892	 98.155	 18.51735	  8.18667	  9.85316	 16.27157	  2.56242	 -0.58392	 19.67570	705.60602	 23.30	
 11.900	 90.000	 18.49559	  9.16510	  8.87308	 16.32476	  2.49122	 -0.60088	 19.65297	705.57001	 23.30	
 11.892	 81.845	 18.51414	 10.16128	  7.90949	 16.25394	  2.54659	 -0.61876	 19.67743	705.44000	 23.30	
 11.893	 73.654	 18.50632	 11.19316	  6.93560	 16.01834	  2.72718	 -0.64086	 19.69100	705.56097	 23.30	
 11.903	 65.403	 18.50229	 12.19560	  6.01941	 15.62374	  3.01468	 -0.65349	 19.70286	705.46100	 23.30	
 11.897	 57.268	 18.45613	 13.10901	  5.10561	 15.05002	  3.42500	 -0.67377	 19.66297	705.46600	 23.30	
 11.894	 49.133	 18.46044	 13.95886	  4.35208	 14.38157	  3.97059	 -0.71284	 19.67987	705.46899	 23.30	
 11.902	 40.852	 18.41998	 14.70298	  3.67338	 13.57786	  4.59505	 -0.77562	 19.66578	705.58197	 23.30	
 11.909	 32.701	 18.42620	 15.35733	  3.13565	 12.71746	  5.31189	 -0.82151	 19.68297	705.60602	 23.30	
 11.889	 24.555	 18.40190	 15.83665	  2.72517	 11.74149	  6.19434	 -0.82641	 19.66960	705.58197	 23.30	
 11.890	 16.390	 18.36483	 16.16872	  2.41529	 10.71913	  7.07112	 -0.80054	 19.62886	705.50800	 23.30	
 11.899	  8.217	 18.37175	 16.39886	  2.20367	  9.74199	  8.08726	 -0.76343	 19.65720	705.41998	 23.30	
 11.900	  0.000	 18.32689	 16.41686	  2.13739	  8.73874	  9.13508	 -0.71426	 19.61856	705.38202	 23.30	
 11.899	 -8.217	 18.35589	 16.35855	  2.21104	  7.75714	 10.14846	 -0.68529	 19.66237	705.43201	 23.30	
 11.890	-16.390	 18.33401	 16.08932	  2.44715	  6.77483	 11.13016	 -0.62865	 19.65424	705.48499	 23.30	
 11.889	-24.555	 18.32833	 15.70156	  2.78029	  5.84813	 12.12193	 -0.57715	 19.66093	705.55298	 23.30	
 11.909	-32.701	 18.30008	 15.14898	  3.21993	  4.90172	 13.04667	 -0.53863	 19.65525	705.49597	 23.30	
 11.902	-40.852	 18.31821	 14.49918	  3.79647	  4.14638	 13.91907	 -0.53136	 19.68121	705.42603	 23.30	
 11.894	-49.133	 18.29556	 13.68199	  4.47712	  3.44851	 14.68987	 -0.53862	 19.67219	705.39600	 23.30	
 11.897	-57.268	 18.24796	 12.77596	  5.28780	  2.86229	 15.30906	 -0.54094	 19.62419	705.42902	 23.30	
 11.903	-65.403	 18.25098	 11.82322	  6.15999	  2.40978	 15.84781	 -0.54740	 19.64081	705.42401	 23.40	
 11.893	-73.654	 18.27623	 10.82534	  7.11339	  2.09059	 16.23087	 -0.55032	 19.66966	705.40900	 23.40	
 11.892	-81.845	 18.27188	  9.81528	  8.07836	  1.91451	 16.46153	 -0.55607	 19.65612	705.49103	 23.40	
 11.900	-90.000	 18.25043	  8.83479	  8.98548	  1.84963	 16.52158	 -0.57895	 19.63783	705.39600	 23.40	
 11.892	-98.155	 18.26771	  7.85821	  9.99668	  1.93740	 16.44098	 -0.63393	 19.64661	705.37097	 23.40	
 11.893	-106.346	 18.27950	  6.90917	 11.01576	  2.13070	 16.19925	 -0.64646	 19.66125	705.42700	 23.40	
 11.903	-114.597	 18.27356	  5.96596	 12.00018	  2.44278	 15.80832	 -0.63842	 19.64691	705.33002	 23.40	
 11.897	-122.732	 18.29535	  5.08581	 12.94978	  2.91706	 15.29309	 -0.59647	 19.67178	705.46600	 23.40	
 11.894	-130.867	 18.31696	  4.35474	 13.79258	  3.50906	 14.63435	 -0.54799	 19.66467	705.41803	 23.40	
 11.902	-139.148	 18.31360	  3.72950	 14.55938	  4.19370	 13.82778	 -0.52076	 19.64564	705.29498	 23.40	
 11.909	-147.299	 18.35003	  3.21908	 15.22932	  4.98848	 12.97972	 -0.52577	 19.66672	705.42902	 23.40	
 11.889	-155.445	 18.35100	  2.76570	 15.71336	  5.87735	 12.02898	 -0.54276	 19.64381	705.42603	 23.40	
 11.890	-163.610	 18.40764	  2.41100	 16.12423	  6.89827	 11.05644	 -0.56771	 19.67872	705.56201	 23.40	
 11.899	-171.783	 18.42300	  2.23572	 16.35324	  7.86244	 10.07173	 -0.57698	 19.67981	705.52002	 23.40	
 11.900	180.000	 18.39618	  2.18640	 16.38056	  8.82855	  9.03553	 -0.56464	 19.63196	705.40997	 23.40	
 13.600	180.000	 17.97329	  0.96676	 17.08270	  8.45942	  8.63632	 -0.71372	 19.67994	705.33002	 23.40	
 13.608	-172.853	 17.92984	  0.98663	 17.01110	  7.41705	  9.64082	 -0.73925	 19.65389	705.44000	 23.40	
 13.611	-165.583	 17.90853	  1.13123	 16.81168	  6.40327	 10.63968	 -0.72829	 19.65285	705.42401	 23.40	
 13.601	-158.353	 17.90968	  1.41175	 16.47991	  5.45055	 11.67124	 -0.69526	 19.67509	705.43500	 23.40	
 13.609	-151.210	 17.85379	  1.75592	 15.98625	  4.53255	 12.61043	 -0.67346	 19.63085	705.38202	 23.40	
 13.611	-143.999	 17.88588	  2.21690	 15.45755	  3.72245	 13.56045	 -0.65866	 19.68380	705.34802	 23.40	
 13.601	-136.825	 17.82622	  2.77236	 14.73236	  2.98093	 14.35689	 -0.64627	 19.63364	705.34998	 23.40	
 13.596	-129.640	 17.82351	  3.40107	 13.95887	  2.29663	 15.13131	 -0.66885	 19.65936	705.37299	 23.40	
 13.611	-122.431	 17.79859	  4.12707	 13.09446	  1.74313	 15.77834	 -0.71549	 19.66204	705.42700	 23.40	
 13.604	-115.211	 17.79692	  4.95493	 12.15661	  1.30907	 16.31605	 -0.76187	 19.66146	705.40900	 23.40	
 13.595	-108.042	 17.79711	  5.91330	 11.17108	  0.98823	 16.72034	 -0.79420	 19.66148	705.38501	 23.40	
 13.607	-100.793	 17.76887	  6.90492	 10.13778	  0.75654	 16.99674	 -0.77691	 19.64674	705.34003	 23.40	
 13.601	-93.617	 17.78580	  7.89347	  9.13905	  0.62109	 17.15786	 -0.70705	 19.66713	705.50299	 23.40	
 13.601	-86.383	 17.76799	  8.87900	  8.09661	  0.60662	 17.16001	 -0.66207	 19.65945	705.29498	 23.40	
 13.607	-79.207	 17.76346	  9.89230	  7.17654	  0.71210	 17.02882	 -0.62349	 19.65967	705.25201	 23.40	
 13.595	-71.958	 17.77915	 10.91801	  6.20062	  0.93208	 16.77092	 -0.61560	 19.66456	705.33099	 23.40	
 13.604	-64.789	 17.76084	 11.91827	  5.21301	  1.25753	 16.36096	 -0.62188	 19.64339	705.39801	 23.40	
 13.611	-57.569	 17.76612	 12.87777	  4.36743	  1.68725	 15.83901	 -0.63230	 19.63148	705.29498	 23.40	
 13.596	-50.360	 17.80881	 13.80106	  3.60931	  2.23659	 15.22231	 -0.62827	 19.66936	705.28497	 23.40	
 13.601	-43.175	 17.82477	 14.61085	  2.94976	  2.90410	 14.47849	 -0.63651	 19.66855	705.35901	 23.40	
 13.611	-36.001	 17.81748	 15.32345	  2.33032	  3.61012	 13.63050	 -0.64573	 19.65458	705.46600	 23.40	
 13.609	-28.790	 17.82166	 15.93266	  1.83524	  4.41416	 12.72633	 -0.67752	 19.64608	705.27502	 23.40	
 13.601	-21.647	 17.84486	 16.42597	  1.44537	  5.30309	 11.77553	 -0.71921	 19.65264	705.42700	 23.40	
 13.611	-14.417	 17.83313	 16.77542	  1.13168	  6.29819	 10.77415	 -0.77611	 19.63880	705.41199	 23.40	
 13.608	 -7.147	 17.86618	 17.02176	  0.94534	  7.32396	  9.75932	 -0.82437	 19.65576	705.49902	 23.40	
 13.600	  0.000	 17.87710	 17.10373	  0.88756	  8.32081	  8.72866	 -0.86398	 19.65038	705.38702	 23.40	
 13.608	  7.147	 17.89259	 17.06422	  0.92953	  9.32504	  7.68500	 -0.91201	 19.66079	705.26001	 23.40	
 13.611	 14.417	 17.91895	 16.90054	  1.11560	 10.34640	  6.68956	 -0.95324	 19.67200	705.42401	 23.40	
 13.601	 21.647	 17.93291	 16.57767	  1.37736	 11.37688	  5.76910	 -0.99435	 19.67778	705.36499	 23.40	
 13.609	 28.790	 17.93335	 16.13018	  1.74143	 12.35231	  4.92964	 -1.00233	 19.65792	705.34698	 23.40	
 13.611	 36.001	 17.93433	 15.55566	  2.20517	 13.27241	  4.14661	 -0.99687	 19.64791	705.50299	 23.40	
 13.601	 43.175	 17.95403	 14.88306	  2.80422	 14.11444	  3.48069	 -0.93122	 19.64733	705.38702	 23.40	
 13.596	 50.360	 17.96889	 14.11086	  3.46641	 14.88919	  2.87109	 -0.87530	 19.64790	705.33301	 23.40	
 13.611	 57.569	 17.97145	 13.24640	  4.20408	 15.55712	  2.33667	 -0.84124	 19.65185	705.43298	 23.40	
 13.604	 64.789	 17.98166	 12.30726	  5.03009	 16.10730	  1.91125	 -0.82392	 19.64814	705.33301	 23.40	
 13.595	 71.958	 18.00725	 11.33118	  5.99541	 16.53521	  1.60279	 -0.80023	 19.65419	705.22601	 23.40	
 13.607	 79.207	 18.02286	 10.32036	  6.96711	 16.83333	  1.37918	 -0.78242	 19.66344	705.30902	 23.40	
 13.601	 86.383	 18.03907	  9.30491	  7.93412	 16.97732	  1.27786	 -0.77877	 19.66570	705.33301	 23.40	
 13.601	 93.617	 18.04778	  8.28541	  8.94637	 16.99224	  1.29299	 -0.75801	 19.66925	705.44098	 23.40	
 13.607	100.793	 18.00710	  7.25515	  9.91536	 16.82451	  1.39914	 -0.74207	 19.62413	705.50800	 23.40	
 13.595	108.042	 18.03750	  6.26617	 10.96394	 16.58154	  1.63192	 -0.72619	 19.64184	705.46899	 23.40	
 13.604	115.211	 18.02743	  5.31762	 11.96162	 16.18279	  1.94017	 -0.71649	 19.64493	705.27502	 23.40	
 13.611	122.431	 18.03227	  4.46147	 12.91915	 15.65962	  2.34963	 -0.69290	 19.64559	705.29498	 23.40	
 13.596	129.640	 18.04503	  3.73352	 13.80723	 15.00595	  2.86929	 -0.64747	 19.64910	705.38202	 23.40	
 13.601	136.825	 18.01408	  3.04909	 14.59909	 14.23716	  3.43353	 -0.60216	 19.61898	705.42902	 23.40	
 13.611	143.999	 18.04027	  2.45905	 15.34230	 13.44043	  4.10769	 -0.56234	 19.66966	705.31403	 23.40	
 13.609	151.210	 18.01217	  1.95572	 15.93417	 12.50708	  4.85605	 -0.55028	 19.64298	705.26300	 23.40	
 13.601	158.353	 18.01396	  1.54257	 16.42426	 11.52636	  5.67800	 -0.56138	 19.65817	705.39502	 23.40	
 13.611	165.583	 17.99570	  1.24186	 16.77475	 10.50389	  6.60778	 -0.61216	 19.65969	705.40198	 23.40	
 13.608	172.853	 17.95540	  1.04201	 16.97199	  9.48365	  7.58362	 -0.68273	 19.63945	705.34198	 23.40	
 15.298	173.587	 17.43814	 -0.14999	 17.56885	  9.07748	  7.13712	 -0.80269	 19.65675	705.25201	 23.40	
 15.291	167.167	 17.46865	  0.04446	 17.39637	 10.09027	  6.18289	 -0.77618	 19.66414	705.24402	 23.40	
 15.307	160.676	 17.48475	  0.30719	 17.07790	 11.10369	  5.25435	 -0.72399	 19.65552	705.39600	 23.40	
 15.300	154.261	 17.48429	  0.65652	 16.63400	 12.11178	  4.40658	 -0.68618	 19.64251	705.45502	 23.40	
 15.288	147.854	 17.50173	  1.09944	 16.09042	 13.06363	  3.64195	 -0.67629	 19.64344	705.22302	 23.40	
 15.293	141.428	 17.52127	  1.61634	 15.45749	 13.96111	  2.94930	 -0.69659	 19.65487	705.37097	 23.40	
 15.299	134.985	 17.51322	  2.21573	 14.69464	 14.77292	  2.29017	 -0.74197	 19.64497	705.40900	 23.40	
 15.305	128.583	 17.52393	  2.89283	 13.87775	 15.51871	  1.71420	 -0.77893	 19.65218	705.32599	 23.40	
 15.309	122.142	 17.51673	  3.65498	 12.96949	 16.12683	  1.21451	 -0.80723	 19.63985	705.19598	 23.40	
 15.304	115.711	 17.52536	  4.49626	 12.01584	 16.64793	  0.80555	 -0.81831	 19.64021	705.26398	 23.40	
 15.297	109.291	 17.51218	  5.36309	 11.01531	 17.05272	  0.45886	 -0.82455	 19.63516	705.15100	 23.40	
 15.293	102.897	 17.51518	  6.31382	  9.99626	 17.35099	  0.21495	 -0.83851	 19.64606	705.24597	 23.40	
 15.293	 96.458	 17.50002	  7.32333	  8.97964	 17.52081	  0.03503	 -0.85163	 19.62853	705.32300	 23.40	
 15.300	 90.000	 17.54757	  8.39355	  7.96644	 17.62281	 -0.03380	 -0.86854	 19.69181	705.33301	 23.40	
 15.293	 83.542	 17.51000	  9.41503	  6.91615	 17.50630	  0.03675	 -0.88412	 19.65088	705.21802	 23.40	
 15.293	 77.103	 17.49106	 10.41053	  5.92850	 17.29613	  0.22367	 -0.90589	 19.63303	705.15900	 23.40	
 15.297	 70.709	 17.49831	 11.42052	  5.01690	 16.98693	  0.47100	 -0.92456	 19.65283	705.22900	 23.40	
 15.304	 64.289	 17.46781	 12.39931	  4.13328	 16.54515	  0.81726	 -0.94161	 19.63452	705.09399	 23.40	
 15.309	 57.858	 17.46554	 13.32805	  3.34309	 16.01449	  1.25158	 -0.97408	 19.64909	705.09497	 23.40	
 15.305	 51.417	 17.42804	 14.17935	  2.58230	 15.34919	  1.75750	 -1.00976	 19.62757	705.22900	 23.40	
 15.299	 45.015	 17.42150	 14.97677	  1.93172	 14.60613	  2.34486	 -1.06536	 19.62589	705.22400	 23.40	
 15.293	 38.572	 17.41445	 15.69512	  1.36062	 13.76044	  3.01405	 -1.10630	 19.63688	705.24597	 23.40	
 15.288	 32.146	 17.41455	 16.31524	  0.87277	 12.87702	  3.73078	 -1.12227	 19.65514	705.04401	 23.40	
 15.300	 25.739	 17.38540	 16.81014	  0.46484	 11.92225	  4.50291	 -1.10260	 19.64378	704.99402	 23.40	
 15.307	 19.324	 17.37223	 17.20835	  0.14440	 10.91261	  5.36737	 -1.06837	 19.65043	705.15100	 23.40	
 15.291	 12.833	 17.36449	 17.49183	 -0.06925	  9.89440	  6.28386	 -1.01663	 19.64937	705.14203	 23.40	
 15.298	  6.413	 17.34531	 17.64828	 -0.25029	  8.87913	  7.24322	 -0.97518	 19.65529	705.03198	 23.40	
 15.300	  0.000	 17.34762	 17.69670	 -0.30548	  7.82815	  8.29364	 -0.94090	 19.67202	705.18402	 23.40	
 15.298	 -6.413	 17.30201	 17.58496	 -0.24278	  6.78042	  9.30596	 -0.89821	 19.63146	705.07800	 23.40	
 15.291	-12.833	 17.27475	 17.37143	 -0.07110	  5.79809	 10.31973	 -0.85550	 19.61201	705.23199	 23.40	
 15.307	-19.324	 17.28447	 17.06189	  0.19486	  4.82025	 11.32909	 -0.81421	 19.63384	705.16998	 23.40	
 15.300	-25.739	 17.30617	 16.63572	  0.56403	  3.97099	 12.32337	 -0.76209	 19.66286	705.23297	 23.40	
 15.288	-32.146	 17.27465	 16.06439	  0.98478	  3.14894	 13.24014	 -0.73604	 19.63568	705.25403	 23.40	
 15.293	-38.572	 17.27871	 15.42685	  1.48601	  2.37709	 14.14277	 -0.69864	 19.65277	705.15302	 23.40	
 15.299	-45.015	 17.26637	 14.67312	  2.06844	  1.69509	 14.96331	 -0.67830	 19.66788	705.17297	 23.40	
 15.305	-51.417	 17.24299	 13.83182	  2.75142	  1.11116	 15.66454	 -0.67770	 19.65061	705.22601	 23.40	
 15.309	-57.858	 17.22036	 12.91754	  3.51312	  0.61387	 16.27687	 -0.66829	 19.62653	705.15698	 23.40	
 15.304	-64.289	 17.22122	 11.96415	  4.33016	  0.18091	 16.80956	 -0.64809	 19.65078	705.22900	 23.40	
 15.297	-70.709	 17.19118	 10.94577	  5.20610	 -0.15458	 17.20152	 -0.62928	 19.62520	705.14502	 23.40	
 15.293	-77.103	 17.19522	  9.94006	  6.14412	 -0.39197	 17.50509	 -0.61296	 19.63469	705.17401	 23.40	
 15.293	-83.542	 17.19928	  8.91991	  7.13059	 -0.54246	 17.68032	 -0.64215	 19.63804	705.12000	 23.40	
 15.300	-90.000	 17.18806	  7.86625	  8.15654	 -0.60409	 17.73447	 -0.69930	 19.63933	705.16998	 23.40	
 15.293	-96.458	 17.18032	  6.83679	  9.19035	 -0.53148	 17.65513	 -0.77988	 19.62811	705.10303	 23.40	
 15.293	-102.897	 17.18991	  5.85319	 10.19907	 -0.36499	 17.46609	 -0.86443	 19.63531	705.06598	 23.40	
 15.297	-109.291	 17.20454	  4.92132	 11.20613	 -0.12657	 17.17012	 -0.88635	 19.63299	705.15302	 23.40	
 15.304	-115.711	 17.23836	  4.06670	 12.20445	  0.22943	 16.76172	 -0.83782	 19.65460	705.19800	 23.40	
 15.309	-122.142	 17.26750	  3.27451	 13.15848	  0.66327	 16.23819	 -0.80122	 19.67284	705.12201	 23.40	
 15.305	-128.583	 17.29109	  2.55552	 14.04172	  1.17406	 15.60177	 -0.77131	 19.67808	705.20898	 23.40	
 15.299	-134.985	 17.25900	  1.90351	 14.80558	  1.75848	 14.83537	 -0.76248	 19.62840	705.08899	 23.40	
 15.293	-141.428	 17.29497	  1.34402	 15.54656	  2.46320	 14.02538	 -0.76332	 19.64318	705.21198	 23.40	
 15.288	-147.854	 17.31309	  0.86877	 16.16876	  3.23892	 13.12301	 -0.79148	 19.64010	705.13397	 23.40	
 15.300	-154.261	 17.34404	  0.47438	 16.69875	  4.08364	 12.20480	 -0.80318	 19.65680	705.12000	 23.40	
 15.307	-160.676	 17.35215	  0.15736	 17.10550	  4.98612	 11.22183	 -0.82625	 19.65036	705.08801	 23.40	
 15.291	-167.167	 17.36274	 -0.06475	 17.39328	  5.97861	 10.19624	 -0.85585	 19.63025	705.13098	 23.40	
 15.298	-173.587	 17.37394	 -0.21378	 17.57044	  6.96304	  9.17994	 -0.86494	 19.63757	705.21301	 23.40	
 15.300	180.000	 17.38041	 -0.24078	 17.60315	  7.98859	  8.14839	 -0.83952	 19.61033	705.11200	 23.40	
 17.000	180.000	 16.80467	 -1.38135	 18.14841	  7.52244	  7.64511	 -0.90535	 19.64732	705.17798	 23.40	
 16.990	-174.179	 16.76975	 -1.35677	 18.08959	  6.48925	  8.66382	 -0.89557	 19.62775	705.13098	 23.40	
 17.009	-168.383	 16.76283	 -1.25217	 17.95215	  5.50100	  9.68602	 -0.87176	 19.65205	705.36200	 23.40	
 17.000	-162.596	 16.76230	 -1.03182	 17.69002	  4.52608	 10.69936	 -0.85461	 19.66249	705.21600	 23.40	
 16.990	-156.759	 16.75710	 -0.77063	 17.32871	  3.61026	 11.70210	 -0.84838	 19.66518	705.25403	 23.40	
 16.995	-150.919	 16.70096	 -0.43422	 16.81596	  2.74987	 12.64616	 -0.84352	 19.62201	705.27100	 23.40	
 16.988	-145.161	 16.68903	 -0.02452	 16.25297	  1.97417	 13.56668	 -0.83842	 19.62606	705.40601	 23.40	
 17.014	-139.343	 16.69602	  0.44847	 15.62234	  1.24056	 14.46387	 -0.83075	 19.66613	705.35400	 23.40	
 17.007	-133.546	 16.67554	  1.01773	 14.87216	  0.61204	 15.24153	 -0.82590	 19.65870	705.16199	 23.40	
 17.001	-127.699	 16.65051	  1.66725	 14.03518	  0.05399	 15.95966	 -0.84218	 19.65351	705.21198	 23.40	
 17.006	-121.937	 16.60414	  2.37190	 13.12243	 -0.43071	 16.56671	 -0.84892	 19.62285	705.17401	 23.40	
 17.002	-116.134	 16.60154	  3.14723	 12.18931	 -0.83485	 17.12511	 -0.86506	 19.63822	705.29498	 23.40	
 17.001	-110.310	 16.61762	  3.99083	 11.22433	 -1.14104	 17.58044	 -0.86610	 19.66452	705.30200	 23.40	
 16.988	-104.517	 16.61197	  4.89237	 10.21865	 -1.37211	 17.89918	 -0.83516	 19.66477	705.25500	 23.40	
 17.008	-98.662	 16.54692	  5.83413	  9.20079	 -1.58013	 18.08062	 -0.75160	 19.60791	705.12000	 23.40	
 16.996	-92.909	 16.57390	  6.84100	  8.20030	 -1.68018	 18.22324	 -0.68041	 19.64133	705.09802	 23.40	
 16.996	-87.091	 16.55069	  7.85618	  7.16883	 -1.68448	 18.21589	 -0.61944	 19.62432	705.27698	 23.40	
 17.012	-81.253	 16.56338	  8.89192	  6.16869	 -1.61330	 18.14271	 -0.58465	 19.64104	705.30200	 23.40	
 16.988	-75.483	 16.58013	  9.91625	  5.23958	 -1.40654	 17.93263	 -0.58008	 19.64493	705.24103	 23.40	
 17.001	-69.690	 16.59614	 10.92312	  4.30982	 -1.19131	 17.64296	 -0.59203	 19.65939	705.16998	 23.40	
 17.002	-63.866	 16.60408	 11.92545	  3.42998	 -0.88128	 17.21359	 -0.60964	 19.65195	705.15302	 23.40	
 17.006	-58.063	 16.61731	 12.89234	  2.62792	 -0.50416	 16.69107	 -0.63439	 19.64842	705.16803	 23.40	
 17.001	-52.301	 16.61753	 13.79727	  1.89695	 -0.02478	 16.05879	 -0.64911	 19.63869	705.22601	 23.40	
 17.007	-46.454	 16.65744	 14.67988	  1.22782	  0.53652	 15.37340	 -0.67746	 19.66774	705.20898	 23.40	
 17.014	-40.657	 16.64194	 15.43889	  0.62641	  1.14713	 14.57995	 -0.69583	 19.64798	705.19000	 23.40	
 16.988	-34.839	 16.65545	 16.11639	  0.12443	  1.86423	 13.70572	 -0.73118	 19.62377	705.12299	 23.40	
 16.995	-29.081	 16.67191	 16.71928	 -0.30897	  2.63783	 12.79623	 -0.74587	 19.63575	705.26398	 23.40	
 16.990	-23.241	 16.68387	 17.22738	 -0.68043	  3.48118	 11.83167	 -0.81576	 19.63605	705.09100	 23.40	
 17.000	-17.404	 16.70174	 17.64246	 -0.97614	  4.36464	 10.87526	 -0.81344	 19.65759	705.10797	 23.40	
 17.009	-11.617	 16.72174	 17.95440	 -1.21047	  5.31383	  9.87692	 -0.85249	 19.66652	705.17603	 23.30	
 16.990	 -5.821	 16.74112	 18.13057	 -1.34675	  6.30348	  8.85824	 -0.89397	 19.66837	705.14301	 23.40	
 17.000	  0.000	 16.74521	 18.20728	 -1.40319	  7.32432	  7.81794	 -0.92034	 19.66920	705.25403	 23.40	
 16.990	  5.821	 16.73697	 18.14564	 -1.35052	  8.36416	  6.78469	 -0.94981	 19.63722	705.18201	 23.40	
 17.009	 11.617	 16.75472	 18.02663	 -1.23664	  9.39126	  5.83739	 -0.98997	 19.64870	705.21301	 23.40	
 17.000	 17.404	 16.75410	 17.76527	 -1.03036	 10.38814	  4.93641	 -1.03886	 19.63936	705.27100	 23.40	
 16.990	 23.241	 16.78324	 17.43209	 -0.78020	 11.42138	  4.06243	 -1.08220	 19.65114	705.19098	 23.40	
 16.995	 29.081	 16.80316	 16.96968	 -0.42350	 12.40675	  3.25570	 -1.12930	 19.65757	705.23798	 23.40	
 16.988	 34.839	 16.81227	 16.40638	  0.00889	 13.31690	  2.51987	 -1.15529	 19.64179	705.20898	 23.40	
 17.014	 40.657	 16.79034	 15.74251	  0.48052	 14.18513	  1.79069	 -1.15746	 19.61056	705.22900	 23.40	
 17.007	 46.454	 16.83933	 15.02870	  1.06089	 15.02356	  1.14624	 -1.13405	 19.64314	705.19299	 23.40	
 17.001	 52.301	 16.84496	 14.20984	  1.71563	 15.74629	  0.58426	 -1.10940	 19.63173	705.20697	 23.40	
 17.006	 58.063	 16.86021	 13.33913	  2.42735	 16.38621	  0.10986	 -1.07972	 19.63589	705.16803	 23.40	
 17.002	 63.866	 16.87705	 12.41528	  3.21526	 16.93212	 -0.29027	 -1.04473	 19.63629	705.16199	 23.40	
 17.001	 69.690	 16.89235	 11.44795	  4.08258	 17.39615	 -0.61586	 -1.02513	 19.64827	705.18402	 23.40	
 16.988	 75.483	 16.91728	 10.45436	  4.98316	 17.75183	 -0.86199	 -0.99517	 19.67141	705.21600	 23.40	
 17.012	 81.253	 16.88976	  9.45060	  5.89203	 17.97174	 -1.08474	 -0.95677	 19.64394	705.22101	 23.40	
 16.996	 87.091	 16.91595	  8.45647	  6.90841	 18.10818	 -1.19166	 -0.91225	 19.65697	705.15100	 23.40	
 16.996	 92.909	 16.92775	  7.40176	  7.95226	 18.11985	 -1.18876	 -0.86585	 19.66153	705.03302	 23.40	
 17.008	 98.662	 16.90874	  6.37374	  8.96500	 18.00834	 -1.08909	 -0.83931	 19.63523	705.13098	 23.40	
 16.988	104.517	 16.93749	  5.43881	  9.99324	 17.79327	 -0.86672	 -0.82366	 19.64359	705.13898	 23.40	
 17.001	110.310	 16.94946	  4.51685	 11.02393	 17.49537	 -0.64531	 -0.83863	 19.65913	705.13599	 23.40	
 17.002	116.134	 16.92052	  3.63969	 11.99602	 17.03722	 -0.33299	 -0.86426	 19.61636	705.17798	 23.40	
 17.006	121.937	 16.94586	  2.82239	 12.97319	 16.54595	  0.04713	 -0.87888	 19.64712	705.31598	 23.40	
 17.001	127.699	 16.92776	  2.06518	 13.86444	 15.91981	  0.50774	 -0.86185	 19.63277	705.24701	 23.40	
 17.007	133.546	 16.90875	  1.37793	 14.69476	 15.20762	  1.05650	 -0.84396	 19.62373	705.13098	 23.40	
 17.014	139.343	 16.92890	  0.76520	 15.48991	 14.43754	  1.68599	 -0.81784	 19.65541	705.10602	 23.40	
 16.988	145.161	 16.91451	  0.25817	 16.15739	 13.54648	  2.40135	 -0.78972	 19.63733	705.17603	 23.40	
 16.995	150.919	 16.93970	 -0.19959	 16.76917	 12.65417	  3.13932	 -0.78819	 19.67172	705.22400	 23.40	
 16.990	156.759	 16.89751	 -0.58391	 17.23602	 11.65200	  3.92696	 -0.80430	 19.64007	705.09698	 23.40	
 17.000	162.596	 16.87526	 -0.89560	 17.63485	 10.61812	  4.78256	 -0.83692	 19.63744	705.24701	 23.40	
 17.009	168.383	 16.87967	 -1.14029	 17.94511	  9.62904	  5.70213	 -0.89538	 19.67772	705.23602	 23.40	
 16.990	174.179	 16.83153	 -1.28802	 18.07998	  8.59067	  6.65159	 -0.91366	 19.64165	705.24597	 23.40	
 18.709	174.675	 16.16729	 -2.39163	 18.52698	  8.05679	  6.12123	 -0.89939	 19.64397	705.18500	 23.40	
 18.703	169.441	 16.17920	 -2.27022	 18.37381	  9.06986	  5.18776	 -0.90166	 19.62731	705.08301	 23.40	
 18.691	164.085	 16.21530	 -2.05688	 18.12429	 10.11279	  4.28386	 -0.90308	 19.63774	705.08801	 23.40	
 18.706	158.818	 16.24969	 -1.79062	 17.80384	 11.11321	  3.41701	 -0.88759	 19.66510	705.10303	 23.40	
 18.695	153.537	 16.24943	 -1.44526	 17.33571	 12.08009	  2.61818	 -0.87119	 19.63573	705.29498	 23.40	
 18.704	148.255	 16.26143	 -1.05687	 16.80161	 13.03642	  1.82948	 -0.87192	 19.63935	705.27100	 23.40	
 18.698	142.952	 16.29155	 -0.58804	 16.18939	 13.96575	  1.10677	 -0.85666	 19.66764	705.19897	 23.40	
 18.699	137.625	 16.28806	 -0.04753	 15.45975	 14.80712	  0.46892	 -0.88847	 19.65218	705.20502	 23.40	
 18.705	132.343	 16.29102	  0.55224	 14.67166	 15.56131	 -0.08435	 -0.88253	 19.64150	705.12903	 23.40	
 18.713	127.067	 16.28887	  1.22379	 13.81735	 16.26285	 -0.59303	 -0.87783	 19.65288	705.16498	 23.40	
 18.700	121.794	 16.30986	  1.96411	 12.92621	 16.89264	 -1.02826	 -0.87538	 19.66418	705.16199	 23.40	
 18.698	116.504	 16.27895	  2.75802	 11.94126	 17.39335	 -1.38625	 -0.82539	 19.62978	705.08600	 23.30	
 18.707	111.165	 16.30100	  3.60764	 10.96118	 17.85203	 -1.65507	 -0.79874	 19.66716	705.07202	 23.30	
 18.690	105.863	 16.29078	  4.50816	  9.94305	 18.16426	 -1.85446	 -0.80100	 19.64775	705.00403	 23.40	
 18.696	100.583	 16.28854	  5.43591	  8.94107	 18.39082	 -2.02238	 -0.79752	 19.64857	705.12000	 23.30	
 18.700	 95.309	 16.27001	  6.37731	  7.91763	 18.50946	 -2.12971	 -0.80234	 19.63091	705.15997	 23.30	
 18.700	 90.000	 16.27515	  7.40419	  6.90671	 18.55535	 -2.17130	 -0.85164	 19.63769	705.10303	 23.30	
 18.700	 84.691	 16.28511	  8.45070	  5.90516	 18.50770	 -2.12008	 -0.91831	 19.65915	705.07202	 23.30	
 18.696	 79.417	 16.25960	  9.41658	  4.94820	 18.32163	 -1.99081	 -0.98352	 19.63276	705.22400	 23.30	
 18.690	 74.137	 16.26314	 10.42344	  4.03287	 18.07889	 -1.81474	 -1.04209	 19.64745	705.23297	 23.30	
 18.707	 68.835	 16.24515	 11.41658	  3.13350	 17.73470	 -1.59393	 -1.09107	 19.65474	705.07202	 23.30	
 18.698	 63.496	 16.21619	 12.36994	  2.31124	 17.25669	 -1.30203	 -1.12177	 19.61994	705.05499	 23.30	
 18.700	 58.206	 16.20682	 13.30611	  1.55174	 16.71097	 -0.98000	 -1.08510	 19.59834	705.05701	 23.30	
 18.713	 52.933	 16.16952	 14.17484	  0.84566	 16.05721	 -0.55307	 -1.10097	 19.57727	705.26001	 23.30	
 18.705	 47.657	 16.16523	 14.99315	  0.22501	 15.33878	 -0.01676	 -1.09083	 19.58068	705.23999	 23.30	
 18.699	 42.375	 16.17753	 15.76427	 -0.33704	 14.57962	  0.55117	 -1.08219	 19.61330	705.22601	 23.30	
 18.698	 37.048	 16.17068	 16.44775	 -0.83930	 13.73127	  1.19986	 -1.06219	 19.62130	705.11200	 23.30	
 18.704	 31.745	 16.13706	 17.04093	 -1.26248	 12.79818	  1.93331	 -1.01363	 19.61406	705.20697	 23.30	
 18.695	 26.463	 16.13544	 17.55587	 -1.61425	 11.84620	  2.73305	 -0.96470	 19.63037	705.18799	 23.30	
 18.706	 21.182	 16.09661	 17.95039	 -1.90766	 10.85811	  3.54266	 -0.91594	 19.60340	705.12201	 23.30	
 18.691	 15.915	 16.08729	 18.24977	 -2.12212	  9.83687	  4.42386	 -0.88439	 19.59406	705.28302	 23.30	
 18.703	 10.559	 16.08307	 18.49711	 -2.31148	  8.84064	  5.33013	 -0.83644	 19.62056	705.21802	 23.30	
 18.709	  5.325	 16.05230	 18.59294	 -2.40479	  7.81207	  6.22716	 -0.81213	 19.58970	705.15100	 23.30	
 18.700	  0.000	 16.04330	 18.61422	 -2.41920	  6.78352	  7.22600	 -0.78714	 19.59973	705.13898	 23.30	
 18.709	 -5.325	 16.05073	 18.57847	 -2.37712	  5.75949	  8.25796	 -0.74941	 19.62417	705.16803	 23.30	
 18.703	-10.559	 16.01945	 18.38887	 -2.25178	  4.81925	  9.25632	 -0.73434	 19.58802	705.18201	 23.30	
 18.691	-15.915	 16.04517	 18.15024	 -2.07476	  3.87589	 10.30085	 -0.70739	 19.64120	705.20697	 23.40	
 18.706	-21.182	 16.01802	 17.77714	 -1.83152	  2.99843	 11.24843	 -0.71422	 19.61802	705.22101	 23.30	
 18.695	-26.463	 16.00469	 17.30907	 -1.52245	  2.16595	 12.21663	 -0.68336	 19.60311	705.05200	 23.30	
 18.704	-31.745	 15.98547	 16.75765	 -1.16263	  1.36861	 13.15385	 -0.63265	 19.60237	705.00403	 23.30	
 18.698	-37.048	 15.97654	 16.11584	 -0.70926	  0.65562	 14.04314	 -0.61858	 19.60224	705.24597	 23.30	
 18.699	-42.375	 15.97738	 15.40355	 -0.18541	  0.00336	 14.88595	 -0.57379	 19.61705	705.20398	 23.30	
 18.705	-47.657	 15.94868	 14.60067	  0.38725	 -0.59169	 15.63319	 -0.55799	 19.60140	705.10797	 23.30	
 18.713	-52.933	 15.96042	 13.76055	  1.03983	 -1.10568	 16.35838	 -0.53519	 19.63322	705.09497	 23.30	
 18.700	-58.206	 15.92682	 12.82044	  1.76143	 -1.53536	 16.95057	 -0.49614	 19.61353	705.04401	 23.30	
 18.698	-63.496	 15.92767	 11.87527	  2.54322	 -1.87896	 17.46160	 -0.47246	 19.61299	705.05499	 23.30	
 18.707	-68.835	 15.90822	 10.87236	  3.37765	 -2.16680	 17.88028	 -0.45034	 19.59848	705.07800	 23.30	
 18.690	-74.137	 15.90939	  9.86903	  4.28529	 -2.38937	 18.20401	 -0.45073	 19.60501	705.17401	 23.30	
 18.696	-79.417	 15.90131	  8.87144	  5.21373	 -2.56118	 18.43823	 -0.45922	 19.61053	705.16699	 23.30	
 18.700	-84.691	 15.91430	  7.85877	  6.17540	 -2.68933	 18.59838	 -0.48823	 19.62883	705.06702	 23.30	
 18.700	-90.000	 15.90675	  6.82344	  7.18674	 -2.73450	 18.63545	 -0.47835	 19.63330	705.13702	 23.30	
 18.700	-95.309	 15.90511	  5.82083	  8.20034	 -2.68685	 18.58234	 -0.51643	 19.62702	705.05798	 23.30	
 18.696	-100.583	 15.90843	  4.86066	  9.20729	 -2.55800	 18.42481	 -0.57320	 19.61862	705.10303	 23.30	
 18.690	-105.863	 15.89825	  3.94940	 10.16488	 -2.35693	 18.14276	 -0.68404	 19.58638	705.07800	 23.40	
 18.707	-111.165	 15.91219	  3.06656	 11.17217	 -2.12832	 17.81544	 -0.73557	 19.60244	705.12000	 23.30	
 18.698	-116.504	 15.90658	  2.24650	 12.14042	 -1.81610	 17.35096	 -0.77349	 19.58064	705.01801	 23.30	
 18.700	-121.794	 15.94046	  1.49223	 13.08557	 -1.45990	 16.85187	 -0.78613	 19.61544	705.13599	 23.30	
 18.713	-127.067	 15.94861	  0.79177	 13.97007	 -1.02912	 16.22783	 -0.79136	 19.60921	705.20898	 23.40	
 18.705	-132.343	 15.95126	  0.16778	 14.79033	 -0.50645	 15.49626	 -0.78506	 19.59137	705.15100	 23.30	
 18.699	-137.625	 15.97822	 -0.38670	 15.56244	  0.07698	 14.72441	 -0.77956	 19.58914	705.09100	 23.30	
 18.698	-142.952	 15.99491	 -0.87596	 16.25342	  0.74046	 13.88218	 -0.76918	 19.58530	705.16803	 23.30	
 18.704	-148.255	 16.00185	 -1.30523	 16.86121	  1.47108	 12.98041	 -0.76142	 19.58773	705.09399	 23.30	
 18.695	-153.537	 16.05442	 -1.65711	 17.41764	  2.27886	 12.05305	 -0.75771	 19.61934	705.16803	 23.30	
 18.706	-158.818	 16.04102	 -1.94197	 17.81648	  3.11736	 11.06802	 -0.75484	 19.58883	705.13397	 23.30	
 18.691	-164.085	 16.08855	 -2.16094	 18.16368	  4.02170	 10.09742	 -0.76154	 19.61173	705.11200	 23.30	
 18.703	-169.441	 16.08240	 -2.33345	 18.38589	  4.99100	  9.04705	 -0.77002	 19.59562	705.04401	 23.30	
 18.709	-174.675	 16.08798	 -2.40398	 18.51204	  5.96945	  8.05929	 -0.80059	 19.58142	705.09497	 23.30	
 18.700	180.000	 16.13451	 -2.44077	 18.58182	  6.99999	  7.07488	 -0.81682	 19.60620	705.22400	 23.30	
 20.400	180.000	 15.41531	 -3.47944	 18.93784	  6.44912	  6.51372	 -0.75300	 19.60122	705.18103	 23.30	
 20.401	-175.153	 15.37984	 -3.45614	 18.89022	  5.45291	  7.46284	 -0.72353	 19.58819	705.20697	 23.30	
 20.407	-170.264	 15.35724	 -3.39762	 18.76719	  4.48019	  8.45424	 -0.71074	 19.59211	705.05499	 23.30	
 20.410	-165.423	 15.34451	 -3.27416	 18.56862	  3.53149	  9.46427	 -0.68960	 19.59015	705.03198	 23.30	
 20.392	-160.496	 15.35122	 -3.07370	 18.27854	  2.63805	 10.47568	 -0.67871	 19.62046	705.18402	 23.30	
 20.401	-155.705	 15.34373	 -2.83135	 17.91123	  1.80463	 11.44847	 -0.69082	 19.63536	705.09698	 23.30	
 20.405	-150.835	 15.30580	 -2.52434	 17.42010	  0.99523	 12.39350	 -0.69693	 19.62043	705.07202	 23.30	
 20.397	-145.903	 15.26252	 -2.15168	 16.81618	  0.24643	 13.30019	 -0.72447	 19.57502	705.05200	 23.30	
 20.392	-141.062	 15.27777	 -1.72813	 16.21130	 -0.42254	 14.18396	 -0.76297	 19.60844	705.08099	 23.30	
 20.396	-136.227	 15.25330	 -1.23325	 15.48651	 -1.02331	 15.00462	 -0.77623	 19.60974	705.02100	 23.30	
 20.408	-131.372	 15.22563	 -0.68936	 14.70125	 -1.58712	 15.77354	 -0.78207	 19.60841	705.02399	 23.30	
 20.410	-126.511	 15.21347	 -0.07692	 13.87165	 -2.05440	 16.46058	 -0.76507	 19.60707	705.13098	 23.30	
 20.400	-121.604	 15.17807	  0.60249	 12.96142	 -2.45222	 17.04458	 -0.74299	 19.57705	705.12299	 23.30	
 20.403	-116.741	 15.19348	  1.34021	 12.05414	 -2.81059	 17.60861	 -0.69726	 19.60736	705.10303	 23.30	
 20.413	-111.900	 15.17177	  2.10934	 11.09281	 -3.12670	 18.04791	 -0.64063	 19.60414	705.24402	 23.30	
 20.398	-107.004	 15.17463	  2.95490	 10.10412	 -3.36139	 18.42237	 -0.58938	 19.62049	705.06598	 23.30	
 20.394	-102.132	 15.17103	  3.84833	  9.13645	 -3.55978	 18.70141	 -0.52547	 19.62320	704.99799	 23.30	
 20.403	-97.332	 15.13853	  4.75936	  8.13861	 -3.68598	 18.85355	 -0.48188	 19.59436	705.06000	 23.30	
 20.392	-92.440	 15.14033	  5.72555	  7.13243	 -3.75133	 18.94509	 -0.45501	 19.60348	705.16998	 23.30	
 20.392	-87.560	 15.14207	  6.74026	  6.12083	 -3.75866	 18.95877	 -0.45505	 19.60483	705.15002	 23.30	
 20.403	-82.668	 15.14317	  7.75495	  5.14401	 -3.71078	 18.90167	 -0.44176	 19.61395	705.11401	 23.30	
 20.394	-77.868	 15.17746	  8.76834	  4.22393	 -3.61268	 18.76973	 -0.42893	 19.64794	705.11401	 23.30	
 20.398	-72.996	 15.14006	  9.74803	  3.30993	 -3.41244	 18.46072	 -0.43395	 19.58851	705.10498	 23.30	
 20.413	-68.100	 15.17405	 10.75805	  2.45756	 -3.18878	 18.14668	 -0.43174	 19.61303	705.13599	 23.30	
 20.403	-63.259	 15.20846	 11.74891	  1.66668	 -2.90310	 17.73959	 -0.44649	 19.62850	705.24103	 23.30	
 20.400	-58.396	 15.21267	 12.69406	  0.91184	 -2.54936	 17.21043	 -0.47881	 19.61193	705.21802	 23.30	
 20.410	-53.489	 15.16319	 13.57555	  0.20525	 -2.14000	 16.56036	 -0.51461	 19.55405	705.22101	 23.30	
 20.408	-48.628	 15.21131	 14.47039	 -0.43639	 -1.69002	 15.92910	 -0.54804	 19.60184	705.26898	 23.30	
 20.396	-43.773	 15.23086	 15.28195	 -0.99958	 -1.13344	 15.17893	 -0.55428	 19.59632	705.17297	 23.30	
 20.392	-38.938	 15.24872	 16.02572	 -1.51134	 -0.52290	 14.37347	 -0.59036	 19.60744	705.24597	 23.30	
 20.397	-34.097	 15.26809	 16.70030	 -1.94828	  0.14624	 13.52254	 -0.61372	 19.61828	705.26099	 23.30	
 20.405	-29.165	 15.27988	 17.30743	 -2.34192	  0.86884	 12.61262	 -0.63903	 19.63399	705.27100	 23.30	
 20.401	-24.295	 15.27017	 17.79003	 -2.66283	  1.67259	 11.62999	 -0.66726	 19.59877	705.12799	 23.30	
 20.392	-19.504	 15.28165	 18.19037	 -2.91546	  2.49122	 10.67364	 -0.66292	 19.58457	705.06702	 23.30	
 20.410	-14.577	 15.28055	 18.52443	 -3.15541	  3.35926	  9.70507	 -0.67026	 19.58911	705.02100	 23.30	
 20.407	 -9.736	 15.30360	 18.77135	 -3.29744	  4.28378	  8.69058	 -0.69369	 19.59830	705.09698	 23.30	
 20.401	 -4.847	 15.33321	 18.93966	 -3.38904	  5.24376	  7.68407	 -0.72961	 19.62150	705.13098	 23.30	
 20.400	  0.000	 15.32252	 18.97358	 -3.42383	  6.21394	  6.68982	 -0.70897	 19.59157	705.16998	 23.30	
 20.401	  4.847	 15.33791	 18.97489	 -3.42769	  7.22256	  5.72905	 -0.72408	 19.61374	705.21600	 23.30	
 20.407	  9.736	 15.32483	 18.84604	 -3.34018	  8.24084	  4.81831	 -0.75282	 19.58753	705.04901	 23.30	
 20.410	 14.577	 15.33449	 18.65099	 -3.19318	  9.23927	  3.92380	 -0.75878	 19.58321	705.15900	 23.30	
 20.392	 19.504	 15.37299	 18.38139	 -2.98720	 10.26020	  3.04813	 -0.80717	 19.60116	705.08801	 23.30	
 20.401	 24.295	 15.39550	 18.02493	 -2.75731	 11.23125	  2.22494	 -0.85367	 19.60743	705.16803	 23.30	
 20.405	 29.165	 15.41525	 17.56495	 -2.45067	 12.20193	  1.42998	 -0.90670	 19.61214	705.12201	 23.30	
 20.397	 34.097	 15.42728	 17.00167	 -2.07722	 13.15778	  0.68682	 -0.93684	 19.60731	705.18402	 23.30	
 20.392	 38.938	 15.43345	 16.36463	 -1.64999	 14.03041	  0.03552	 -0.99599	 19.59583	705.08002	 23.30	
 20.396	 43.773	 15.43639	 15.65943	 -1.16527	 14.84392	 -0.55139	 -1.05675	 19.57514	705.12598	 23.30	
 20.408	 48.628	 15.46930	 14.91793	 -0.62608	 15.64175	 -1.07679	 -1.08865	 19.60591	705.21503	 23.30	
 20.410	 53.489	 15.47798	 14.08393	 -0.00753	 16.33787	 -1.52918	 -1.12354	 19.59821	705.08002	 23.30	
 20.400	 58.396	 15.50033	 13.20984	  0.67725	 16.98462	 -1.92633	 -1.11979	 19.60882	705.18500	 23.30	
 20.403	 63.259	 15.51527	 12.29388	  1.41378	 17.52192	 -2.26647	 -1.07560	 19.60834	705.12201	 23.30	
 20.413	 68.100	 15.54128	 11.36656	  2.19388	 18.00189	 -2.56135	 -1.03141	 19.63051	705.16199	 23.30	
 20.398	 72.996	 15.56498	 10.38920	  3.05098	 18.36939	 -2.77793	 -0.97233	 19.63211	705.01599	 23.30	
 20.394	 77.868	 15.53232	  9.36441	  3.93729	 18.60536	 -2.96047	 -0.90954	 19.58666	705.11401	 23.30	
 20.403	 82.668	 15.54402	  8.38835	  4.84959	 18.80161	 -3.09269	 -0.84431	 19.60719	705.09399	 23.30	
 20.392	 87.560	 15.54476	  7.37052	  5.81824	 18.89052	 -3.14477	 -0.77373	 19.58866	705.19000	 23.30	
 20.392	 92.440	 15.55605	  6.38714	  6.82436	 18.89689	 -3.14397	 -0.71123	 19.58098	705.08301	 23.30	
 20.403	 97.332	 15.56750	  5.41230	  7.85059	 18.83531	 -3.09120	 -0.66802	 19.59568	705.02399	 23.30	
 20.394	102.132	 15.57353	  4.48933	  8.84449	 18.67480	 -2.97476	 -0.66732	 19.58293	705.09802	 23.30	
 20.398	107.004	 15.58088	  3.58529	  9.85886	 18.43891	 -2.80331	 -0.63499	 19.59708	705.15399	 23.30	
 20.413	111.900	 15.56670	  2.70293	 10.85087	 18.07873	 -2.61143	 -0.66261	 19.58190	705.13098	 23.30	
 20.403	116.741	 15.58363	  1.89397	 11.82816	 17.67933	 -2.36317	 -0.66897	 19.60842	705.13702	 23.30	
 20.400	121.604	 15.54482	  1.12314	 12.74390	 17.12478	 -2.06193	 -0.71766	 19.56454	705.17297	 23.30	
 20.410	126.511	 15.55538	  0.39660	 13.67295	 16.54014	 -1.69200	 -0.77034	 19.58747	705.12903	 23.30	
 20.408	131.372	 15.54650	 -0.26033	 14.52979	 15.84754	 -1.23794	 -0.78948	 19.58496	705.04102	 23.30	
 20.396	136.227	 15.58316	 -0.84857	 15.36242	 15.11748	 -0.70168	 -0.81089	 19.62112	705.14697	 23.30	
 20.392	141.062	 15.54225	 -1.38217	 16.05358	 14.27127	 -0.12215	 -0.81182	 19.58034	705.22601	 23.30	
 20.397	145.903	 15.55175	 -1.86154	 16.73403	 13.42205	  0.50590	 -0.82499	 19.60707	705.15002	 23.30	
 20.405	150.835	 15.52217	 -2.28477	 17.31687	 12.46435	  1.23019	 -0.82004	 19.59192	705.01898	 23.30	
 20.401	155.705	 15.51340	 -2.63797	 17.81472	 11.49840	  1.99646	 -0.82646	 19.58813	705.15100	 23.30	
 20.392	160.496	 15.52737	 -2.92054	 18.24113	 10.55213	  2.81233	 -0.82847	 19.62527	705.15698	 23.30	
 20.410	165.423	 15.47414	 -3.17395	 18.53797	  9.54140	  3.69225	 -0.80364	 19.59105	705.20099	 23.30	
 20.407	170.264	 15.45379	 -3.33579	 18.75123	  8.51596	  4.58659	 -0.78593	 19.58744	705.10797	 23.30	
 20.401	175.153	 15.45863	 -3.44417	 18.91488	  7.50845	  5.53505	 -0.77238	 19.62490	705.06299	 23.30	
  0.141	 45.000	 19.63840	 10.31524	 10.18340	 10.11834	 10.39655	  0.16783	 19.61414	705.07001	 23.30	
  4.001	128.691	 19.59755	  8.77551	 11.55720	 11.82073	  8.53018	  0.14311	 19.61205	705.18402	 23.30	
  4.002	 76.995	 19.60650	 10.68758	  9.59483	 12.28841	  8.11446	  0.10744	 19.61895	705.07501	 23.30	
  4.002	 25.892	 19.59289	 12.34747	  8.11345	 10.97154	  9.29644	  0.08135	 19.62036	705.23798	 23.30	
  4.002	-25.892	 19.54461	 12.28794	  8.14381	  8.97062	 11.22050	  0.09893	 19.60494	705.13098	 23.30	
  4.002	-76.995	 19.56299	 10.58412	  9.66207	  7.76574	 12.56220	  0.10290	 19.62483	705.22900	 23.30	
  4.001	-128.691	 19.54019	  8.69491	 11.59156	  8.21454	 12.04446	  0.09139	 19.58924	705.11102	 23.30	
  4.000	180.000	 19.55632	  7.89241	 12.49829	  9.94075	 10.27534	  0.10234	 19.58078	705.10797	 23.30	
  8.000	180.000	 19.18986	  5.13577	 14.63426	  9.52358	  9.79834	 -0.18368	 19.62111	705.06000	 23.30	
  7.991	-152.370	 19.14965	  5.60351	 14.06645	  7.37282	 11.93652	 -0.20341	 19.60795	705.26300	 23.30	
  7.997	-124.550	 19.10603	  7.00692	 12.43199	  5.70121	 13.79444	 -0.23556	 19.61228	705.11401	 23.30	
  8.006	-96.837	 19.07767	  9.04405	 10.19718	  4.94137	 14.67224	 -0.22610	 19.60110	705.07001	 23.30	
  7.988	-69.228	 19.07243	 11.23906	  8.13335	  5.16095	 14.39416	 -0.19744	 19.59645	705.11102	 23.30	
  7.997	-41.563	 19.08624	 13.29413	  6.33176	  6.40993	 13.01721	 -0.15806	 19.60269	705.00098	 23.30	
  8.008	-13.821	 19.10885	 14.49598	  5.29142	  8.39128	 10.87697	 -0.23104	 19.59386	705.21600	 23.30	
  8.008	 13.821	 19.13327	 14.53658	  5.27325	 10.53188	  8.66361	 -0.29373	 19.58010	705.07001	 23.30	
  7.997	 41.563	 19.13728	 13.42787	  6.25832	 12.68791	  6.65813	 -0.28098	 19.55827	705.11499	 23.30	
  7.988	 69.228	 19.20950	 11.48211	  8.03778	 14.15926	  5.59855	 -0.22038	 19.61637	704.89203	 23.30	
  8.006	 96.837	 19.20498	  9.26172	 10.07817	 14.46247	  5.37741	 -0.14578	 19.58637	704.99597	 23.30	
  7.997	124.550	 19.17905	  7.21320	 12.30510	 13.58004	  6.06482	 -0.10265	 19.56060	705.05499	 23.30	
  7.991	152.370	 19.18530	  5.69860	 13.98722	 11.71920	  7.64910	 -0.06734	 19.58231	705.03900	 23.30	
 12.009	161.059	 18.38703	  2.51082	 15.96755	 11.12072	  6.64703	 -0.40377	 19.58372	704.97400	 23.30	
 12.013	142.081	 18.39772	  3.62664	 14.72740	 13.36225	  4.70278	 -0.39742	 19.57995	705.17401	 23.30	
 12.006	123.113	 18.43071	  5.22846	 12.84888	 15.09884	  3.34089	 -0.50038	 19.59689	705.05798	 23.30	
 12.007	104.200	 18.42753	  7.37915	 10.54436	 16.11253	  2.56075	 -0.53325	 19.58740	705.17798	 23.30	
 11.989	 85.301	 18.39536	  9.68267	  8.25166	 16.26744	  2.39253	 -0.57837	 19.56242	705.16199	 23.30	
 12.013	 66.294	 18.40816	 12.05133	  6.05474	 15.64200	  2.86678	 -0.62513	 19.60387	705.18402	 23.30	
 12.012	 47.388	 18.35808	 14.10654	  4.12163	 14.18097	  3.99773	 -0.69645	 19.58444	705.10797	 23.30	
 11.990	 28.440	 18.33432	 15.61463	  2.82620	 12.17507	  5.66586	 -0.79558	 19.59247	705.11499	 23.30	
 11.991	  9.464	 18.29849	 16.37770	  2.14104	  9.84333	  7.84014	 -0.74318	 19.58860	705.09998	 23.30	
 11.991	 -9.464	 18.27351	 16.32516	  2.16184	  7.54323	 10.22850	 -0.64184	 19.58660	705.03302	 23.30	
 11.990	-28.440	 18.24940	 15.45911	  2.90054	  5.27382	 12.52017	 -0.53189	 19.59851	705.11401	 23.30	
 12.012	-47.388	 18.23547	 13.86285	  4.24820	  3.50495	 14.49869	 -0.49397	 19.60707	705.08801	 23.30	
 12.013	-66.294	 18.21616	 11.71921	  6.20628	  2.27108	 15.89356	 -0.52883	 19.62402	705.01898	 23.30	
 11.989	-85.301	 18.20258	  9.36388	  8.42592	  1.79365	 16.47285	 -0.53050	 19.59427	705.27100	 23.30	
 12.007	-104.200	 18.18161	  7.08747	 10.70189	  1.99268	 16.22123	 -0.61241	 19.56382	705.15302	 23.30	
 12.006	-123.113	 18.24708	  4.98623	 12.99173	  2.86260	 15.23314	 -0.55473	 19.62166	705.09100	 23.30	
 12.013	-142.081	 18.25111	  3.45928	 14.80092	  4.39176	 13.46998	 -0.48270	 19.57599	705.09698	 23.30	
 12.009	-161.059	 18.31596	  2.39844	 16.02085	  6.52992	 11.29809	 -0.53036	 19.60200	705.06702	 23.30	
 16.000	180.000	 17.15045	 -0.72053	 17.85476	  7.80220	  7.90692	 -0.82987	 19.60635	705.22998	 23.30	
 15.990	-165.604	 17.09822	 -0.49877	 17.53963	  5.43607	 10.27522	 -0.80236	 19.59320	705.11200	 23.30	
 16.002	-151.165	 17.07536	  0.19305	 16.63347	  3.29037	 12.59615	 -0.76717	 19.61184	705.11200	 23.30	
 16.002	-136.836	 17.01507	  1.29850	 15.14143	  1.53460	 14.65042	 -0.73088	 19.59930	705.16998	 23.30	
 15.995	-122.439	 16.97309	  2.86037	 13.18547	  0.22813	 16.27080	 -0.76187	 19.59047	705.19897	 23.30	
 15.993	-107.966	 16.93582	  4.78109	 10.92001	 -0.64086	 17.38083	 -0.81432	 19.58814	705.28003	 23.30	
 16.005	-93.629	 16.89676	  7.03224	  8.56140	 -1.06961	 17.86220	 -0.65346	 19.58910	705.12299	 23.30	
 15.992	-79.234	 16.90697	  9.44375	  6.20333	 -0.94663	 17.74150	 -0.55374	 19.59416	705.21301	 23.30	
 16.009	-64.774	 16.94102	 11.83216	  4.06185	 -0.33494	 16.99380	 -0.56313	 19.60011	705.21301	 23.30	
 15.997	-50.364	 16.94571	 13.98827	  2.23246	  0.74498	 15.59867	 -0.60941	 19.56698	705.13898	 23.30	
 15.997	-36.045	 17.00803	 15.81052	  0.83774	  2.25797	 13.79495	 -0.66715	 19.59836	705.15997	 23.30	
 16.000	-21.597	 17.03078	 17.09435	 -0.12954	  4.16959	 11.59445	 -0.75248	 19.59292	705.09497	 23.30	
 16.003	 -7.169	 17.06450	 17.80570	 -0.70811	  6.41365	  9.25162	 -0.82850	 19.62037	705.14301	 23.30	
 16.003	  7.169	 17.04417	 17.80331	 -0.71171	  8.80823	  6.81849	 -0.92398	 19.56221	705.26001	 23.30	
 16.000	 21.597	 17.12301	 17.28585	 -0.22072	 11.21440	  4.70055	 -1.02176	 19.61493	705.21802	 23.30	
 15.997	 36.045	 17.13488	 16.07371	  0.71060	 13.43723	  2.85667	 -1.07940	 19.57358	705.20697	 23.30	
 15.997	 50.364	 17.15845	 14.37827	  2.06881	 15.32680	  1.34441	 -1.00147	 19.56926	705.19299	 23.30	
 16.009	 64.774	 17.22677	 12.31810	  3.85611	 16.77116	  0.25005	 -0.92760	 19.60955	705.17297	 23.30	
 15.992	 79.234	 17.22990	  9.95820	  5.95879	 17.58789	 -0.40266	 -0.87571	 19.59242	705.04999	 23.30	
 16.005	 93.629	 17.24641	  7.57510	  8.32506	 17.79786	 -0.58453	 -0.80218	 19.61116	705.11902	 23.30	
 15.993	107.966	 17.26201	  5.28689	 10.71954	 17.32308	 -0.14630	 -0.77230	 19.59167	705.13898	 23.30	
 15.995	122.439	 17.27155	  3.28167	 13.01850	 16.25656	  0.71612	 -0.77254	 19.60378	705.04999	 23.30	
 16.002	136.836	 17.23710	  1.62455	 14.99812	 14.62798	  1.99051	 -0.71000	 19.57150	705.06000	 23.30	
 16.002	151.165	 17.23805	  0.40033	 16.53915	 12.57914	  3.62005	 -0.67115	 19.60009	705.04303	 23.30	
 15.990	165.604	 17.19820	 -0.34750	 17.48654	 10.20392	  5.62559	 -0.74062	 19.58097	705.09399	 23.30	
 20.003	168.362	 15.64358	 -3.02187	 18.60406	  9.01168	  4.41504	 -0.79812	 19.59514	705.17297	 23.30	
 20.008	156.764	 15.67646	 -2.45455	 17.83425	 11.32948	  2.39085	 -0.82171	 19.57925	705.19598	 23.30	
 20.000	145.147	 15.70723	 -1.56358	 16.58512	 13.55493	  0.63090	 -0.80859	 19.58355	705.12598	 23.30	
 19.995	133.545	 15.71480	 -0.30785	 14.88213	 15.46751	 -0.76969	 -0.81042	 19.56764	705.11401	 23.30	
 20.009	121.926	 15.72331	  1.27037	 12.84621	 17.03998	 -1.81586	 -0.74588	 19.57730	705.08099	 23.30	
 20.005	110.327	 15.73808	  3.15457	 10.60060	 18.13229	 -2.46148	 -0.68417	 19.58570	705.09399	 23.30	
 19.989	 98.733	 15.72911	  5.28323	  8.25034	 18.69998	 -2.82943	 -0.67607	 19.57075	705.19299	 23.30	
 19.999	 87.075	 15.73694	  7.58596	  5.88401	 18.81083	 -2.90356	 -0.78197	 19.60754	705.12799	 23.30	
 19.992	 75.457	 15.73528	  9.94950	  3.69531	 18.41742	 -2.62759	 -0.95570	 19.61065	705.13702	 23.30	
 20.009	 63.844	 15.69769	 12.21210	  1.72612	 17.51280	 -2.07307	 -1.08626	 19.60199	705.15100	 23.30	
 19.989	 52.269	 15.63962	 14.27377	  0.08575	 16.10441	 -1.19086	 -1.11470	 19.56604	705.03302	 23.30	
 19.999	 40.602	 15.61389	 16.10132	 -1.26686	 14.31866	  0.04474	 -1.03677	 19.58567	705.18201	 23.30	
 20.004	 29.051	 15.56760	 17.49603	 -2.21404	 12.20655	  1.65742	 -0.90821	 19.58754	705.18103	 23.30	
 20.005	 17.433	 15.51548	 18.40687	 -2.83368	  9.89606	  3.58157	 -0.80739	 19.56910	704.98499	 23.30	
 20.006	  5.780	 15.48915	 18.85581	 -3.18195	  7.54021	  5.66710	 -0.76108	 19.58716	705.15698	 23.30	
 20.006	 -5.780	 15.48563	 18.82654	 -3.14168	  5.21128	  7.96241	 -0.69577	 19.60904	705.21301	 23.30	
 20.005	-17.433	 15.44994	 18.27422	 -2.80027	  3.02249	 10.33936	 -0.66537	 19.59004	705.07397	 23.30	
 20.004	-29.051	 15.41891	 17.21647	 -2.11473	  1.10218	 12.57386	 -0.63723	 19.56858	705.04401	 23.30	
 19.999	-40.602	 15.41033	 15.74069	 -1.10606	 -0.50683	 14.63739	 -0.58944	 19.58150	705.12598	 23.30	
 19.989	-52.269	 15.36913	 13.81811	  0.25798	 -1.79821	 16.36834	 -0.50907	 19.57694	705.13898	 23.30	
 20.009	-63.844	 15.37139	 11.67667	  1.95152	 -2.68870	 17.70999	 -0.44544	 19.60938	705.12000	 23.30	
 19.992	-75.457	 15.32709	  9.34724	  3.93946	 -3.23928	 18.51015	 -0.43138	 19.57219	705.20398	 23.30	
 19.999	-87.075	 15.30953	  6.97789	  6.14917	 -3.49026	 18.83776	 -0.44138	 19.56600	705.24402	 23.30	
 19.989	-98.733	 15.33573	  4.66821	  8.52878	 -3.38147	 18.71983	 -0.49822	 19.58898	705.11902	 23.30	
 20.005	-110.327	 15.32263	  2.57857	 10.81555	 -2.94684	 18.07330	 -0.64993	 19.56450	705.04901	 23.30	
 20.009	-121.926	 15.34933	  0.77809	 13.02136	 -2.20027	 16.95613	 -0.77536	 19.56121	705.04700	 23.30	
 19.995	-133.545	 15.41850	 -0.69797	 15.03527	 -1.09900	 15.41273	 -0.78349	 19.59576	705.07202	 23.30	
 20.000	-145.147	 15.45742	 -1.84515	 16.69507	  0.35806	 13.47105	 -0.74197	 19.59682	705.02600	 23.30	
 20.008	-156.764	 15.47471	 -2.64698	 17.88966	  2.17089	 11.25975	 -0.69846	 19.57505	705.08801	 23.30	
 20.003	-168.362	 15.53719	 -3.10387	 18.61720	  4.27080	  8.95484	 -0.71567	 19.59940	705.03900	 23.30	
 20.000	180.000	 15.59141	 -3.24000	 18.85664	  6.58727	  6.63902	 -0.77364	 19.59796	705.07202	 23.30	
