FileType=PCF
NHL=14
Date=08/29/17	12:58:09
Facility=APL
Serial=16328-14
Customer=NASA
NP=6
Mach=0.250000
Calibration=1:1
CalPts=490
TstPts=95
PortNumbering=AP Standard
Units=Torr C m/s kg/m^3 deg mm 
Theta[deg]	Phi[deg]	P1[Torr]	P2[Torr]	P3[Torr]	P4[Torr]	P5[Torr]	P6[Torr]	Pt[Torr]	Ps[Abs,Torr]	Ts[C]	
  0.000	  0.000	 30.92320	 16.35276	 16.29887	 15.97700	 16.52431	  0.33136	 30.87584	705.24597	 24.00	
  1.691	128.401	 30.90064	 15.33954	 17.36432	 17.34317	 15.11710	  0.32075	 30.85939	705.24402	 24.00	
  1.692	 77.194	 30.92219	 16.66096	 15.87725	 17.69404	 14.79442	  0.30989	 30.88470	705.17798	 24.00	
  1.699	 26.182	 30.92218	 17.68915	 14.79936	 16.66181	 15.73339	  0.29673	 30.88658	705.02100	 24.00	
  1.699	-26.182	 30.88563	 17.71480	 14.79783	 15.17685	 17.15974	  0.30509	 30.85194	705.17603	 24.00	
  1.692	-77.194	 30.90871	 16.60987	 15.91132	 14.30117	 18.01367	  0.30887	 30.87680	705.16998	 24.00	
  1.691	-128.401	 30.89646	 15.29294	 17.41316	 14.60039	 17.72872	  0.30656	 30.85973	705.23602	 24.00	
  1.700	180.000	 30.88831	 14.67618	 18.03501	 15.90328	 16.48894	  0.31342	 30.84971	705.06702	 24.00	
  3.400	180.000	 30.87955	 12.81223	 19.56194	 15.78726	 16.37445	  0.25016	 30.88417	705.10797	 24.00	
  3.388	-152.325	 30.80488	 13.13851	 19.16137	 14.20108	 17.80877	  0.23909	 30.82196	705.04102	 24.00	
  3.397	-124.529	 30.83514	 14.27380	 18.16053	 12.94726	 18.96952	  0.23674	 30.87395	705.19897	 24.00	
  3.399	-96.763	 30.86678	 15.76433	 16.56167	 12.48705	 19.54472	  0.24006	 30.90931	705.11499	 24.00	
  3.394	-69.283	 30.85511	 17.25914	 15.02777	 12.64516	 19.35041	  0.25099	 30.89945	705.15900	 24.00	
  3.400	-41.398	 30.78061	 18.52523	 13.70125	 13.52555	 18.39712	  0.25043	 30.82057	705.15997	 24.00	
  3.401	-14.021	 30.83201	 19.32321	 12.80378	 14.95455	 17.10923	  0.22414	 30.86247	704.98999	 24.00	
  3.401	 14.021	 30.83336	 19.31095	 12.77502	 16.59293	 15.44273	  0.20479	 30.84004	705.07397	 24.00	
  3.400	 41.398	 30.82958	 18.61787	 13.63574	 18.12827	 14.05989	  0.21689	 30.82912	704.87500	 24.00	
  3.394	 69.283	 30.85012	 17.29232	 14.90972	 19.04449	 13.18446	  0.22425	 30.84597	705.11499	 23.90	
  3.399	 96.763	 30.86448	 15.88177	 16.44216	 19.25977	 13.02285	  0.25540	 30.85254	705.12201	 23.90	
  3.397	124.529	 30.81468	 14.36563	 18.02794	 18.66638	 13.53710	  0.28323	 30.80105	705.15399	 23.90	
  3.388	152.325	 30.83058	 13.20269	 19.09404	 17.44310	 14.73499	  0.26991	 30.82697	705.09399	 23.90	
  5.099	161.165	 30.70174	 11.29603	 20.59539	 17.15923	 14.44127	  0.18570	 30.84509	704.97302	 23.90	
  5.109	142.013	 30.70280	 12.06666	 19.85349	 18.74697	 13.04528	  0.21293	 30.83072	705.06702	 23.90	
  5.095	123.033	 30.70246	 13.25168	 18.64707	 19.85419	 11.96244	  0.21594	 30.81978	705.04901	 23.90	
  5.105	104.191	 30.69851	 14.88178	 17.14238	 20.52197	 11.34065	  0.18727	 30.81763	705.13098	 23.80	
  5.093	 85.207	 30.71026	 16.44886	 15.41180	 20.64860	 11.23919	  0.15536	 30.82533	705.03198	 23.80	
  5.104	 66.290	 30.70030	 17.98412	 13.82732	 20.26027	 11.55789	  0.10962	 30.82748	705.12903	 23.80	
  5.094	 47.331	 30.65484	 19.31545	 12.41190	 19.33529	 12.42194	  0.06414	 30.80113	705.05798	 23.80	
  5.089	 28.397	 30.66980	 20.33356	 11.55656	 18.05399	 13.66985	  0.05355	 30.83236	705.11902	 23.80	
  5.096	  9.576	 30.62969	 20.79134	 11.08141	 16.35995	 15.17859	  0.06777	 30.80487	705.04303	 23.80	
  5.096	 -9.576	 30.63442	 20.79655	 11.11599	 14.65917	 16.90185	  0.10536	 30.81515	704.96997	 23.80	
  5.089	-28.397	 30.61679	 20.21915	 11.65009	 13.04073	 18.34237	  0.13937	 30.81980	705.14203	 23.80	
  5.094	-47.331	 30.61007	 19.23027	 12.53254	 11.91495	 19.60914	  0.15502	 30.82364	705.10498	 23.80	
  5.104	-66.290	 30.61282	 17.75454	 13.95435	 11.07208	 20.62023	  0.15454	 30.84070	705.11102	 23.80	
  5.093	-85.207	 30.59866	 16.21777	 15.51159	 10.71411	 21.00008	  0.13924	 30.82535	705.29102	 23.80	
  5.105	-104.191	 30.59816	 14.67441	 17.23626	 10.82847	 20.86003	  0.06802	 30.82315	705.07501	 23.70	
  5.095	-123.033	 30.61507	 13.06852	 18.73530	 11.43655	 20.17801	  0.10500	 30.80888	705.13599	 23.70	
  5.109	-142.013	 30.64405	 11.94061	 19.92698	 12.45137	 19.05207	  0.11975	 30.83360	705.15997	 23.70	
  5.099	-161.165	 30.68032	 11.26233	 20.67521	 13.77717	 17.68023	  0.12270	 30.84661	705.23297	 23.70	
  5.100	180.000	 30.63795	 10.98692	 20.86651	 15.51172	 16.10706	  0.14728	 30.79277	705.23602	 23.70	
  6.800	180.000	 30.37681	  9.35413	 22.11162	 15.18341	 15.68750	 -0.11669	 30.79569	705.19598	 23.70	
  6.796	-166.229	 30.33801	  9.51772	 21.92171	 13.47218	 17.27192	 -0.07689	 30.77400	705.11102	 23.70	
  6.808	-152.311	 30.33108	  9.94828	 21.49060	 12.13995	 18.67667	 -0.17123	 30.78244	705.16998	 23.70	
  6.795	-138.383	 30.33888	 10.68719	 20.62733	 10.89473	 20.06942	 -0.19908	 30.82346	705.21198	 23.70	
  6.792	-124.591	 30.28092	 11.67666	 19.45883	  9.88614	 21.17659	 -0.21916	 30.78269	705.15997	 23.70	
  6.787	-110.754	 30.26174	 13.03652	 18.07851	  9.23012	 21.91798	 -0.08515	 30.77436	705.21600	 23.60	
  6.800	-96.985	 30.27613	 14.66285	 16.41317	  8.91316	 22.29064	 -0.16396	 30.79685	705.20398	 23.60	
  6.800	-83.015	 30.28205	 16.23262	 14.80650	  8.91442	 22.31666	 -0.01609	 30.80459	705.07501	 23.60	
  6.787	-69.246	 30.29391	 17.73997	 13.19053	  9.29378	 21.91675	 -0.10118	 30.81330	705.16699	 23.60	
  6.792	-55.409	 30.30537	 19.23195	 11.94303	  9.92755	 21.20206	 -0.07239	 30.82824	705.19299	 23.60	
  6.795	-41.617	 30.31090	 20.44453	 10.84934	 10.91207	 20.11790	 -0.05254	 30.82151	705.11401	 23.60	
  6.808	-27.689	 30.31108	 21.41112	  9.98870	 12.09207	 18.73695	  0.02465	 30.79588	705.02600	 23.60	
  6.796	-13.771	 30.33213	 21.94466	  9.51957	 13.44849	 17.34696	 -0.07810	 30.79658	705.08899	 23.60	
  6.800	  0.000	 30.34366	 22.15430	  9.26876	 15.19355	 15.70586	 -0.17854	 30.79086	705.03900	 23.60	
  6.796	 13.771	 30.40332	 22.03777	  9.44118	 16.82480	 14.13446	 -0.12781	 30.83572	705.20898	 23.50	
  6.808	 27.689	 30.40977	 21.56081	  9.91075	 18.47379	 12.65504	 -0.15834	 30.82772	705.02100	 23.50	
  6.795	 41.617	 30.38731	 20.67122	 10.71425	 19.76484	 11.42478	 -0.14104	 30.79240	705.16699	 23.50	
  6.792	 55.409	 30.43805	 19.47286	 11.78157	 20.83544	 10.55640	 -0.18653	 30.82292	705.05499	 23.50	
  6.787	 69.246	 30.44456	 18.06424	 13.00763	 21.58201	  9.93308	 -0.04977	 30.82217	705.20898	 23.50	
  6.800	 83.015	 30.42586	 16.49691	 14.63144	 21.92817	  9.58308	 -0.08584	 30.79397	705.12201	 23.50	
  6.800	 96.985	 30.43717	 14.95279	 16.22624	 21.96078	  9.60207	  0.04552	 30.80079	705.07001	 23.50	
  6.787	110.754	 30.45967	 13.35204	 17.87780	 21.57426	  9.93536	  0.07277	 30.82190	705.15698	 23.50	
  6.792	124.591	 30.45532	 11.99037	 19.34163	 20.84538	 10.56638	  0.02235	 30.81495	704.98499	 23.50	
  6.795	138.383	 30.43969	 10.89928	 20.51653	 19.77490	 11.45423	  0.01668	 30.79289	705.01599	 23.50	
  6.808	152.311	 30.41832	 10.06297	 21.43860	 18.42875	 12.68647	  0.09980	 30.79908	705.07800	 23.50	
  6.796	166.229	 30.39840	  9.53035	 21.90799	 16.80905	 14.11963	 -0.04713	 30.78657	705.11102	 23.50	
  8.491	168.704	 30.01757	  7.64208	 23.19057	 16.50705	 13.61446	 -0.25470	 30.78605	705.12598	 23.50	
  8.502	157.493	 30.04485	  8.06091	 22.72643	 18.11476	 12.06306	 -0.07783	 30.79450	705.07800	 23.50	
  8.494	146.194	 30.06766	  8.74964	 21.92572	 19.60960	 10.88985	 -0.16898	 30.79646	705.01898	 23.50	
  8.495	135.039	 30.05968	  9.66039	 20.94442	 20.85188	  9.82788	 -0.17872	 30.78183	705.04102	 23.50	
  8.487	123.723	 30.06938	 10.83124	 19.70506	 21.83856	  8.95003	 -0.17718	 30.78352	705.10303	 23.50	
  8.492	112.575	 30.07778	 12.13553	 18.26280	 22.56593	  8.36838	 -0.17896	 30.79160	705.10303	 23.50	
  8.510	101.220	 30.06515	 13.64784	 16.63823	 23.03218	  7.93977	 -0.23968	 30.77312	705.29999	 23.50	
  8.500	 90.000	 30.07336	 15.33671	 15.03300	 23.16857	  7.82869	 -0.28531	 30.78561	705.29102	 23.50	
  8.510	 78.780	 30.10448	 16.90318	 13.30416	 23.03802	  7.99707	 -0.33721	 30.82168	705.18799	 23.40	
  8.492	 67.425	 30.03371	 18.50188	 11.86471	 22.50252	  8.37799	 -0.37396	 30.78026	705.14203	 23.50	
  8.487	 56.277	 30.03637	 19.94264	 10.59985	 21.70468	  9.00193	 -0.43130	 30.78453	705.12903	 23.40	
  8.495	 44.961	 30.04177	 21.20778	  9.46899	 20.82242	  9.87112	 -0.48106	 30.82049	705.19800	 23.40	
  8.494	 33.806	 29.99759	 22.12495	  8.60404	 19.56750	 10.89945	 -0.50855	 30.78180	705.02399	 23.40	
  8.502	 22.507	 29.95344	 22.80881	  7.96766	 18.11083	 12.10637	 -0.52628	 30.75493	705.06702	 23.40	
  8.491	 11.296	 29.95367	 23.24903	  7.55834	 16.42076	 13.66119	 -0.50765	 30.77349	705.08002	 23.40	
  8.500	  0.000	 29.97243	 23.40283	  7.43443	 14.69473	 15.31822	 -0.44274	 30.81004	705.05798	 23.40	
  8.491	-11.296	 29.91530	 23.16273	  7.63500	 13.01153	 16.95147	 -0.37835	 30.76404	705.00201	 23.40	
  8.502	-22.507	 29.91490	 22.69264	  8.02122	 11.59679	 18.47248	 -0.32977	 30.78654	705.10797	 23.40	
  8.494	-33.806	 29.86894	 21.93249	  8.71793	 10.23804	 19.90782	 -0.26135	 30.76829	705.16998	 23.40	
  8.495	-44.961	 29.85121	 20.93867	  9.61390	  9.11531	 21.18723	 -0.26802	 30.76616	705.23297	 23.40	
  8.487	-56.277	 29.89323	 19.66556	 10.77166	  8.25800	 22.19567	 -0.29170	 30.81945	705.08899	 23.40	
  8.492	-67.425	 29.85085	 18.14115	 12.05643	  7.58564	 22.91020	 -0.32805	 30.78233	705.18201	 23.40	
  8.510	-78.780	 29.84067	 16.53838	 13.48246	  7.15309	 23.40538	 -0.37981	 30.78459	705.14203	 23.40	
  8.500	-90.000	 29.81724	 14.96745	 15.17937	  6.96074	 23.50673	 -0.37057	 30.75242	705.19800	 23.40	
  8.510	-101.220	 29.84523	 13.29735	 16.80770	  7.12248	 23.35658	 -0.40006	 30.77674	705.20099	 23.40	
  8.492	-112.575	 29.88347	 11.77713	 18.53241	  7.56438	 22.93010	 -0.42998	 30.80876	705.32202	 23.40	
  8.487	-123.723	 29.87737	 10.51886	 19.89659	  8.19916	 22.15263	 -0.42547	 30.77882	705.39600	 23.40	
  8.495	-135.039	 29.83838	  9.48778	 21.05545	  9.07054	 21.09788	 -0.38815	 30.73663	705.15399	 23.40	
  8.494	-146.194	 29.92156	  8.54289	 22.06542	 10.27972	 19.82663	 -0.36204	 30.77942	705.26099	 23.40	
  8.502	-157.493	 29.92656	  7.92139	 22.77098	 11.64689	 18.35799	 -0.36903	 30.76778	705.13702	 23.40	
  8.491	-168.704	 29.94055	  7.57533	 23.20806	 13.07859	 16.87259	 -0.37194	 30.74703	705.14697	 23.40	
  8.500	180.000	 30.00409	  7.48755	 23.38798	 14.74386	 15.27629	 -0.33023	 30.79735	705.17798	 23.40	
 10.200	180.000	 29.51493	  5.63780	 24.61548	 14.20121	 14.75097	 -0.55842	 30.80829	705.22601	 23.40	
 10.191	-170.497	 29.44436	  5.68756	 24.44346	 12.64229	 16.32361	 -0.60089	 30.75757	705.13898	 23.40	
 10.210	-161.034	 29.41642	  5.96099	 24.06469	 11.12968	 17.94525	 -0.58702	 30.76438	705.27100	 23.40	
 10.194	-151.526	 29.38779	  6.47780	 23.38848	  9.67886	 19.41460	 -0.54184	 30.76519	705.10602	 23.40	
 10.190	-142.105	 29.39058	  7.16809	 22.53967	  8.39426	 20.86450	 -0.53863	 30.80334	705.22302	 23.40	
 10.215	-132.646	 29.38011	  8.06913	 21.47517	  7.28354	 22.08389	 -0.57881	 30.81615	705.20398	 23.40	
 10.203	-123.092	 29.29695	  9.19722	 20.19994	  6.36314	 23.00172	 -0.63376	 30.74519	705.28802	 23.40	
 10.192	-113.678	 29.30907	 10.54435	 18.81874	  5.69693	 23.81044	 -0.66405	 30.78300	705.08301	 23.40	
 10.208	-104.249	 29.28159	 11.88943	 17.15483	  5.25675	 24.36105	 -0.66916	 30.76060	705.13599	 23.40	
 10.210	-94.801	 29.27375	 13.49469	 15.48995	  4.98177	 24.66576	 -0.63594	 30.77085	705.29999	 23.40	
 10.210	-85.199	 29.27620	 15.24452	 13.76551	  5.01697	 24.67081	 -0.62740	 30.77269	705.33398	 23.40	
 10.208	-75.751	 29.27415	 16.80970	 12.26756	  5.39010	 24.42158	 -0.57083	 30.77014	705.17603	 23.40	
 10.192	-66.322	 29.28278	 18.42326	 10.81520	  5.96934	 23.86898	 -0.55703	 30.76888	705.13702	 23.40	
 10.203	-56.908	 29.30063	 19.96060	  9.45939	  6.64877	 23.12028	 -0.53625	 30.77884	705.35400	 23.40	
 10.215	-47.354	 29.29554	 21.26036	  8.27443	  7.53907	 22.14228	 -0.51241	 30.75663	705.24402	 23.40	
 10.190	-37.895	 29.33733	 22.32705	  7.34922	  8.32305	 20.96667	 -0.49958	 30.77157	705.30200	 23.40	
 10.194	-28.474	 29.33907	 23.25764	  6.52607	  9.58181	 19.54071	 -0.53833	 30.74670	705.29498	 23.40	
 10.210	-18.966	 29.40066	 24.01358	  5.92515	 11.02925	 18.09016	 -0.61954	 30.79128	705.16699	 23.40	
 10.191	 -9.503	 29.38354	 24.43846	  5.87492	 12.50593	 16.40036	 -0.68787	 30.75693	705.27802	 23.40	
 10.200	  0.000	 29.43033	 24.64421	  5.73265	 14.06263	 14.79170	 -0.75314	 30.79671	705.23999	 23.40	
 10.191	  9.503	 29.43719	 24.53344	  5.82431	 15.86362	 13.11662	 -0.81567	 30.78609	705.19897	 23.40	
 10.210	 18.966	 29.44106	 24.15279	  6.15853	 17.50527	 11.62242	 -0.85351	 30.77829	705.24597	 23.40	
 10.194	 28.474	 29.46835	 23.51284	  6.69417	 19.13768	 10.39390	 -0.85562	 30.77614	705.21600	 23.40	
 10.190	 37.895	 29.47310	 22.59308	  7.16500	 20.52450	  9.17550	 -0.81277	 30.76702	705.19800	 23.40	
 10.215	 47.354	 29.52099	 21.61178	  8.10770	 21.74159	  8.10128	 -0.75627	 30.79210	705.01001	 23.40	
 10.203	 56.908	 29.53943	 20.35045	  9.27207	 22.71285	  7.24890	 -0.69610	 30.78738	704.94202	 23.40	
 10.192	 66.322	 29.50734	 18.86919	 10.58787	 23.45823	  6.59505	 -0.66579	 30.73455	704.98999	 23.40	
 10.208	 75.751	 29.56467	 17.30769	 12.03153	 24.06141	  6.13406	 -0.63235	 30.78281	705.06702	 23.40	
 10.210	 85.199	 29.56045	 15.72205	 13.50238	 24.35290	  5.92226	 -0.59923	 30.75933	705.13702	 23.40	
 10.210	 94.801	 29.59211	 13.96498	 15.31631	 24.38584	  5.89963	 -0.53694	 30.79100	705.28601	 23.30	
 10.208	104.249	 29.55027	 12.35328	 16.92731	 24.07857	  6.14867	 -0.48014	 30.73897	705.09497	 23.30	
 10.192	113.678	 29.59006	 10.93752	 18.62384	 23.54831	  6.62429	 -0.46490	 30.77017	705.22302	 23.30	
 10.203	123.092	 29.58115	  9.62584	 20.04217	 22.79086	  7.23715	 -0.43522	 30.76526	705.23199	 23.40	
 10.215	132.646	 29.58261	  8.40765	 21.32911	 21.84110	  8.06265	 -0.40179	 30.79784	705.19000	 23.30	
 10.190	142.105	 29.59352	  7.47721	 22.41471	 20.66296	  9.14480	 -0.35364	 30.80770	705.14502	 23.30	
 10.194	151.526	 29.53215	  6.72451	 23.29898	 19.24961	 10.30878	 -0.32651	 30.75133	705.09399	 23.30	
 10.210	161.034	 29.52264	  6.14942	 23.99060	 17.63354	 11.57071	 -0.39079	 30.75763	705.22302	 23.30	
 10.191	170.497	 29.51429	  5.76682	 24.42010	 16.02180	 13.11054	 -0.48167	 30.77440	705.25201	 23.30	
 11.899	171.783	 28.90641	  3.82849	 25.60180	 15.38573	 12.42942	 -0.73138	 30.78672	705.21301	 23.30	
 11.890	163.610	 28.92672	  4.15711	 25.21103	 17.12759	 11.01954	 -0.61916	 30.77098	705.08899	 23.30	
 11.889	155.445	 28.93745	  4.66010	 24.58676	 18.75085	  9.74089	 -0.52402	 30.76296	705.16199	 23.30	
 11.909	147.299	 28.94492	  5.30387	 23.77173	 20.26973	  8.43360	 -0.52455	 30.77798	705.06000	 23.30	
 11.902	139.148	 28.92772	  6.15416	 22.74648	 21.53934	  7.27604	 -0.59175	 30.74376	705.20898	 23.30	
 11.894	130.867	 28.97783	  7.20683	 21.55272	 22.67303	  6.26724	 -0.64801	 30.76676	705.26001	 23.30	
 11.897	122.732	 28.99147	  8.37638	 20.31667	 23.69076	  5.40621	 -0.70350	 30.77670	705.10797	 23.30	
 11.903	114.597	 28.98886	  9.66302	 18.87318	 24.50564	  4.75272	 -0.75263	 30.77091	705.10797	 23.30	
 11.893	106.346	 28.99094	 11.10149	 17.17222	 25.09316	  4.33828	 -0.74699	 30.76653	705.19800	 23.30	
 11.892	 98.155	 29.00445	 12.65235	 15.49951	 25.46392	  4.03933	 -0.77676	 30.78077	705.19299	 23.30	
 11.900	 90.000	 28.96751	 14.26266	 13.78811	 25.53776	  3.95799	 -0.83566	 30.75800	705.08899	 23.30	
 11.892	 81.845	 28.96067	 15.90856	 12.24406	 25.38747	  4.04400	 -0.86348	 30.75589	705.16699	 23.30	
 11.893	 73.654	 28.91854	 17.55854	 10.70197	 24.98907	  4.28397	 -0.89493	 30.71977	705.20697	 23.30	
 11.903	 65.403	 28.95240	 19.18982	  9.27348	 24.41872	  4.75290	 -0.92493	 30.78087	705.20398	 23.30	
 11.897	 57.268	 28.90911	 20.64814	  7.94988	 23.55399	  5.44581	 -0.96149	 30.76475	705.19800	 23.30	
 11.894	 49.133	 28.92202	 21.89484	  6.80325	 22.55823	  6.30269	 -1.02280	 30.79144	705.13702	 23.30	
 11.902	 40.852	 28.90498	 23.06008	  5.74542	 21.40796	  7.34016	 -1.11094	 30.81726	705.01801	 23.30	
 11.909	 32.701	 28.84080	 24.02523	  5.18489	 20.07733	  8.50454	 -1.17818	 30.77674	705.13599	 23.30	
 11.889	 24.555	 28.85962	 24.80853	  4.55616	 18.60340	  9.83625	 -1.19188	 30.79431	705.07397	 23.30	
 11.890	 16.390	 28.80471	 25.33747	  4.11197	 16.93852	 11.11262	 -1.16205	 30.76166	705.18799	 23.30	
 11.899	  8.217	 28.79711	 25.67477	  3.82439	 15.20587	 12.51768	 -1.09807	 30.77960	705.05798	 23.30	
 11.900	  0.000	 28.77283	 25.75706	  3.73669	 13.49937	 14.18879	 -1.03643	 30.76488	705.11499	 23.30	
 11.899	 -8.217	 28.75233	 25.60363	  3.84572	 11.96084	 15.86439	 -0.97042	 30.76257	705.15399	 23.30	
 11.890	-16.390	 28.73725	 25.20507	  4.17678	 10.42525	 17.44456	 -0.89498	 30.76529	705.19897	 23.30	
 11.889	-24.555	 28.67921	 24.54911	  4.67815	  8.92622	 18.97021	 -0.80746	 30.72564	705.04303	 23.30	
 11.909	-32.701	 28.68835	 23.73582	  5.36983	  7.57194	 20.52165	 -0.73660	 30.76477	704.92603	 23.30	
 11.902	-40.852	 28.68072	 22.69572	  6.25642	  6.38405	 21.86069	 -0.71690	 30.78159	705.03601	 23.30	
 11.894	-49.133	 28.68583	 21.50775	  7.32372	  5.37095	 23.01805	 -0.74039	 30.78610	705.10602	 23.30	
 11.897	-57.268	 28.65635	 20.19090	  8.18044	  4.56564	 23.98380	 -0.76405	 30.77588	705.13702	 23.30	
 11.903	-65.403	 28.62234	 18.66477	  9.48256	  4.06828	 24.80239	 -0.75096	 30.77131	705.10602	 23.30	
 11.893	-73.654	 28.60622	 16.99574	 10.94783	  3.60515	 25.35892	 -0.74891	 30.75571	705.05499	 23.30	
 11.892	-81.845	 28.63746	 15.33778	 12.50551	  3.31979	 25.72722	 -0.76829	 30.78866	705.13397	 23.30	
 11.900	-90.000	 28.59417	 13.70224	 13.98770	  3.23131	 25.79502	 -0.84295	 30.74326	705.08099	 23.30	
 11.892	-98.155	 28.61560	 12.04181	 15.71095	  3.30434	 25.68553	 -0.90811	 30.75701	705.19897	 23.30	
 11.893	-106.346	 28.63533	 10.54768	 17.38936	  3.60227	 25.34334	 -0.93142	 30.78322	705.13898	 23.30	
 11.903	-114.597	 28.65318	  9.14658	 18.96761	  4.09927	 24.75582	 -0.89272	 30.79539	705.13397	 23.30	
 11.897	-122.732	 28.65797	  7.89144	 20.41908	  4.80937	 23.89882	 -0.83724	 30.77306	705.09497	 23.30	
 11.894	-130.867	 28.67393	  6.73578	 21.69942	  5.71042	 22.88347	 -0.76207	 30.76517	705.16498	 23.30	
 11.902	-139.148	 28.68237	  5.74194	 22.88881	  6.81018	 21.70353	 -0.72854	 30.74266	705.17603	 23.30	
 11.909	-147.299	 28.72014	  4.99181	 23.85804	  8.01820	 20.38125	 -0.74648	 30.75227	705.13397	 23.30	
 11.889	-155.445	 28.76152	  4.43127	 24.65848	  9.06298	 18.86843	 -0.75899	 30.75708	705.18500	 23.30	
 11.890	-163.610	 28.80649	  3.98860	 25.26641	 10.54646	 17.32102	 -0.81456	 30.76423	705.16803	 23.30	
 11.899	-171.783	 28.83681	  3.72217	 25.63148	 12.12933	 15.77296	 -0.82314	 30.78104	705.04901	 23.30	
 11.900	180.000	 28.84749	  3.72072	 25.71646	 13.66467	 14.12533	 -0.77866	 30.75550	705.10303	 23.30	
 13.600	180.000	 28.12079	  1.79125	 26.76605	 13.12627	 13.44239	 -1.00779	 30.76034	705.18103	 23.30	
 13.608	-172.853	 28.09068	  1.99146	 26.69510	 11.53273	 15.07083	 -1.05379	 30.77849	705.06403	 23.30	
 13.611	-165.583	 28.05542	  2.20990	 26.37557	  9.93051	 16.68624	 -1.04320	 30.77046	705.14203	 23.30	
 13.601	-158.353	 28.01915	  2.33941	 25.82166	  8.59034	 18.26067	 -0.98543	 30.75171	705.04901	 23.30	
 13.609	-151.210	 27.99001	  2.88769	 25.10462	  7.03122	 19.78414	 -0.96079	 30.74396	705.17603	 23.30	
 13.611	-143.999	 27.95325	  3.50791	 24.21764	  6.02939	 21.21861	 -0.92538	 30.76088	705.10303	 23.30	
 13.601	-136.825	 27.95617	  4.34969	 23.16605	  4.83756	 22.52881	 -0.92293	 30.78109	705.08301	 23.30	
 13.596	-129.640	 27.90464	  5.38801	 21.91368	  3.79234	 23.66474	 -0.94030	 30.76294	705.24701	 23.30	
 13.611	-122.431	 27.90879	  6.55569	 20.63558	  2.91046	 24.70939	 -1.01623	 30.80050	705.11902	 23.30	
 13.604	-115.211	 27.86267	  7.82300	 19.13354	  2.25127	 25.50329	 -1.08511	 30.75825	705.19800	 23.30	
 13.595	-108.042	 27.84121	  9.15331	 17.58120	  1.80020	 26.12143	 -1.12739	 30.74225	705.18799	 23.30	
 13.607	-100.793	 27.83342	 10.60343	 15.93085	  1.48312	 26.58280	 -1.08605	 30.75920	705.13702	 23.30	
 13.601	-93.617	 27.84102	 12.15371	 14.25655	  1.36793	 26.81677	 -1.02146	 30.76782	705.25702	 23.30	
 13.601	-86.383	 27.81833	 13.82510	 12.67972	  1.33067	 26.82240	 -0.90060	 30.75638	705.18103	 23.30	
 13.607	-79.207	 27.82325	 15.43835	 11.10421	  1.49384	 26.63554	 -0.84443	 30.76189	705.27100	 23.30	
 13.595	-71.958	 27.82497	 17.11555	  9.57779	  1.80485	 26.19791	 -0.83301	 30.74214	705.14301	 23.30	
 13.604	-64.789	 27.85228	 18.76568	  8.15238	  2.23223	 25.61837	 -0.85919	 30.76895	705.18103	 23.30	
 13.611	-57.569	 27.81919	 20.23545	  7.13284	  2.86569	 24.77434	 -0.84705	 30.72489	705.12598	 23.30	
 13.596	-50.360	 27.84930	 21.61384	  5.94658	  3.71428	 23.78744	 -0.85720	 30.74270	705.19299	 23.30	
 13.601	-43.175	 27.88725	 22.86899	  4.87123	  4.72808	 22.69038	 -0.86361	 30.75308	705.22900	 23.30	
 13.611	-36.001	 27.88299	 23.99143	  3.91301	  5.88911	 21.38867	 -0.89573	 30.72369	705.16199	 23.30	
 13.609	-28.790	 27.93767	 24.97833	  3.14553	  7.18922	 19.96320	 -0.95987	 30.76803	705.16803	 23.30	
 13.601	-21.647	 27.97153	 25.73983	  2.56576	  8.24846	 18.43820	 -1.03880	 30.77056	705.20697	 23.30	
 13.611	-14.417	 28.01948	 26.33542	  2.10161	  9.76229	 16.89594	 -1.11926	 30.79957	705.22302	 23.30	
 13.608	 -7.147	 27.96638	 26.62150	  1.82395	 11.32454	 15.19618	 -1.17170	 30.72484	705.21301	 23.30	
 13.600	  0.000	 28.02748	 26.80363	  1.76431	 12.88431	 13.54002	 -1.25986	 30.76011	705.16199	 23.30	
 13.608	  7.147	 28.04829	 26.72514	  1.85996	 14.53766	 11.98161	 -1.31993	 30.76830	705.16498	 23.30	
 13.611	 14.417	 28.03594	 26.43092	  2.03259	 16.23251	 10.55640	 -1.37877	 30.74848	705.01300	 23.30	
 13.601	 21.647	 28.07885	 25.94454	  2.39310	 17.91701	  9.17449	 -1.44604	 30.77616	705.06702	 23.30	
 13.609	 28.790	 28.06308	 25.23449	  2.94076	 19.42951	  7.79927	 -1.48730	 30.73698	705.02899	 23.30	
 13.611	 36.001	 28.08741	 24.37980	  3.71234	 20.88137	  6.54264	 -1.44752	 30.74457	705.07001	 23.30	
 13.601	 43.175	 28.14273	 23.34685	  4.65064	 22.16225	  5.37283	 -1.35299	 30.77546	705.04901	 23.30	
 13.596	 50.360	 28.16331	 22.12955	  5.71099	 23.32667	  4.40541	 -1.24918	 30.75851	704.92902	 23.30	
 13.611	 57.569	 28.15224	 20.84390	  6.87150	 24.36369	  3.54453	 -1.19182	 30.74090	705.06299	 23.30	
 13.604	 64.789	 28.20050	 19.40003	  7.86798	 25.23994	  3.06994	 -1.16229	 30.75754	705.06000	 23.30	
 13.595	 71.958	 28.23691	 17.79651	  9.25153	 25.90174	  2.62669	 -1.12818	 30.77940	705.16498	 23.30	
 13.607	 79.207	 28.25007	 16.15468	 10.79763	 26.35215	  2.32338	 -1.09676	 30.77600	705.15100	 23.30	
 13.601	 86.383	 28.22606	 14.51569	 12.35055	 26.54540	  2.15777	 -1.07309	 30.73136	705.17401	 23.30	
 13.601	 93.617	 28.29373	 12.89484	 13.96531	 26.58830	  2.24875	 -1.05346	 30.78075	705.15100	 23.30	
 13.607	100.793	 28.25340	 11.30322	 15.64323	 26.36424	  2.35070	 -0.97607	 30.73427	705.13702	 23.30	
 13.595	108.042	 28.26464	  9.79850	 17.33731	 25.96083	  2.67965	 -0.97980	 30.74887	705.27802	 23.30	
 13.604	115.211	 28.26847	  8.38376	 18.89487	 25.35079	  3.02650	 -0.99060	 30.75821	705.20898	 23.30	
 13.611	122.431	 28.28336	  7.09472	 20.40190	 24.54099	  3.62696	 -0.95034	 30.77695	705.07501	 23.30	
 13.596	129.640	 28.24656	  5.91214	 21.71965	 23.48466	  4.39875	 -0.87381	 30.74008	705.07397	 23.30	
 13.601	136.825	 28.22099	  4.85882	 22.94942	 22.35570	  5.41811	 -0.81941	 30.71571	705.13702	 23.30	
 13.611	143.999	 28.23524	  3.93476	 24.05346	 21.15937	  6.52641	 -0.73823	 30.74997	705.13898	 23.30	
 13.609	151.210	 28.26486	  3.15157	 25.04734	 19.76590	  7.75805	 -0.70585	 30.81784	705.11200	 23.30	
 13.601	158.353	 28.21713	  2.57055	 25.75370	 18.13862	  9.04554	 -0.74837	 30.76670	705.21600	 23.20	
 13.611	165.583	 28.18972	  2.13205	 26.31169	 16.48958	 10.37640	 -0.84341	 30.77489	705.19299	 23.20	
 13.608	172.853	 28.14501	  1.93977	 26.62483	 14.71851	 11.83217	 -0.92476	 30.74636	705.11102	 23.20	
 15.298	173.587	 27.28330	  0.22934	 27.55716	 14.06126	 11.14145	 -1.09300	 30.72977	705.16498	 23.20	
 15.291	167.167	 27.33094	  0.48003	 27.28083	 15.68237	  9.70768	 -0.97722	 30.75341	705.16498	 23.30	
 15.307	160.676	 27.38196	  0.81681	 26.81115	 17.43741	  8.28780	 -0.92636	 30.78257	705.16803	 23.30	
 15.300	154.261	 27.40485	  1.30827	 26.13749	 19.07313	  6.93400	 -0.88099	 30.78748	705.09998	 23.20	
 15.288	147.854	 27.41172	  1.98434	 25.26490	 20.57954	  5.68035	 -0.87227	 30.76546	705.07202	 23.20	
 15.293	141.428	 27.45052	  2.58442	 24.25333	 21.94119	  4.52459	 -0.95391	 30.76880	705.06598	 23.20	
 15.299	134.985	 27.44598	  3.53909	 23.10916	 23.15097	  3.45172	 -1.01132	 30.76357	705.13098	 23.20	
 15.305	128.583	 27.42240	  4.57997	 21.80208	 24.28978	  2.61764	 -1.08367	 30.73888	705.17401	 23.20	
 15.309	122.142	 27.46305	  5.77959	 20.47812	 25.30524	  1.87443	 -1.14762	 30.77543	705.13898	 23.20	
 15.304	115.711	 27.45466	  7.06119	 18.96042	 26.07166	  1.27990	 -1.16506	 30.74560	705.13702	 23.20	
 15.297	109.291	 27.44075	  8.41291	 17.38875	 26.70174	  0.79641	 -1.12684	 30.72506	705.13098	 23.20	
 15.293	102.897	 27.44249	  9.90682	 15.73520	 27.18769	  0.42909	 -1.11880	 30.73837	705.15302	 23.20	
 15.293	 96.458	 27.45180	 11.46173	 14.05271	 27.45991	  0.35307	 -1.15734	 30.73419	705.10797	 23.20	
 15.300	 90.000	 27.45906	 13.06479	 12.47763	 27.57322	  0.21733	 -1.17908	 30.77009	705.12903	 23.20	
 15.293	 83.542	 27.44801	 14.68335	 10.89343	 27.45566	  0.27746	 -1.23631	 30.76266	705.13898	 23.20	
 15.293	 77.103	 27.44928	 16.33191	  9.35064	 27.12225	  0.52104	 -1.28380	 30.78078	705.17798	 23.20	
 15.297	 70.709	 27.37425	 17.91009	  7.87436	 26.56196	  0.85629	 -1.32687	 30.70755	705.16998	 23.20	
 15.304	 64.289	 27.38947	 19.51946	  6.76469	 25.93660	  1.28771	 -1.34193	 30.75519	705.10797	 23.20	
 15.309	 57.858	 27.32535	 20.93987	  5.45056	 25.07210	  1.85881	 -1.38841	 30.72840	704.99298	 23.20	
 15.305	 51.417	 27.29527	 22.22736	  4.24659	 24.04237	  2.65031	 -1.45097	 30.72631	705.24103	 23.20	
 15.299	 45.015	 27.28604	 23.46744	  3.19428	 22.86475	  3.57806	 -1.50591	 30.72895	705.11902	 23.20	
 15.293	 38.572	 27.26587	 24.58010	  2.28996	 21.60361	  4.60017	 -1.58740	 30.72714	705.27100	 23.20	
 15.288	 32.146	 27.23365	 25.52988	  1.49650	 20.24384	  5.78850	 -1.62676	 30.72029	705.12799	 23.20	
 15.300	 25.739	 27.22739	 26.33491	  0.90222	 18.76538	  7.10120	 -1.60788	 30.73856	705.14203	 23.20	
 15.307	 19.324	 27.22096	 26.98606	  0.48210	 17.15161	  8.47743	 -1.53586	 30.77511	705.04901	 23.20	
 15.291	 12.833	 27.13954	 27.35020	  0.20848	 15.40512	  9.89544	 -1.44595	 30.69215	705.07001	 23.30	
 15.298	  6.413	 27.18052	 27.65136	  0.07446	 13.83076	 11.33892	 -1.39631	 30.74921	705.08600	 23.20	
 15.300	  0.000	 27.15005	 27.70401	 -0.00692	 12.22714	 12.85331	 -1.34462	 30.73453	705.04700	 23.20	
 15.298	 -6.413	 27.13776	 27.59849	  0.04989	 10.62547	 14.49760	 -1.27348	 30.74632	705.17798	 23.20	
 15.291	-12.833	 27.08953	 27.23509	  0.24748	  9.06369	 16.10901	 -1.22616	 30.69943	705.21802	 23.20	
 15.307	-19.324	 27.08248	 26.75264	  0.55357	  7.80290	 17.73434	 -1.14192	 30.74348	705.08600	 23.20	
 15.300	-25.739	 27.05308	 26.02728	  1.03463	  6.41980	 19.25273	 -1.06812	 30.71268	705.20697	 23.20	
 15.288	-32.146	 27.06885	 25.19440	  1.71015	  5.10285	 20.78302	 -1.01727	 30.75113	705.09998	 23.20	
 15.293	-38.572	 27.04527	 24.16192	  2.53831	  3.86204	 22.17887	 -0.95067	 30.76434	705.14301	 23.20	
 15.299	-45.015	 27.00348	 22.95978	  3.49629	  2.74957	 23.37813	 -0.92034	 30.74685	705.01001	 23.20	
 15.305	-51.417	 27.01143	 21.70979	  4.59118	  1.90029	 24.51475	 -0.88932	 30.75245	705.19800	 23.20	
 15.309	-57.858	 26.99725	 20.34066	  5.79042	  1.17560	 25.50397	 -0.84960	 30.76561	705.14203	 23.20	
 15.304	-64.289	 26.96662	 18.79318	  7.08897	  0.55227	 26.30984	 -0.80699	 30.75020	705.13098	 23.30	
 15.297	-70.709	 26.92515	 17.12989	  8.18290	  0.10037	 26.91075	 -0.80069	 30.70959	705.12799	 23.20	
 15.293	-77.103	 26.95564	 15.53758	  9.65633	 -0.22042	 27.41671	 -0.79373	 30.76490	705.22302	 23.20	
 15.293	-83.542	 26.93308	 13.90222	 11.19787	 -0.43760	 27.68232	 -0.84297	 30.74980	705.20099	 23.20	
 15.300	-90.000	 26.88642	 12.22592	 12.75236	 -0.52010	 27.72856	 -0.91236	 30.69869	705.03198	 23.30	
 15.293	-96.458	 26.95557	 10.66857	 14.37124	 -0.41118	 27.68102	 -1.10336	 30.76830	705.00201	 23.30	
 15.293	-102.897	 26.92427	  9.17372	 16.00232	 -0.24734	 27.34490	 -1.22123	 30.72969	705.06598	 23.30	
 15.297	-109.291	 26.95891	  7.79694	 17.63324	  0.11253	 26.87245	 -1.27292	 30.76121	705.00403	 23.30	
 15.304	-115.711	 26.96505	  6.44699	 19.18347	  0.60336	 26.19925	 -1.23048	 30.74450	705.10797	 23.20	
 15.309	-122.142	 26.97682	  5.17223	 20.66637	  1.26416	 25.33931	 -1.15415	 30.73239	705.09399	 23.30	
 15.305	-128.583	 27.01437	  4.02779	 22.00857	  2.00901	 24.33746	 -1.10191	 30.73677	705.16803	 23.20	
 15.299	-134.985	 27.07800	  3.02724	 23.27890	  2.89053	 23.22919	 -1.06031	 30.76897	704.99799	 23.20	
 15.293	-141.428	 27.09632	  2.13902	 24.41198	  4.02417	 21.98793	 -1.06935	 30.76424	705.08099	 23.20	
 15.288	-147.854	 27.08976	  1.62436	 25.38586	  5.25252	 20.55270	 -1.08927	 30.73293	705.11401	 23.20	
 15.300	-154.261	 27.10853	  1.03088	 26.19279	  6.57456	 19.04073	 -1.11281	 30.72285	705.19000	 23.20	
 15.307	-160.676	 27.15569	  0.60946	 26.84553	  7.94522	 17.52796	 -1.15438	 30.75277	704.98700	 23.30	
 15.291	-167.167	 27.18532	  0.36308	 27.29394	  9.27740	 15.93259	 -1.19242	 30.72891	705.04401	 23.30	
 15.298	-173.587	 27.20811	  0.18487	 27.57183	 10.83417	 14.33266	 -1.22204	 30.72650	705.09698	 23.20	
 15.300	180.000	 27.26139	  0.16381	 27.67178	 12.44611	 12.67753	 -1.21631	 30.74351	705.10303	 23.20	
 17.000	180.000	 26.29180	 -1.88749	 28.45286	 11.70402	 11.92021	 -1.25770	 30.72634	705.23602	 23.20	
 16.990	-174.179	 26.27673	 -1.80858	 28.37731	 10.08728	 13.48253	 -1.28292	 30.73372	705.15302	 23.20	
 17.009	-168.383	 26.22322	 -1.72371	 28.14849	  8.73875	 15.10614	 -1.24186	 30.72861	705.21198	 23.20	
 17.000	-162.596	 26.19707	 -1.42520	 27.72267	  7.21911	 16.70818	 -1.20265	 30.73958	705.10498	 23.20	
 16.990	-156.759	 26.18107	 -0.96070	 27.16581	  5.78498	 18.19575	 -1.17092	 30.74086	705.16699	 23.20	
 16.995	-150.919	 26.14250	 -0.46325	 26.43003	  4.43432	 19.77083	 -1.16180	 30.73544	705.20502	 23.20	
 16.988	-145.161	 26.10483	  0.17628	 25.52012	  3.17920	 21.23628	 -1.15923	 30.72067	705.27502	 23.20	
 17.014	-139.343	 26.10679	  0.90716	 24.50835	  2.15105	 22.57966	 -1.14529	 30.77612	705.21503	 23.20	
 17.007	-133.546	 26.08109	  1.66742	 23.31189	  1.22588	 23.82369	 -1.15380	 30.75826	705.15698	 23.20	
 17.001	-127.699	 26.06549	  2.62762	 22.04764	  0.32258	 24.97694	 -1.19621	 30.76753	705.11499	 23.20	
 17.006	-121.937	 26.03444	  3.75943	 20.68610	 -0.46750	 25.97843	 -1.24733	 30.78481	705.18402	 23.20	
 17.002	-116.134	 25.97829	  5.01283	 19.16294	 -1.13353	 26.79362	 -1.30398	 30.74858	705.22400	 23.20	
 17.001	-110.310	 25.96626	  6.32900	 17.62323	 -1.66636	 27.49148	 -1.32698	 30.76199	705.14697	 23.20	
 16.988	-104.517	 25.95361	  7.74708	 15.98936	 -1.98797	 27.96793	 -1.25362	 30.73591	705.01202	 23.30	
 17.008	-98.662	 25.95531	  9.17102	 14.39948	 -2.24167	 28.33261	 -1.08933	 30.75341	705.11102	 23.20	
 16.996	-92.909	 25.93385	 10.67693	 12.82781	 -2.39712	 28.49488	 -0.87731	 30.74190	705.18799	 23.20	
 16.996	-87.091	 25.92912	 12.23284	 11.22235	 -2.35196	 28.49991	 -0.73674	 30.73092	705.06000	 23.20	
 17.012	-81.253	 25.93172	 13.86295	  9.68708	 -2.26184	 28.37712	 -0.65862	 30.75429	705.09802	 23.20	
 16.988	-75.483	 25.90674	 15.43259	  8.36933	 -2.02261	 28.01406	 -0.63819	 30.70288	705.22900	 23.20	
 17.001	-69.690	 25.92802	 17.05743	  7.02665	 -1.71653	 27.56624	 -0.66768	 30.72833	705.23798	 23.20	
 17.002	-63.866	 25.96207	 18.68724	  5.67876	 -1.23670	 26.92530	 -0.71320	 30.74880	705.15900	 23.20	
 17.006	-58.063	 25.96891	 20.22609	  4.39117	 -0.60589	 26.09191	 -0.76575	 30.72596	705.15002	 23.20	
 17.001	-52.301	 26.00223	 21.63624	  3.21115	  0.18695	 25.11043	 -0.82811	 30.71573	705.12598	 23.20	
 17.007	-46.454	 26.05778	 22.98105	  2.10156	  1.05951	 24.02343	 -0.86886	 30.76002	705.16199	 23.20	
 17.014	-40.657	 26.07137	 24.21169	  1.13198	  1.92979	 22.85747	 -0.91673	 30.76904	705.21802	 23.30	
 16.988	-34.839	 26.08330	 25.27342	  0.41551	  3.01958	 21.50689	 -0.94492	 30.74873	705.17798	 23.20	
 16.995	-29.081	 26.08783	 26.20513	 -0.25686	  4.26362	 20.03596	 -1.00095	 30.72977	705.16699	 23.30	
 16.990	-23.241	 26.14535	 27.03877	 -0.81699	  5.62988	 18.51735	 -1.11055	 30.76962	705.23297	 23.30	
 17.000	-17.404	 26.14037	 27.65687	 -1.28284	  7.03691	 16.94525	 -1.17270	 30.75365	705.13599	 23.30	
 17.009	-11.617	 26.15455	 28.10501	 -1.59246	  8.44440	 15.32619	 -1.17752	 30.74154	705.19598	 23.30	
 16.990	 -5.821	 26.18690	 28.36041	 -1.67709	  9.83634	 13.69439	 -1.25066	 30.73594	705.21503	 23.30	
 17.000	  0.000	 26.21163	 28.50220	 -1.80850	 11.46065	 12.17476	 -1.27157	 30.75550	705.12598	 23.30	
 16.990	  5.821	 26.19879	 28.41160	 -1.75421	 13.02659	 10.65967	 -1.33072	 30.71591	705.28601	 23.30	
 17.009	 11.617	 26.20856	 28.21868	 -1.60173	 14.61417	  9.20088	 -1.36274	 30.73428	705.34399	 23.30	
 17.000	 17.404	 26.21370	 27.83629	 -1.37795	 16.19762	  7.77906	 -1.45830	 30.71833	705.32599	 23.30	
 16.990	 23.241	 26.26849	 27.31080	 -0.96109	 17.90332	  6.35831	 -1.57974	 30.75342	705.32300	 23.30	
 16.995	 29.081	 26.25343	 26.55897	 -0.41623	 19.43098	  5.00891	 -1.62452	 30.70274	705.19098	 23.30	
 16.988	 34.839	 26.35228	 25.75519	  0.21993	 20.95072	  3.87979	 -1.67670	 30.77211	705.18799	 23.30	
 17.014	 40.657	 26.32495	 24.70061	  0.90481	 22.24455	  2.80514	 -1.65980	 30.72197	705.30902	 23.30	
 17.007	 46.454	 26.36323	 23.54184	  1.79187	 23.51297	  1.82624	 -1.60093	 30.72944	705.26898	 23.20	
 17.001	 52.301	 26.41594	 22.27092	  2.88526	 24.68069	  0.98562	 -1.58708	 30.74265	705.31897	 23.20	
 17.006	 58.063	 26.42882	 20.97892	  4.06234	 25.68480	  0.23595	 -1.56103	 30.74021	705.24103	 23.20	
 17.002	 63.866	 26.42862	 19.50937	  5.34267	 26.53175	 -0.39688	 -1.51252	 30.72403	705.26300	 23.20	
 17.001	 69.690	 26.47288	 17.94704	  6.66251	 27.26027	 -0.89108	 -1.47213	 30.75285	705.09698	 23.20	
 16.988	 75.483	 26.50389	 16.38097	  8.00049	 27.80455	 -1.23448	 -1.42655	 30.76243	705.11499	 23.20	
 17.012	 81.253	 26.45664	 14.70222	  9.27546	 28.14064	 -1.54495	 -1.34818	 30.72762	705.07397	 23.30	
 16.996	 87.091	 26.49043	 13.16410	 10.85961	 28.31514	 -1.60651	 -1.25350	 30.72979	705.14502	 23.20	
 16.996	 92.909	 26.50280	 11.55652	 12.45142	 28.33532	 -1.59852	 -1.16580	 30.73199	705.15100	 23.20	
 17.008	 98.662	 26.50523	  9.97081	 14.05950	 28.19862	 -1.49843	 -1.14222	 30.73569	705.11200	 23.20	
 16.988	104.517	 26.48258	  8.49182	 15.67782	 27.83794	 -1.25452	 -1.08958	 30.69217	705.09698	 23.20	
 17.001	110.310	 26.49481	  7.06873	 17.33444	 27.35261	 -0.89145	 -1.12690	 30.71372	705.12000	 23.20	
 17.002	116.134	 26.56534	  5.72207	 18.94163	 26.75454	 -0.38309	 -1.22410	 30.76535	705.24902	 23.20	
 17.006	121.937	 26.54211	  4.47390	 20.41839	 25.92126	  0.17420	 -1.24787	 30.74379	705.16803	 23.20	
 17.001	127.699	 26.52856	  3.30432	 21.78695	 24.94908	  0.87994	 -1.20922	 30.74350	705.09802	 23.20	
 17.007	133.546	 26.50997	  2.38298	 23.08376	 23.83776	  1.67338	 -1.13234	 30.74696	705.12299	 23.20	
 17.014	139.343	 26.45769	  1.40130	 24.29430	 22.55974	  2.61162	 -1.04936	 30.71451	705.14203	 23.20	
 16.988	145.161	 26.49462	  0.66956	 25.38146	 21.30184	  3.66008	 -0.99227	 30.75611	705.12598	 23.20	
 16.995	150.919	 26.48973	 -0.09667	 26.31463	 19.86012	  4.86465	 -0.97918	 30.77166	705.22900	 23.20	
 16.990	156.759	 26.43768	 -0.71048	 27.03024	 18.25639	  6.15787	 -1.01086	 30.71646	705.18799	 23.20	
 17.000	162.596	 26.41425	 -1.17619	 27.65408	 16.61115	  7.52080	 -1.08229	 30.73345	705.29401	 23.20	
 17.009	168.383	 26.37655	 -1.51066	 28.10090	 14.97340	  8.93468	 -1.13053	 30.74285	705.31403	 23.20	
 16.990	174.179	 26.36612	 -1.77161	 28.38188	 13.37391	 10.38583	 -1.22876	 30.76090	705.25500	 23.20	
 18.709	174.675	 25.31237	 -3.55013	 29.08683	 12.55557	  9.58175	 -1.20304	 30.75677	705.27698	 23.20	
 18.703	169.441	 25.32346	 -3.30978	 28.81723	 14.13525	  8.13972	 -1.18130	 30.72719	705.19897	 23.20	
 18.691	164.085	 25.41840	 -2.99081	 28.46483	 15.80704	  6.70151	 -1.12596	 30.76981	705.26398	 23.20	
 18.706	158.818	 25.40719	 -2.63708	 27.89235	 17.40262	  5.33156	 -1.09411	 30.73518	705.17297	 23.20	
 18.695	153.537	 25.48572	 -2.10357	 27.23957	 19.00260	  4.07651	 -1.06203	 30.77936	705.24902	 23.20	
 18.704	148.255	 25.48161	 -1.47899	 26.37596	 20.47995	  2.93513	 -1.06570	 30.74987	705.26898	 23.20	
 18.698	142.952	 25.46703	 -0.78515	 25.36042	 21.88286	  1.88088	 -1.08097	 30.71062	705.25403	 23.20	
 18.699	137.625	 25.48826	  0.06133	 24.24082	 23.14918	  0.87412	 -1.13786	 30.72483	705.20502	 23.20	
 18.705	132.343	 25.52644	  1.12593	 23.04617	 24.38317	 -0.02677	 -1.18090	 30.76579	705.15002	 23.20	
 18.713	127.067	 25.49682	  2.10178	 21.71739	 25.45980	 -0.78904	 -1.22980	 30.72587	705.16803	 23.20	
 18.700	121.794	 25.53175	  3.14857	 20.31243	 26.44030	 -1.43612	 -1.20053	 30.73287	705.09399	 23.20	
 18.698	116.504	 25.50268	  4.37553	 18.79420	 27.23512	 -2.01111	 -1.13234	 30.70484	705.19897	 23.20	
 18.707	111.165	 25.53532	  5.71754	 17.27726	 27.95872	 -2.51376	 -1.04758	 30.76351	705.17297	 23.20	
 18.690	105.863	 25.52682	  7.08725	 15.62166	 28.43613	 -2.85550	 -1.01238	 30.75018	705.12000	 23.30	
 18.696	100.583	 25.51665	  8.49909	 14.03401	 28.79709	 -3.12520	 -1.01728	 30.73743	705.14697	 23.30	
 18.700	 95.309	 25.49653	  9.99132	 12.44459	 29.00589	 -3.38318	 -1.04313	 30.73278	705.12598	 23.30	
 18.700	 90.000	 25.48447	 11.58648	 10.84669	 29.03662	 -3.34540	 -1.14451	 30.72017	705.15900	 23.20	
 18.700	 84.691	 25.50940	 13.18958	  9.25835	 28.96950	 -3.25697	 -1.27123	 30.76135	705.08301	 23.30	
 18.696	 79.417	 25.47309	 14.74283	  7.80916	 28.68253	 -3.05345	 -1.39574	 30.71057	705.07800	 23.30	
 18.690	 74.137	 25.46285	 16.31161	  6.39700	 28.29563	 -2.82934	 -1.49701	 30.72094	705.06598	 23.30	
 18.707	 68.835	 25.45410	 17.86697	  5.19591	 27.78540	 -2.52533	 -1.58067	 30.75061	705.10797	 23.30	
 18.698	 63.496	 25.41126	 19.43020	  3.87008	 27.01973	 -1.98864	 -1.64068	 30.70845	705.22601	 23.30	
 18.700	 58.206	 25.44628	 20.94639	  2.62396	 26.21435	 -1.31492	 -1.68174	 30.76855	705.15399	 23.30	
 18.713	 52.933	 25.39640	 22.21843	  1.47949	 25.19118	 -0.61568	 -1.69064	 30.74602	705.13898	 23.30	
 18.705	 47.657	 25.37206	 23.52099	  0.56422	 24.05397	  0.18359	 -1.65718	 30.75246	704.98700	 23.30	
 18.699	 42.375	 25.32340	 24.68359	 -0.29140	 22.80452	  1.08314	 -1.64282	 30.72898	705.15997	 23.30	
 18.698	 37.048	 25.27300	 25.74709	 -1.07324	 21.49749	  2.06352	 -1.63992	 30.70995	705.10498	 23.30	
 18.704	 31.745	 25.26579	 26.71766	 -1.78488	 20.06129	  3.19181	 -1.58920	 30.74765	705.10498	 23.30	
 18.695	 26.463	 25.22575	 27.48493	 -2.37657	 18.51815	  4.33504	 -1.50523	 30.73408	705.09497	 23.30	
 18.706	 21.182	 25.19833	 28.13106	 -2.84658	 16.92662	  5.57985	 -1.39859	 30.73520	705.17798	 23.30	
 18.691	 15.915	 25.17221	 28.58220	 -3.14010	 15.32699	  7.00797	 -1.32524	 30.70799	705.01202	 23.30	
 18.703	 10.559	 25.16627	 28.94788	 -3.37232	 13.73526	  8.44905	 -1.26512	 30.73981	705.18201	 23.30	
 18.709	  5.325	 25.12805	 29.13620	 -3.59188	 12.18386	  9.90073	 -1.21084	 30.73158	705.12000	 23.30	
 18.700	  0.000	 25.12547	 29.17504	 -3.61500	 10.57188	 11.38762	 -1.16297	 30.73242	705.18500	 23.30	
 18.709	 -5.325	 25.09187	 29.05846	 -3.52047	  9.07905	 12.86969	 -1.12327	 30.71677	705.01202	 23.30	
 18.703	-10.559	 25.10629	 28.83463	 -3.37518	  7.65821	 14.39160	 -1.10027	 30.75165	705.12201	 23.30	
 18.691	-15.915	 25.08445	 28.41434	 -3.13563	  6.20075	 16.07969	 -1.06919	 30.74733	705.14697	 23.30	
 18.706	-21.182	 25.04442	 27.84234	 -2.75604	  4.81441	 17.62567	 -1.01297	 30.72519	705.02100	 23.30	
 18.695	-26.463	 25.01599	 27.09684	 -2.22479	  3.48556	 19.09822	 -0.94935	 30.69236	705.05701	 23.30	
 18.704	-31.745	 24.99797	 26.24308	 -1.61216	  2.25499	 20.65839	 -0.89999	 30.72103	705.01898	 23.30	
 18.698	-37.048	 25.01525	 25.25749	 -0.88352	  1.23079	 22.10411	 -0.83234	 30.75159	705.09399	 23.30	
 18.699	-42.375	 24.98754	 24.10639	 -0.06469	  0.23521	 23.33393	 -0.78928	 30.74099	705.20502	 23.30	
 18.705	-47.657	 24.95454	 22.82926	  0.78546	 -0.71517	 24.53454	 -0.75698	 30.71801	705.15900	 23.30	
 18.713	-52.933	 24.92764	 21.52855	  1.77727	 -1.57456	 25.63282	 -0.71058	 30.72844	705.12201	 23.30	
 18.700	-58.206	 24.91552	 20.08868	  2.98949	 -2.30017	 26.59410	 -0.66192	 30.73396	705.26300	 23.30	
 18.698	-63.496	 24.90748	 18.56474	  4.26279	 -2.89200	 27.40120	 -0.62387	 30.74353	705.29498	 23.30	
 18.707	-68.835	 24.86605	 16.91164	  5.58321	 -3.38335	 28.04413	 -0.58251	 30.71501	705.19598	 23.30	
 18.690	-74.137	 24.89025	 15.37639	  6.96315	 -3.72968	 28.57921	 -0.55806	 30.74188	705.10602	 23.30	
 18.696	-79.417	 24.86035	 13.75131	  8.26668	 -3.95841	 28.91306	 -0.55004	 30.71590	705.23602	 23.30	
 18.700	-84.691	 24.83153	 12.15214	  9.63727	 -4.12232	 29.09694	 -0.60839	 30.69847	705.31897	 23.30	
 18.700	-90.000	 24.85192	 10.63935	 11.21214	 -4.25681	 29.19825	 -0.65282	 30.74486	705.28003	 23.30	
 18.700	-95.309	 24.85436	  9.10952	 12.78367	 -4.22128	 29.11767	 -0.77510	 30.73917	705.12903	 23.30	
 18.696	-100.583	 24.88124	  7.66628	 14.32223	 -3.97977	 28.88381	 -0.97126	 30.75785	705.04999	 23.30	
 18.690	-105.863	 24.87250	  6.28518	 15.86619	 -3.69851	 28.47724	 -1.16416	 30.72393	705.15997	 23.30	
 18.707	-111.165	 24.89236	  4.89064	 17.49869	 -3.35266	 27.96563	 -1.26125	 30.74809	705.11102	 23.30	
 18.698	-116.504	 24.91980	  3.59266	 19.06716	 -2.80515	 27.27062	 -1.29355	 30.74746	705.20898	 23.30	
 18.700	-121.794	 24.91507	  2.40100	 20.53337	 -2.19551	 26.42609	 -1.27848	 30.72379	705.19598	 23.30	
 18.713	-127.067	 24.94153	  1.40036	 21.91638	 -1.48778	 25.45495	 -1.22493	 30.74406	705.18402	 23.30	
 18.705	-132.343	 24.97568	  0.35010	 23.21120	 -0.60085	 24.33257	 -1.17391	 30.73747	705.14502	 23.30	
 18.699	-137.625	 25.03243	 -0.54214	 24.43580	  0.39923	 23.11508	 -1.14876	 30.75270	705.24402	 23.30	
 18.698	-142.952	 25.02575	 -1.28824	 25.48989	  1.44648	 21.79856	 -1.13326	 30.70365	705.22601	 23.30	
 18.704	-148.255	 25.04559	 -1.92203	 26.44120	  2.50962	 20.37515	 -1.12108	 30.69320	705.22998	 23.30	
 18.695	-153.537	 25.12355	 -2.41454	 27.29711	  3.73975	 18.86400	 -1.10877	 30.72039	705.29498	 23.30	
 18.706	-158.818	 25.14153	 -2.89583	 27.97481	  5.07797	 17.37294	 -1.11913	 30.73943	705.17401	 23.30	
 18.691	-164.085	 25.19488	 -3.23637	 28.49829	  6.49997	 15.85726	 -1.13474	 30.75937	705.19800	 23.30	
 18.703	-169.441	 25.20958	 -3.42258	 28.85600	  7.93884	 14.19445	 -1.17607	 30.74459	705.15100	 23.30	
 18.709	-174.675	 25.23310	 -3.54747	 29.07764	  9.43437	 12.65535	 -1.21586	 30.74058	705.12299	 23.30	
 18.700	180.000	 25.23260	 -3.64929	 29.11946	 10.88803	 11.09598	 -1.20888	 30.70967	705.16498	 23.30	
 20.400	180.000	 24.10871	 -5.31268	 29.67782	 10.07546	 10.22943	 -1.11093	 30.70844	705.23798	 23.30	
 20.401	-175.153	 24.10978	 -5.28149	 29.66118	  8.68044	 11.74701	 -1.08552	 30.75452	705.09399	 23.30	
 20.407	-170.264	 24.03671	 -5.11094	 29.41264	  7.12293	 13.25256	 -1.05573	 30.70202	705.17297	 23.30	
 20.410	-165.423	 24.03010	 -4.96108	 29.12704	  5.70334	 14.82353	 -1.02472	 30.73823	705.13098	 23.30	
 20.392	-160.496	 24.00122	 -4.67376	 28.64151	  4.29861	 16.41923	 -1.00821	 30.72139	705.04401	 23.30	
 20.401	-155.705	 23.97615	 -4.25894	 28.04779	  2.99440	 17.90543	 -1.00012	 30.72527	705.13599	 23.30	
 20.405	-150.835	 23.94118	 -3.82463	 27.30065	  1.79306	 19.43318	 -0.99955	 30.74139	705.07501	 23.30	
 20.397	-145.903	 23.91421	 -3.24005	 26.40526	  0.65009	 20.88206	 -1.03927	 30.73319	705.01300	 23.30	
 20.392	-141.062	 23.89286	 -2.57744	 25.39519	 -0.41431	 22.23761	 -1.07676	 30.72727	705.21198	 23.30	
 20.396	-136.227	 23.83474	 -1.83222	 24.24368	 -1.42733	 23.50239	 -1.10457	 30.70908	705.10303	 23.30	
 20.408	-131.372	 23.78487	 -0.98821	 22.99719	 -2.36098	 24.69673	 -1.12924	 30.70058	705.14697	 23.40	
 20.410	-126.511	 23.76401	 -0.03303	 21.72321	 -3.16919	 25.77565	 -1.14853	 30.69539	705.20398	 23.30	
 20.400	-121.604	 23.75425	  1.09170	 20.37452	 -3.83453	 26.72042	 -1.20323	 30.66853	705.10602	 23.30	
 20.403	-116.741	 23.77529	  2.26003	 18.89318	 -4.44832	 27.60545	 -1.18659	 30.72119	705.11499	 23.40	
 20.413	-111.900	 23.74771	  3.43712	 17.34909	 -4.91986	 28.29082	 -1.08801	 30.69399	705.00098	 23.30	
 20.398	-107.004	 23.74009	  4.72688	 15.78773	 -5.26640	 28.83394	 -0.95486	 30.68523	705.16998	 23.40	
 20.394	-102.132	 23.70964	  6.08560	 14.20946	 -5.61329	 29.24628	 -0.79002	 30.68061	705.08099	 23.30	
 20.403	-97.332	 23.70986	  7.50549	 12.68016	 -5.90380	 29.56351	 -0.68245	 30.72147	705.11102	 23.30	
 20.392	-92.440	 23.68769	  8.96979	 11.12782	 -6.02218	 29.69143	 -0.57583	 30.70242	705.01300	 23.30	
 20.392	-87.560	 23.65549	 10.47373	  9.58882	 -6.02234	 29.70003	 -0.56099	 30.69021	705.01898	 23.40	
 20.403	-82.668	 23.62247	 11.93649	  8.10446	 -5.87216	 29.55034	 -0.56277	 30.64388	705.07001	 23.40	
 20.394	-77.868	 23.71676	 13.56585	  6.76403	 -5.73233	 29.36184	 -0.58699	 30.71182	705.10797	 23.40	
 20.398	-72.996	 23.69340	 15.12720	  5.42704	 -5.46030	 28.96065	 -0.52204	 30.68983	705.13397	 23.40	
 20.413	-68.100	 23.71488	 16.68082	  4.07843	 -5.05794	 28.43545	 -0.53704	 30.69114	705.11102	 23.40	
 20.403	-63.259	 23.74800	 18.28088	  2.84487	 -4.54103	 27.76195	 -0.57664	 30.67994	705.03601	 23.40	
 20.400	-58.396	 23.76234	 19.82203	  1.58907	 -3.98009	 26.95494	 -0.60604	 30.68441	705.12598	 23.40	
 20.410	-53.489	 23.72563	 21.26905	  0.56039	 -3.31232	 25.99505	 -0.62824	 30.65950	705.10498	 23.40	
 20.408	-48.628	 23.77797	 22.61373	 -0.43419	 -2.50782	 24.99699	 -0.64772	 30.72347	705.00800	 23.40	
 20.396	-43.773	 23.77313	 23.85737	 -1.31835	 -1.57789	 23.78167	 -0.67612	 30.67116	705.08301	 23.40	
 20.392	-38.938	 23.79336	 25.03012	 -2.13957	 -0.58647	 22.50933	 -0.71127	 30.65132	705.02600	 23.40	
 20.397	-34.097	 23.85562	 26.13972	 -2.89940	  0.43356	 21.23808	 -0.75371	 30.72606	705.03601	 23.40	
 20.405	-29.165	 23.85324	 27.06696	 -3.57667	  1.54368	 19.73217	 -0.85275	 30.71124	705.15100	 23.40	
 20.401	-24.295	 23.88686	 27.86812	 -4.12615	  2.69224	 18.19719	 -0.96772	 30.70298	705.00403	 23.40	
 20.392	-19.504	 23.91488	 28.52028	 -4.56808	  4.00136	 16.70163	 -0.97980	 30.71498	705.11102	 23.40	
 20.410	-14.577	 23.93959	 29.07075	 -4.90511	  5.37303	 15.07927	 -1.02105	 30.74548	705.19000	 23.40	
 20.407	 -9.736	 23.92146	 29.37802	 -5.09240	  6.76760	 13.47787	 -1.01592	 30.68557	705.09399	 23.40	
 20.401	 -4.847	 23.94283	 29.60672	 -5.25420	  8.22528	 12.01684	 -1.04256	 30.69823	705.22400	 23.40	
 20.400	  0.000	 23.94407	 29.68552	 -5.30901	  9.67756	 10.53474	 -1.03605	 30.68050	705.26001	 23.40	
 20.401	  4.847	 23.93372	 29.63728	 -5.29396	 11.21443	  9.05814	 -1.05868	 30.65999	705.07001	 23.40	
 20.407	  9.736	 23.99290	 29.53316	 -5.15120	 12.76541	  7.58708	 -1.11783	 30.72244	704.99799	 23.40	
 20.410	 14.577	 24.00925	 29.23204	 -4.93199	 14.36914	  6.15385	 -1.17688	 30.71387	705.12598	 23.40	
 20.392	 19.504	 24.01080	 28.74199	 -4.60788	 15.95143	  4.83543	 -1.25073	 30.66906	705.19000	 23.40	
 20.401	 24.295	 24.07981	 28.22146	 -4.27803	 17.45113	  3.65351	 -1.31960	 30.70289	705.03198	 23.40	
 20.405	 29.165	 24.10710	 27.50291	 -3.75265	 19.02395	  2.47574	 -1.40101	 30.70621	705.01801	 23.40	
 20.397	 34.097	 24.14198	 26.63074	 -3.11367	 20.56976	  1.36005	 -1.47292	 30.69951	705.08801	 23.40	
 20.392	 38.938	 24.19967	 25.68739	 -2.41644	 21.95908	  0.36823	 -1.53045	 30.73527	705.09399	 23.40	
 20.396	 43.773	 24.19382	 24.56327	 -1.63016	 23.18572	 -0.51693	 -1.61209	 30.68338	705.10303	 23.40	
 20.408	 48.628	 24.19672	 23.36016	 -0.80560	 24.39925	 -1.40270	 -1.68787	 30.67001	705.04901	 23.40	
 20.410	 53.489	 24.23473	 22.07232	  0.12865	 25.55116	 -2.25267	 -1.71822	 30.70108	705.14301	 23.40	
 20.400	 58.396	 24.26534	 20.72060	  1.15066	 26.55597	 -2.92864	 -1.73006	 30.68873	705.07397	 23.40	
 20.403	 63.259	 24.28057	 19.23783	  2.31374	 27.41388	 -3.59770	 -1.71092	 30.68664	705.17798	 23.40	
 20.413	 68.100	 24.27063	 17.68990	  3.56406	 28.08867	 -4.05269	 -1.62444	 30.65495	704.98700	 23.40	
 20.398	 72.996	 24.33605	 16.18935	  4.84186	 28.71051	 -4.40460	 -1.52331	 30.71166	705.15002	 23.40	
 20.394	 77.868	 24.35517	 14.63767	  6.24159	 29.15679	 -4.68898	 -1.40875	 30.71851	705.05499	 23.40	
 20.403	 82.668	 24.32795	 13.07970	  7.66678	 29.41363	 -4.88208	 -1.27592	 30.68682	704.98499	 23.40	
 20.392	 87.560	 24.37261	 11.53346	  9.13511	 29.57405	 -4.93177	 -1.14696	 30.70544	705.01300	 23.40	
 20.392	 92.440	 24.34634	  9.96046	 10.73956	 29.57460	 -5.00853	 -1.02523	 30.68172	704.93701	 23.40	
 20.403	 97.332	 24.37346	  8.47259	 12.31001	 29.49483	 -4.96519	 -0.94030	 30.70441	704.91400	 23.40	
 20.394	102.132	 24.37215	  7.03393	 13.86654	 29.21043	 -4.66211	 -0.93497	 30.67579	705.02600	 23.40	
 20.398	107.004	 24.39827	  5.64615	 15.46752	 28.83894	 -4.37766	 -0.93994	 30.69952	705.04102	 23.40	
 20.413	111.900	 24.36263	  4.27905	 17.02436	 28.27349	 -4.07041	 -0.93059	 30.66043	704.97900	 23.40	
 20.403	116.741	 24.37251	  2.98446	 18.54140	 27.63208	 -3.64599	 -1.00224	 30.68491	705.04901	 23.40	
 20.400	121.604	 24.37488	  1.82827	 20.10096	 26.82785	 -3.08200	 -1.03543	 30.69467	705.17401	 23.40	
 20.410	126.511	 24.37063	  0.71510	 21.48644	 25.86796	 -2.40898	 -1.11021	 30.69373	705.17297	 23.40	
 20.408	131.372	 24.37079	 -0.28037	 22.80672	 24.78649	 -1.68093	 -1.14541	 30.69306	705.17401	 23.40	
 20.396	136.227	 24.39900	 -1.15218	 24.07869	 23.61460	 -0.81984	 -1.11659	 30.71186	705.22101	 23.40	
 20.392	141.062	 24.36979	 -1.99352	 25.20634	 22.32293	  0.12033	 -1.10803	 30.69808	705.02899	 23.40	
 20.397	145.903	 24.33405	 -2.76495	 26.23064	 21.04699	  1.09419	 -1.11269	 30.68338	705.14502	 23.40	
 20.405	150.835	 24.30183	 -3.43385	 27.14713	 19.54806	  2.13493	 -1.11516	 30.68583	705.11902	 23.40	
 20.401	155.705	 24.29147	 -4.07559	 27.94674	 17.98570	  3.29987	 -1.07940	 30.70378	705.04102	 23.40	
 20.392	160.496	 24.25241	 -4.43481	 28.53196	 16.41136	  4.46090	 -1.10993	 30.67869	705.15100	 23.40	
 20.410	165.423	 24.23782	 -4.83782	 29.08042	 14.80772	  5.86338	 -1.11083	 30.73552	705.04700	 23.40	
 20.407	170.264	 24.16918	 -5.12112	 29.39568	 13.21301	  7.29216	 -1.10700	 30.70407	704.95300	 23.40	
 20.401	175.153	 24.12323	 -5.23185	 29.57598	 11.64932	  8.71787	 -1.12650	 30.68615	705.02100	 23.40	
  0.141	 45.000	 30.75198	 16.34019	 16.12596	 15.98154	 16.35088	  0.31258	 30.70331	704.96802	 23.40	
  4.001	128.691	 30.68023	 13.60651	 18.46581	 18.83015	 13.17010	  0.24454	 30.70677	704.97699	 23.40	
  4.002	 76.995	 30.67398	 16.90514	 15.06845	 19.57035	 12.42556	  0.21033	 30.69862	705.08099	 23.40	
  4.002	 25.892	 30.69548	 19.51794	 12.39035	 17.49621	 14.45042	  0.15360	 30.74718	705.07501	 23.40	
  4.002	-25.892	 30.64045	 19.46990	 12.45195	 13.95866	 17.82296	  0.20726	 30.71882	705.19299	 23.40	
  4.002	-76.995	 30.62156	 16.77605	 15.16455	 11.85550	 19.90598	  0.21099	 30.71513	705.21198	 23.40	
  4.001	-128.691	 30.65471	 13.48423	 18.56454	 12.53966	 19.14018	  0.18591	 30.73564	705.27100	 23.40	
  4.000	180.000	 30.66668	 12.12016	 19.93748	 15.62280	 16.22654	  0.20480	 30.71815	705.16699	 23.40	
  8.000	180.000	 30.02519	  7.98123	 22.94691	 14.85867	 15.37010	 -0.27537	 30.70052	705.18103	 23.40	
  7.991	-152.370	 29.96944	  8.65919	 22.07608	 11.31040	 18.87391	 -0.30174	 30.69114	705.15100	 23.40	
  7.997	-124.550	 29.90173	 10.69862	 19.77470	  8.71218	 21.76265	 -0.37247	 30.67746	705.09100	 23.40	
  8.006	-96.837	 29.91873	 14.07012	 16.23929	  7.55159	 23.10961	 -0.32222	 30.72156	705.21301	 23.40	
  7.988	-69.228	 29.91214	 17.79857	 12.52095	  7.99470	 22.67827	 -0.28019	 30.71847	705.03601	 23.40	
  7.997	-41.563	 29.91513	 20.96308	  9.76159	  9.84012	 20.58917	 -0.21797	 30.69753	705.10602	 23.40	
  8.008	-13.821	 29.97351	 22.69041	  8.22393	 12.86153	 17.32430	 -0.30107	 30.70897	705.03900	 23.40	
  8.008	 13.821	 29.99525	 22.76592	  8.14621	 16.73554	 13.52659	 -0.41963	 30.69597	705.10303	 23.40	
  7.997	 41.563	 30.06093	 21.21424	  9.61733	 20.21923	 10.51545	 -0.39605	 30.72117	705.03497	 23.40	
  7.988	 69.228	 30.08240	 18.16485	 12.32238	 22.22451	  8.74893	 -0.27800	 30.70304	704.98499	 23.40	
  8.006	 96.837	 30.10758	 14.42080	 16.02252	 22.73719	  8.33682	 -0.14403	 30.71827	705.05798	 23.40	
  7.997	124.550	 30.11597	 11.02723	 19.59387	 21.45583	  9.44910	 -0.12507	 30.70875	705.07202	 23.40	
  7.991	152.370	 30.14959	  8.85680	 22.05674	 18.69678	 11.83782	 -0.01507	 30.76307	705.06299	 23.40	
 12.009	161.059	 28.81663	  4.15973	 25.04359	 17.56349	 10.51171	 -0.61684	 30.70306	704.99402	 23.40	
 12.013	142.081	 28.88939	  5.73649	 23.16682	 21.12176	  7.60935	 -0.58844	 30.74255	705.16998	 23.40	
 12.006	123.113	 28.90305	  8.22677	 20.35181	 23.65023	  5.34433	 -0.71704	 30.72945	705.10303	 23.40	
 12.007	104.200	 28.90853	 11.42962	 16.71097	 25.24294	  4.12459	 -0.78671	 30.72833	705.09998	 23.40	
 11.989	 85.301	 28.89831	 15.15836	 12.81453	 25.51231	  3.88794	 -0.88183	 30.71474	705.07501	 23.40	
 12.013	 66.294	 28.86339	 19.00530	  9.33625	 24.49641	  4.60320	 -0.94904	 30.73008	704.88397	 23.40	
 12.012	 47.388	 28.82226	 22.15120	  6.76614	 22.28382	  6.41700	 -1.05424	 30.74189	705.09100	 23.40	
 11.990	 28.440	 28.72305	 24.43556	  4.71399	 19.26390	  9.10096	 -1.22387	 30.70483	705.12299	 23.40	
 11.991	  9.464	 28.70757	 25.65079	  3.75341	 15.42706	 12.24487	 -1.13102	 30.72607	705.12598	 23.40	
 11.991	 -9.464	 28.66742	 25.57666	  3.77706	 11.65496	 16.09344	 -0.95287	 30.72154	705.20697	 23.40	
 11.990	-28.440	 28.62278	 24.22267	  4.88140	  8.17005	 19.74118	 -0.79238	 30.73344	705.00500	 23.40	
 12.012	-47.388	 28.57401	 21.73896	  6.66921	  5.47115	 22.79131	 -0.78157	 30.72398	705.13397	 23.40	
 12.013	-66.294	 28.51657	 18.45809	  9.53579	  3.89270	 24.90391	 -0.77957	 30.71916	705.07501	 23.40	
 11.989	-85.301	 28.52876	 14.57984	 13.04603	  3.14086	 25.81021	 -0.81534	 30.71879	705.22998	 23.40	
 12.007	-104.200	 28.58652	 10.87333	 16.94375	  3.41110	 25.51629	 -0.94067	 30.77413	705.22101	 23.40	
 12.006	-123.113	 28.57053	  7.74055	 20.46027	  4.72639	 23.88744	 -0.86472	 30.73145	705.12299	 23.40	
 12.013	-142.081	 28.64352	  5.33519	 23.29395	  7.14216	 21.27682	 -0.73498	 30.74089	705.16998	 23.40	
 12.009	-161.059	 28.70685	  3.97682	 25.13348	  9.98451	 17.83185	 -0.82611	 30.72424	704.98700	 23.40	
 16.000	180.000	 26.85230	 -0.61622	 27.96679	 12.13268	 12.37391	 -1.27414	 30.70827	705.00201	 23.40	
 15.990	-165.604	 26.79914	 -0.35478	 27.52358	  8.69546	 16.17108	 -1.22079	 30.73306	705.09698	 23.40	
 16.002	-151.165	 26.68883	  0.56720	 26.07272	  5.31576	 19.76817	 -1.15030	 30.70692	705.07501	 23.40	
 16.002	-136.836	 26.63733	  2.05788	 23.74622	  2.55603	 22.96596	 -1.11040	 30.70956	704.98798	 23.40	
 15.995	-122.439	 26.57788	  4.51776	 20.75271	  0.61454	 25.53742	 -1.19614	 30.71543	704.97101	 23.40	
 15.993	-107.966	 26.53519	  7.58711	 17.17036	 -0.73924	 27.29123	 -1.30873	 30.74047	705.05499	 23.40	
 16.005	-93.629	 26.52929	 10.97140	 13.39177	 -1.29239	 28.10594	 -0.98182	 30.76854	705.12799	 23.40	
 15.992	-79.234	 26.47691	 14.72705	  9.73017	 -1.12728	 27.84634	 -0.75483	 30.70722	705.19098	 23.40	
 16.009	-64.774	 26.51162	 18.53907	  6.64334	 -0.29537	 26.66841	 -0.75444	 30.71825	705.16199	 23.40	
 15.997	-50.364	 26.59555	 21.97523	  3.76622	  1.37365	 24.53503	 -0.87785	 30.72917	705.06702	 23.40	
 15.997	-36.045	 26.65358	 24.78391	  1.46148	  3.66687	 21.73641	 -0.95434	 30.74109	705.11401	 23.40	
 16.000	-21.597	 26.68392	 26.79395	  0.05442	  6.76054	 18.22446	 -1.12363	 30.72334	705.06299	 23.40	
 16.003	 -7.169	 26.73434	 27.87179	 -0.66643	 10.05197	 14.46357	 -1.26282	 30.73364	705.13397	 23.40	
 16.003	  7.169	 26.79388	 27.96058	 -0.65794	 13.77599	 10.83997	 -1.41273	 30.75107	705.11499	 23.40	
 16.000	 21.597	 26.78910	 27.03418	 -0.09329	 17.59341	  7.47235	 -1.56398	 30.70883	705.00098	 23.40	
 15.997	 36.045	 26.88423	 25.22308	  1.24580	 21.14314	  4.44283	 -1.67856	 30.73577	705.03601	 23.50	
 15.997	 50.364	 26.91762	 22.54553	  3.41442	 24.03937	  2.15122	 -1.51176	 30.72125	705.03900	 23.50	
 16.009	 64.774	 26.98819	 19.37462	  6.30812	 26.26752	  0.53526	 -1.42712	 30.74283	705.12299	 23.50	
 15.992	 79.234	 27.02680	 15.58501	  9.38477	 27.59105	 -0.35755	 -1.33559	 30.74669	705.11200	 23.50	
 16.005	 93.629	 27.04547	 11.80459	 13.02347	 27.87233	 -0.49790	 -1.21936	 30.73159	705.09399	 23.50	
 15.993	107.966	 27.02692	  8.26130	 16.87563	 27.11495	 -0.02422	 -1.15596	 30.69473	705.04999	 23.50	
 15.995	122.439	 27.08032	  5.18808	 20.52115	 25.48497	  1.22791	 -1.21657	 30.73538	705.02600	 23.50	
 16.002	136.836	 27.03600	  2.59721	 23.56766	 22.92388	  3.09907	 -1.03696	 30.71592	705.07001	 23.50	
 16.002	151.165	 27.00032	  0.88293	 25.96590	 19.81203	  5.72802	 -0.92710	 30.74429	705.07001	 23.50	
 15.990	165.604	 26.96968	 -0.18815	 27.49242	 15.93366	  8.95476	 -1.01779	 30.74643	705.12299	 23.50	
 20.003	168.362	 24.47235	 -4.61944	 29.16947	 13.98941	  6.99441	 -1.15502	 30.72503	705.06702	 23.50	
 20.008	156.764	 24.58003	 -3.79323	 28.03133	 17.74252	  3.86506	 -1.07988	 30.74766	705.13397	 23.50	
 20.000	145.147	 24.61520	 -2.29662	 26.03316	 21.29172	  1.26045	 -1.11375	 30.71196	705.05200	 23.50	
 19.995	133.545	 24.65298	 -0.34832	 23.37818	 24.23298	 -0.95347	 -1.16854	 30.70277	705.07800	 23.50	
 20.009	121.926	 24.65729	  2.06714	 20.26086	 26.71457	 -2.67560	 -1.07307	 30.73480	705.18402	 23.50	
 20.005	110.327	 24.69847	  5.02185	 16.64921	 28.42301	 -3.80864	 -0.94436	 30.74030	705.10797	 23.50	
 19.989	 98.733	 24.66346	  8.28262	 12.93601	 29.31373	 -4.50549	 -0.92820	 30.72516	705.12201	 23.50	
 19.999	 87.075	 24.66755	 11.88510	  9.22707	 29.46507	 -4.54060	 -1.16634	 30.73284	705.15100	 23.50	
 19.992	 75.457	 24.63002	 15.54454	  5.84381	 28.81034	 -4.12681	 -1.45526	 30.71199	705.28302	 23.50	
 20.009	 63.844	 24.59958	 19.15835	  2.85251	 27.43878	 -3.24590	 -1.66521	 30.73513	705.26898	 23.50	
 19.989	 52.269	 24.55631	 22.42300	  0.27907	 25.25377	 -1.66237	 -1.71126	 30.74301	705.08301	 23.50	
 19.999	 40.602	 24.47441	 25.26161	 -1.77435	 22.39494	  0.34787	 -1.57961	 30.74867	705.13098	 23.50	
 20.004	 29.051	 24.38285	 27.43895	 -3.37356	 19.07517	  2.80536	 -1.43715	 30.71650	705.20502	 23.50	
 20.005	 17.433	 24.33144	 28.89275	 -4.35920	 15.44627	  5.63695	 -1.23190	 30.74438	705.09802	 23.50	
 20.006	  5.780	 24.23556	 29.52991	 -4.90331	 11.72133	  9.00830	 -1.07213	 30.70048	705.27502	 23.50	
 20.006	 -5.780	 24.22752	 29.48306	 -4.86321	  8.19539	 12.46678	 -1.04666	 30.71787	705.04401	 23.50	
 20.005	-17.433	 24.17520	 28.64658	 -4.37045	  4.84199	 16.15172	 -1.05348	 30.71496	705.15302	 23.50	
 20.004	-29.051	 24.14587	 27.02507	 -3.21810	  1.87945	 19.75643	 -0.90744	 30.73412	705.20099	 23.50	
 19.999	-40.602	 24.13174	 24.66346	 -1.50324	 -0.55991	 22.98868	 -0.77731	 30.73466	705.18500	 23.50	
 19.989	-52.269	 24.10442	 21.70217	  0.62899	 -2.71581	 25.76716	 -0.70566	 30.76375	705.14301	 23.50	
 20.009	-63.844	 24.06785	 18.23575	  3.31974	 -4.21676	 27.79920	 -0.58142	 30.74874	705.12000	 23.50	
 19.992	-75.457	 24.01290	 14.50301	  6.38901	 -5.15487	 29.07403	 -0.56304	 30.72561	705.12903	 23.50	
 19.999	-87.075	 23.94838	 10.84011	  9.64895	 -5.57585	 29.55625	 -0.55153	 30.68527	705.07800	 23.40	
 19.989	-98.733	 24.01079	  7.36817	 13.28867	 -5.45222	 29.39310	 -0.73777	 30.73993	705.06403	 23.40	
 20.005	-110.327	 24.03705	  4.15905	 16.94938	 -4.70488	 28.41390	 -1.11216	 30.73786	705.00500	 23.40	
 20.009	-121.926	 24.01612	  1.39159	 20.47946	 -3.44363	 26.61689	 -1.24273	 30.69137	704.93903	 23.40	
 19.995	-133.545	 24.11736	 -1.03923	 23.57999	 -1.58712	 24.17851	 -1.14491	 30.73990	705.03601	 23.40	
 20.000	-145.147	 24.15878	 -2.75971	 26.14066	  0.81834	 21.11737	 -1.06604	 30.68977	705.05701	 23.40	
 20.008	-156.764	 24.25409	 -3.96106	 28.08150	  3.55492	 17.64177	 -1.03727	 30.70441	705.11102	 23.40	
 20.003	-168.362	 24.30474	 -4.65372	 29.17653	  6.80476	 14.02243	 -1.06700	 30.70304	705.06403	 23.40	
 20.000	180.000	 24.40140	 -4.94793	 29.59036	 10.28287	 10.44121	 -1.14032	 30.74805	705.04700	 23.40	
