FileType=PCF
NHL=14
Date=10/23/18	14:25:55
Facility=APL
Serial=16328-5
Customer=NASA
NP=6
Mach=0.250000
Calibration=1:1
CalPts=490
TstPts=95
PortNumbering=AP Standard
Units=Torr C m/s kg/m^3 deg mm 
Theta[deg]	Phi[deg]	P1[Torr]	P2[Torr]	P3[Torr]	P4[Torr]	P5[Torr]	P6[Torr]	Pt[Torr]	Ps[Abs,Torr]	Ts[C]	
  0.000	  0.000	 30.93308	 16.54511	 15.74368	 15.69220	 16.43052	  0.19390	 30.91191	707.72601	 34.30	
  1.691	128.401	 30.89033	 15.50932	 16.70714	 17.05038	 15.10333	  0.18033	 30.87700	707.83899	 34.50	
  1.692	 77.194	 30.89799	 16.88563	 15.31605	 17.35303	 14.78590	  0.17566	 30.87882	707.76898	 34.70	
  1.699	 26.182	 30.90325	 17.93032	 14.15774	 16.43161	 15.65949	  0.16727	 30.88593	707.84100	 34.90	
  1.699	-26.182	 30.90098	 17.90342	 14.12068	 14.89958	 17.03316	  0.15916	 30.89325	707.82001	 35.00	
  1.692	-77.194	 30.92564	 16.83736	 15.33413	 14.02988	 17.89875	  0.16709	 30.91567	707.88702	 35.10	
  1.691	-128.401	 30.91245	 15.46878	 16.70971	 14.37730	 17.60859	  0.17331	 30.89667	707.79102	 35.10	
  1.700	180.000	 30.92290	 14.80048	 17.31835	 15.63983	 16.39273	  0.18283	 30.91080	707.74701	 35.20	
  3.400	180.000	 30.84562	 13.01519	 18.85308	 15.53573	 16.26217	  0.11775	 30.88292	707.81097	 35.20	
  3.388	-152.325	 30.85667	 13.35429	 18.45985	 14.00752	 17.73868	  0.13203	 30.90901	707.81702	 35.30	
  3.397	-124.529	 30.91856	 14.39249	 17.46333	 12.80419	 18.90169	  0.11611	 30.96435	707.72601	 35.30	
  3.399	-96.763	 30.83655	 15.93256	 15.91548	 12.24399	 19.47256	  0.08667	 30.89559	707.78400	 35.30	
  3.394	-69.283	 30.84076	 17.39624	 14.33934	 12.37897	 19.24718	  0.06927	 30.88486	707.76300	 35.30	
  3.400	-41.398	 30.82395	 18.66729	 12.92637	 13.28942	 18.30657	  0.09587	 30.89185	707.84198	 35.30	
  3.401	-14.021	 30.81134	 19.44536	 12.21346	 14.64659	 16.96546	  0.08513	 30.84242	707.77399	 35.40	
  3.401	 14.021	 30.80662	 19.44768	 12.19726	 16.38674	 15.33820	  0.15489	 30.84608	707.79498	 35.40	
  3.400	 41.398	 30.84839	 18.80392	 12.97117	 17.80777	 14.00034	  0.08540	 30.88748	707.81799	 35.50	
  3.394	 69.283	 30.82714	 17.51637	 14.36011	 18.67472	 13.09042	  0.09066	 30.91923	707.76599	 35.50	
  3.399	 96.763	 30.82775	 16.05538	 15.90429	 18.87043	 12.92843	  0.10016	 30.89827	707.76599	 35.50	
  3.397	124.529	 30.85513	 14.47695	 17.38322	 18.37299	 13.47849	  0.11531	 30.87973	707.77698	 35.60	
  3.388	152.325	 30.84442	 13.42599	 18.39910	 17.19496	 14.74831	  0.13101	 30.86893	707.72601	 35.60	
  5.099	161.165	 30.68266	 11.44406	 20.10824	 17.06187	 14.45630	  0.02477	 30.86818	707.82599	 35.60	
  5.109	142.013	 30.70598	 12.25291	 19.28015	 18.50664	 12.95454	  0.02943	 30.88195	707.79303	 35.60	
  5.095	123.033	 30.70811	 13.46284	 17.95450	 19.64408	 11.84515	 -0.01169	 30.86977	707.85699	 35.60	
  5.105	104.191	 30.73738	 14.94342	 16.55666	 20.32437	 11.16630	  0.00062	 30.89750	707.78699	 35.60	
  5.093	 85.207	 30.71215	 16.62340	 14.95209	 20.39744	 11.05150	 -0.05926	 30.87167	707.78802	 35.60	
  5.104	 66.290	 30.76208	 18.14088	 13.23910	 20.05735	 11.38101	 -0.00019	 30.91833	707.83301	 35.60	
  5.094	 47.331	 30.72586	 19.46683	 11.80708	 19.04348	 12.28018	  0.00336	 30.89108	707.81097	 35.60	
  5.089	 28.397	 30.69895	 20.37483	 10.85699	 17.70537	 13.56973	  0.00409	 30.86671	707.78802	 35.70	
  5.096	  9.576	 30.67974	 20.83891	 10.39407	 16.18550	 15.12995	 -0.00450	 30.85489	707.76599	 35.70	
  5.096	 -9.576	 30.67564	 20.83358	 10.38670	 14.45745	 16.71312	 -0.01425	 30.86540	707.75201	 35.70	
  5.089	-28.397	 30.67359	 20.30757	 10.86926	 12.94334	 18.16840	 -0.04171	 30.87589	707.65503	 35.70	
  5.094	-47.331	 30.63542	 19.28905	 11.89174	 11.58594	 19.52053	 -0.04995	 30.84236	707.74200	 35.70	
  5.104	-66.290	 30.65204	 17.92824	 13.27654	 10.72700	 20.45991	 -0.12209	 30.87601	707.67499	 35.70	
  5.093	-85.207	 30.58800	 16.40196	 14.87027	 10.37041	 20.82976	 -0.04672	 30.81382	707.62299	 35.80	
  5.105	-104.191	 30.61614	 14.73372	 16.51511	 10.51908	 20.70609	 -0.08585	 30.84100	707.54498	 35.80	
  5.095	-123.033	 30.62431	 13.29421	 18.00403	 11.12652	 20.09104	 -0.00719	 30.85104	707.69897	 35.80	
  5.109	-142.013	 30.62570	 12.12862	 19.25595	 12.27015	 18.99313	  0.00956	 30.84763	707.63898	 35.80	
  5.099	-161.165	 30.66671	 11.37738	 20.13257	 13.73487	 17.56043	  0.02049	 30.87718	707.67902	 35.80	
  5.100	180.000	 30.65375	 11.10108	 20.37403	 15.35738	 16.00254	  0.03523	 30.84726	707.65503	 35.80	
  6.800	180.000	 30.36714	  9.45218	 21.71597	 15.07505	 15.68889	 -0.11279	 30.84279	707.64697	 35.80	
  6.796	-166.229	 30.35900	  9.60962	 21.50458	 13.49228	 17.22818	 -0.19289	 30.83576	707.67401	 35.80	
  6.808	-152.311	 30.35258	 10.03621	 20.94084	 11.99234	 18.66725	 -0.18004	 30.84942	707.71802	 35.80	
  6.795	-138.383	 30.34589	 10.78108	 19.99744	 10.67989	 20.06450	 -0.21293	 30.84995	707.54999	 35.80	
  6.792	-124.591	 30.29183	 11.86689	 18.72662	  9.73999	 21.00820	 -0.22869	 30.80474	707.67200	 35.90	
  6.787	-110.754	 30.29133	 13.24386	 17.32588	  9.05667	 21.70098	 -0.26303	 30.80429	707.60999	 35.90	
  6.800	-96.985	 30.28255	 14.75330	 15.77423	  8.66373	 22.08516	 -0.29600	 30.79304	707.63898	 35.90	
  6.800	-83.015	 30.27602	 16.36405	 14.09580	  8.60770	 22.09486	 -0.25562	 30.78732	707.69397	 36.00	
  6.787	-69.246	 30.28511	 17.84999	 12.52681	  8.94794	 21.70791	 -0.33256	 30.78356	707.63397	 36.00	
  6.792	-55.409	 30.27577	 19.28670	 11.04838	  9.60871	 20.92989	 -0.33200	 30.76445	707.75299	 36.00	
  6.795	-41.617	 30.28015	 20.43506	 10.06191	 10.52494	 19.85573	 -0.31350	 30.75603	707.71503	 36.10	
  6.808	-27.689	 30.30881	 21.35476	  9.26377	 11.83018	 18.47817	 -0.28142	 30.78014	707.73700	 36.10	
  6.796	-13.771	 30.32774	 21.95569	  8.79686	 13.32943	 17.08517	 -0.26726	 30.79056	707.64001	 36.10	
  6.800	  0.000	 30.37400	 22.20088	  8.65341	 14.93223	 15.56670	 -0.22843	 30.80281	707.71002	 36.10	
  6.796	 13.771	 30.34983	 22.04019	  8.79151	 16.58856	 13.92668	 -0.19106	 30.79415	707.61499	 36.10	
  6.808	 27.689	 30.40978	 21.50618	  9.23507	 18.09473	 12.45929	 -0.22623	 30.83857	707.63098	 36.20	
  6.795	 41.617	 30.43972	 20.65883	 10.03813	 19.44432	 11.16229	 -0.20679	 30.83342	707.73401	 36.20	
  6.792	 55.409	 30.45645	 19.55602	 11.10556	 20.54734	 10.27358	 -0.19918	 30.86011	707.68201	 36.20	
  6.787	 69.246	 30.40278	 18.14348	 12.53443	 21.29516	  9.62820	 -0.19063	 30.81036	707.70599	 36.20	
  6.800	 83.015	 30.41202	 16.69028	 14.08220	 21.72148	  9.29634	 -0.23308	 30.82247	707.67200	 36.20	
  6.800	 96.985	 30.42751	 15.04211	 15.80519	 21.80503	  9.31205	 -0.18526	 30.81271	707.68799	 36.20	
  6.787	110.754	 30.42683	 13.55016	 17.34055	 21.38243	  9.66046	 -0.19153	 30.83973	707.66400	 36.20	
  6.792	124.591	 30.41750	 12.12958	 18.73653	 20.65016	 10.27672	 -0.20539	 30.85265	707.70203	 36.20	
  6.795	138.383	 30.45689	 10.92739	 20.04968	 19.59644	 11.26173	 -0.20056	 30.81799	707.76099	 36.20	
  6.808	152.311	 30.36397	 10.08590	 20.93637	 18.24795	 12.62522	 -0.13279	 30.81392	707.74402	 36.10	
  6.796	166.229	 30.39554	  9.65842	 21.54814	 16.75747	 14.11485	 -0.13054	 30.75974	707.80402	 36.10	
  8.491	168.704	 30.02762	  7.82190	 22.82526	 16.31864	 13.64653	 -0.43663	 30.88627	707.79102	 36.10	
  8.502	157.493	 30.02979	  8.26634	 22.28938	 18.03075	 12.04126	 -0.39600	 30.86499	707.83099	 36.10	
  8.494	146.194	 30.03491	  8.93383	 21.59764	 19.43735	 10.68421	 -0.26983	 30.90092	707.77600	 36.10	
  8.495	135.039	 30.11135	  9.80040	 20.61126	 20.74753	  9.57602	 -0.41820	 30.95016	707.77399	 36.00	
  8.487	123.723	 30.09560	 10.86410	 19.31306	 21.78908	  8.71873	 -0.44205	 30.89512	707.69098	 36.00	
  8.492	112.575	 30.11862	 12.33240	 17.79836	 22.49053	  8.12282	 -0.52002	 30.93696	707.74701	 35.90	
  8.510	101.220	 30.07646	 13.86616	 16.27155	 22.84664	  7.69067	 -0.48707	 30.86189	707.70203	 35.90	
  8.500	 90.000	 30.06635	 15.41331	 14.57267	 23.03741	  7.49862	 -0.48745	 30.87798	707.62903	 35.90	
  8.510	 78.780	 30.08277	 17.10567	 12.82533	 22.87961	  7.58615	 -0.49317	 30.84292	707.69098	 35.90	
  8.492	 67.425	 30.08355	 18.59344	 11.18438	 22.37417	  7.97651	 -0.49155	 30.89618	707.69598	 35.90	
  8.487	 56.277	 30.04931	 20.01719	  9.91556	 21.58884	  8.60540	 -0.40969	 30.85452	707.68799	 35.90	
  8.495	 44.961	 30.07960	 21.16029	  8.84106	 20.56420	  9.42334	 -0.39626	 30.85449	707.64001	 35.90	
  8.494	 33.806	 30.07255	 22.17030	  7.99798	 19.18571	 10.52292	 -0.43012	 30.80215	707.73901	 35.90	
  8.502	 22.507	 30.02340	 22.96712	  7.32786	 17.77867	 11.91486	 -0.47364	 30.86552	707.70203	 35.90	
  8.491	 11.296	 29.96098	 23.37356	  6.91130	 16.16325	 13.45263	 -0.43486	 30.78353	707.69397	 35.90	
  8.500	  0.000	 29.99034	 23.57248	  6.79245	 14.50550	 15.06292	 -0.45658	 30.84429	707.72101	 36.00	
  8.491	-11.296	 30.03310	 23.43455	  6.93704	 12.90975	 16.74512	 -0.48479	 30.91363	707.67401	 36.00	
  8.502	-22.507	 29.99948	 22.86694	  7.32045	 11.22758	 18.19856	 -0.52065	 30.82478	707.64203	 36.00	
  8.494	-33.806	 29.93085	 21.99431	  7.98626	  9.95036	 19.70616	 -0.52230	 30.79638	707.64203	 35.90	
  8.495	-44.961	 29.90347	 20.91627	  8.82542	  8.75159	 20.98139	 -0.55380	 30.78871	707.66699	 35.90	
  8.487	-56.277	 29.95300	 19.72058	  9.90384	  7.89402	 21.97929	 -0.56968	 30.79398	707.64001	 36.00	
  8.492	-67.425	 29.91981	 18.26566	 11.08725	  7.25283	 22.71738	 -0.60756	 30.83457	707.65002	 36.00	
  8.510	-78.780	 29.91452	 16.74877	 12.77889	  6.81388	 23.20538	 -0.58038	 30.84100	707.61700	 36.00	
  8.500	-90.000	 29.90676	 15.09479	 14.45279	  6.68335	 23.40965	 -0.59564	 30.83831	707.63098	 36.00	
  8.510	-101.220	 29.92013	 13.53305	 16.17837	  6.89417	 23.28373	 -0.54045	 30.84408	707.67401	 36.00	
  8.492	-112.575	 29.92966	 11.96059	 17.78102	  7.37509	 22.78830	 -0.48181	 30.86850	707.63202	 36.00	
  8.487	-123.723	 29.94419	 10.64282	 19.20153	  8.07734	 22.05436	 -0.42954	 30.86023	707.56097	 36.00	
  8.495	-135.039	 29.95129	  9.58529	 20.56151	  9.01269	 21.07251	 -0.40400	 30.87877	707.66302	 36.00	
  8.494	-146.194	 29.96830	  8.76555	 21.60863	 10.18471	 19.84631	 -0.42573	 30.87752	707.64801	 36.00	
  8.502	-157.493	 29.98123	  8.14300	 22.33684	 11.43462	 18.36416	 -0.42286	 30.88151	707.61798	 35.90	
  8.491	-168.704	 29.97708	  7.75778	 22.80983	 13.07137	 16.92143	 -0.41659	 30.87040	707.74402	 35.90	
  8.500	180.000	 30.02769	  7.64367	 23.01640	 14.73810	 15.34400	 -0.30029	 30.90137	707.60199	 35.90	
 10.200	180.000	 29.51188	  5.73178	 24.28097	 14.27872	 14.76536	 -0.66799	 30.91026	707.62598	 35.90	
 10.191	-170.497	 29.47834	  5.84351	 24.10487	 12.62068	 16.45606	 -0.68194	 30.88604	707.70599	 35.90	
 10.210	-161.034	 29.43288	  6.12873	 23.66423	 11.00037	 17.92409	 -0.69794	 30.86695	707.69000	 35.80	
 10.194	-151.526	 29.46210	  6.67319	 22.99087	  9.64667	 19.48771	 -0.68070	 30.91693	707.61499	 35.80	
 10.190	-142.105	 29.43451	  7.39715	 22.05552	  8.32949	 20.89608	 -0.66829	 30.88862	707.67401	 35.80	
 10.215	-132.646	 29.38686	  8.29677	 20.95087	  7.16436	 22.07008	 -0.65063	 30.86616	707.67902	 35.70	
 10.203	-123.092	 29.41047	  9.41954	 19.61728	  6.29619	 23.02935	 -0.65060	 30.87507	707.61298	 35.70	
 10.192	-113.678	 29.41845	 10.64894	 18.12781	  5.64460	 23.77760	 -0.70339	 30.85735	707.73602	 35.80	
 10.208	-104.249	 29.37517	 12.10323	 16.53804	  5.09621	 24.31911	 -0.78382	 30.82097	707.67401	 35.80	
 10.210	-94.801	 29.41807	 13.75078	 14.85893	  4.79463	 24.64783	 -0.83367	 30.86634	707.67499	 35.80	
 10.210	-85.199	 29.39860	 15.38988	 13.06036	  4.74069	 24.62917	 -0.85884	 30.84295	707.66400	 35.90	
 10.208	-75.751	 29.40244	 17.10834	 11.30059	  4.97599	 24.29873	 -0.87489	 30.83056	707.60999	 35.90	
 10.192	-66.322	 29.42048	 18.58317	  9.96772	  5.44075	 23.72246	 -0.88146	 30.83282	707.56702	 35.90	
 10.203	-56.908	 29.45035	 20.07609	  8.68312	  6.07871	 22.96845	 -0.87271	 30.86448	707.67902	 35.90	
 10.215	-47.354	 29.47354	 21.35044	  7.57469	  6.98236	 22.00224	 -0.82211	 30.87317	707.64203	 35.90	
 10.190	-37.895	 29.50523	 22.53569	  6.61215	  8.10360	 20.78722	 -0.76647	 30.88226	707.57501	 35.90	
 10.194	-28.474	 29.52401	 23.49921	  5.85598	  9.39919	 19.37735	 -0.73941	 30.88580	707.61499	 35.90	
 10.210	-18.966	 29.50123	 24.22069	  5.26434	 10.66600	 17.84263	 -0.72525	 30.85706	707.67999	 35.90	
 10.191	 -9.503	 29.55105	 24.65914	  4.95881	 12.27502	 16.34127	 -0.71796	 30.88694	707.65198	 35.80	
 10.200	  0.000	 29.56876	 24.85580	  4.82825	 14.01451	 14.54760	 -0.72199	 30.89984	707.66602	 35.80	
 10.191	  9.503	 29.59808	 24.76488	  4.92431	 15.66374	 12.95481	 -0.68719	 30.91193	707.65503	 35.80	
 10.210	 18.966	 29.66698	 24.41170	  5.32380	 17.38687	 11.35221	 -0.71012	 30.96843	707.66302	 35.80	
 10.194	 28.474	 29.59826	 23.66598	  5.88173	 18.84023	  9.97186	 -0.70678	 30.87435	707.67999	 35.70	
 10.190	 37.895	 29.60095	 22.79210	  6.57243	 20.29155	  8.76684	 -0.66268	 30.87220	707.68799	 35.70	
 10.215	 47.354	 29.58911	 21.61299	  7.54041	 21.53029	  7.70862	 -0.62850	 30.84771	707.69397	 35.60	
 10.203	 56.908	 29.59830	 20.34439	  8.68806	 22.51867	  6.84221	 -0.64199	 30.85442	707.65503	 35.70	
 10.192	 66.322	 29.62823	 18.97463	 10.00740	 23.36143	  6.27370	 -0.69311	 30.86402	708.01202	 35.70	
 10.208	 75.751	 29.63994	 17.48026	 11.50030	 23.98314	  5.83217	 -0.73543	 30.88189	707.65601	 35.70	
 10.210	 85.199	 29.63038	 15.79440	 13.16577	 24.30935	  5.60339	 -0.75552	 30.87764	707.62299	 35.80	
 10.210	 94.801	 29.59947	 14.15495	 14.90549	 24.31849	  5.62395	 -0.78420	 30.84835	707.67499	 35.80	
 10.208	104.249	 29.57397	 12.57180	 16.61521	 23.99791	  5.91531	 -0.78247	 30.82722	707.64801	 35.80	
 10.192	113.678	 29.55866	 10.97643	 18.12714	 23.48226	  6.34537	 -0.76793	 30.83649	707.59100	 35.80	
 10.203	123.092	 29.53874	  9.76094	 19.61536	 22.68995	  6.96383	 -0.72608	 30.84044	707.61798	 35.80	
 10.215	132.646	 29.51902	  8.59895	 20.99765	 21.74143	  7.81478	 -0.67822	 30.84636	707.61798	 35.80	
 10.190	142.105	 29.54399	  7.63351	 22.12253	 20.54188	  8.89007	 -0.63771	 30.88777	707.64203	 35.80	
 10.194	151.526	 29.53852	  6.88709	 22.98704	 19.06445	 10.09071	 -0.63533	 30.88984	707.69098	 35.80	
 10.210	161.034	 29.53861	  6.29216	 23.70321	 17.62586	 11.50371	 -0.65689	 30.89668	707.67499	 35.80	
 10.191	170.497	 29.52302	  5.90762	 24.11073	 15.96008	 13.15179	 -0.66180	 30.89531	707.71997	 35.80	
 11.899	171.783	 28.85247	  3.94464	 25.30940	 15.42321	 12.53182	 -0.91134	 30.87591	707.63397	 35.70	
 11.890	163.610	 28.87522	  4.32017	 24.91888	 17.04048	 10.85835	 -0.89337	 30.85653	707.56897	 35.70	
 11.889	155.445	 28.88028	  4.80796	 24.30947	 18.55047	  9.50259	 -0.87155	 30.87005	707.63098	 35.70	
 11.909	147.299	 28.85857	  5.41873	 23.50434	 20.13513	  8.23191	 -0.84933	 30.85497	707.63898	 35.70	
 11.902	139.148	 28.87556	  6.27140	 22.46129	 21.42864	  7.05552	 -0.87136	 30.85171	707.66699	 35.70	
 11.894	130.867	 28.90397	  7.34748	 21.32049	 22.59997	  6.04714	 -0.91275	 30.85129	707.58301	 35.70	
 11.897	122.732	 28.97067	  8.55365	 19.99400	 23.67300	  5.21140	 -0.97834	 30.88928	707.65900	 35.80	
 11.903	114.597	 29.00689	  9.82146	 18.51110	 24.50011	  4.58798	 -1.03104	 30.89928	707.65601	 35.80	
 11.893	106.346	 29.07878	 11.22205	 16.95283	 25.10772	  4.12392	 -1.05035	 30.94033	707.61798	 35.70	
 11.892	 98.155	 29.06629	 12.85683	 15.18478	 25.43937	  3.80783	 -1.05312	 30.90804	707.61798	 35.70	
 11.900	 90.000	 29.06215	 14.46918	 13.51492	 25.53207	  3.69687	 -1.03025	 30.89672	707.65900	 35.70	
 11.892	 81.845	 29.06586	 16.06383	 11.76358	 25.35275	  3.79220	 -1.00967	 30.87788	707.66400	 35.60	
 11.893	 73.654	 29.11649	 17.71647	 10.22539	 24.99363	  4.07831	 -0.97180	 30.92963	707.63098	 35.60	
 11.903	 65.403	 29.09892	 19.23073	  8.77667	 24.37593	  4.47911	 -0.93255	 30.92407	707.65198	 35.60	
 11.897	 57.268	 29.10777	 20.69499	  7.47649	 23.50956	  5.09568	 -0.86068	 30.93570	707.62402	 35.60	
 11.894	 49.133	 29.08396	 22.02701	  6.27024	 22.44342	  5.95391	 -0.82749	 30.92211	707.62903	 35.50	
 11.902	 40.852	 29.03129	 23.18698	  5.23444	 21.24560	  6.97776	 -0.87576	 30.87652	707.67102	 35.50	
 11.909	 32.701	 29.05923	 24.24093	  4.37900	 19.89362	  8.15726	 -0.93890	 30.93510	707.62299	 35.50	
 11.889	 24.555	 29.03214	 24.98910	  3.76821	 18.34528	  9.42124	 -0.95178	 30.89912	707.62903	 35.50	
 11.890	 16.390	 29.04298	 25.56792	  3.31564	 16.71889	 10.81491	 -0.94133	 30.91981	707.64203	 35.60	
 11.899	  8.217	 28.98135	 25.89782	  2.96219	 15.08056	 12.32864	 -0.93424	 30.88899	707.61700	 35.50	
 11.900	  0.000	 28.95718	 25.95940	  2.89792	 13.42653	 13.97790	 -0.94876	 30.86411	707.61700	 35.50	
 11.899	 -8.217	 28.96927	 25.83881	  3.03641	 11.64484	 15.66863	 -0.95466	 30.90863	707.70398	 35.60	
 11.890	-16.390	 28.99598	 25.46460	  3.35477	 10.20551	 17.40563	 -0.94801	 30.94851	707.66302	 35.60	
 11.889	-24.555	 28.97561	 24.82692	  3.82316	  8.80042	 18.91181	 -0.94118	 30.93302	707.60199	 35.60	
 11.909	-32.701	 28.93423	 24.00147	  4.43696	  7.41740	 20.39097	 -0.95568	 30.92512	707.66602	 35.50	
 11.902	-40.852	 28.93752	 22.93541	  5.31753	  6.24940	 21.74540	 -0.99711	 30.93106	707.56201	 35.50	
 11.894	-49.133	 28.95881	 21.73190	  6.28157	  5.16827	 22.89816	 -1.05413	 30.97591	707.68298	 35.50	
 11.897	-57.268	 28.91993	 20.40639	  7.38567	  4.22494	 23.89862	 -1.09263	 30.94663	707.64502	 35.40	
 11.903	-65.403	 28.91945	 18.92530	  8.70347	  3.50829	 24.73482	 -1.10649	 30.96789	707.58502	 35.40	
 11.893	-73.654	 28.91788	 17.40752	 10.11010	  3.02246	 25.36504	 -1.08007	 30.97654	707.64001	 35.30	
 11.892	-81.845	 28.89838	 15.71049	 11.61861	  2.76565	 25.73012	 -1.09042	 30.96012	707.63898	 35.30	
 11.900	-90.000	 28.86561	 14.04687	 13.38055	  2.66985	 25.86998	 -1.08168	 30.94778	707.62097	 35.30	
 11.892	-98.155	 28.88660	 12.37838	 15.12507	  2.89516	 25.75768	 -1.04934	 30.96481	707.57501	 35.20	
 11.893	-106.346	 28.81818	 10.80835	 16.80322	  3.24749	 25.35255	 -0.97980	 30.89945	707.61798	 35.20	
 11.903	-114.597	 28.84987	  9.44895	 18.43412	  3.81938	 24.77989	 -0.90775	 30.94235	707.64502	 35.20	
 11.897	-122.732	 28.77233	  8.17327	 19.88608	  4.53463	 23.92037	 -0.85514	 30.86805	707.69897	 35.20	
 11.894	-130.867	 28.80694	  7.01269	 21.29846	  5.39370	 22.94149	 -0.84653	 30.92801	707.68799	 35.30	
 11.902	-139.148	 28.80851	  6.00126	 22.43930	  6.46435	 21.80685	 -0.87701	 30.92662	707.62097	 35.30	
 11.909	-147.299	 28.83876	  5.19080	 23.50774	  7.72149	 20.53057	 -0.91395	 30.94278	707.67102	 35.30	
 11.889	-155.445	 28.88017	  4.62381	 24.37363	  9.09427	 19.03531	 -0.92787	 30.97546	707.63702	 35.30	
 11.890	-163.610	 28.85920	  4.18867	 24.95630	 10.54145	 17.45426	 -0.93050	 30.92637	707.67401	 35.30	
 11.899	-171.783	 28.90033	  3.92247	 25.36809	 11.99093	 15.92289	 -0.92448	 30.95420	707.71802	 35.20	
 11.900	180.000	 28.95051	  3.82182	 25.52711	 13.80468	 14.22080	 -0.91140	 30.99388	707.68201	 35.20	
 13.600	180.000	 28.14548	  1.68571	 26.57554	 13.14226	 13.48875	 -1.12357	 30.94714	707.64801	 35.20	
 13.608	-172.853	 28.10158	  1.80764	 26.43593	 11.44508	 15.11188	 -1.11961	 30.90850	707.62598	 35.20	
 13.611	-165.583	 28.07339	  2.02252	 26.10999	  9.92580	 16.85279	 -1.13647	 30.91805	707.64203	 35.20	
 13.601	-158.353	 28.10162	  2.44751	 25.58367	  8.47383	 18.44135	 -1.14279	 30.95797	707.66400	 35.20	
 13.609	-151.210	 28.06204	  3.03628	 24.77243	  7.06507	 20.01098	 -1.13090	 30.92436	707.63098	 35.20	
 13.611	-143.999	 28.09797	  3.71477	 23.92402	  5.76766	 21.32843	 -1.09948	 30.99495	707.68701	 35.30	
 13.601	-136.825	 28.07551	  4.60055	 22.77550	  4.59363	 22.57662	 -1.04707	 30.96511	707.70203	 35.20	
 13.596	-129.640	 28.08893	  5.64196	 21.55025	  3.48825	 23.77932	 -1.01252	 30.97576	707.58197	 35.20	
 13.611	-122.431	 28.05261	  6.77690	 20.18460	  2.64392	 24.77835	 -1.02062	 30.93472	707.69598	 35.20	
 13.604	-115.211	 28.04733	  8.07956	 18.59694	  1.99513	 25.58794	 -1.06806	 30.90496	707.60999	 35.20	
 13.595	-108.042	 28.08504	  9.46142	 17.10408	  1.48573	 26.21796	 -1.13692	 30.93151	707.60199	 35.20	
 13.607	-100.793	 28.05049	 10.87209	 15.26310	  1.08539	 26.63487	 -1.18711	 30.89611	707.72101	 35.20	
 13.601	-93.617	 28.10120	 12.45726	 13.61200	  0.84827	 26.91922	 -1.21143	 30.94050	707.60999	 35.20	
 13.601	-86.383	 28.10022	 14.14434	 11.80711	  0.75518	 26.90179	 -1.20374	 30.92760	707.64001	 35.20	
 13.607	-79.207	 28.14312	 15.81224	 10.27808	  0.88461	 26.65918	 -1.19130	 30.94947	707.72803	 35.20	
 13.595	-71.958	 28.18527	 17.43143	  8.74150	  1.21284	 26.22495	 -1.20626	 30.97870	707.65900	 35.20	
 13.604	-64.789	 28.11699	 19.01412	  7.31552	  1.68295	 25.52583	 -1.22791	 30.90094	707.65503	 35.10	
 13.611	-57.569	 28.15097	 20.53313	  6.01152	  2.35001	 24.67260	 -1.23005	 30.91665	707.62598	 35.10	
 13.596	-50.360	 28.19848	 21.87086	  4.97378	  3.25834	 23.66190	 -1.21122	 30.93191	707.60199	 35.20	
 13.601	-43.175	 28.24413	 23.16561	  4.00881	  4.33418	 22.54685	 -1.17605	 30.95277	707.69098	 35.20	
 13.611	-36.001	 28.24584	 24.26679	  3.12027	  5.45464	 21.30421	 -1.14453	 30.94577	707.63702	 35.20	
 13.609	-28.790	 28.21524	 25.19274	  2.34761	  6.73004	 19.85513	 -1.10909	 30.89680	707.67102	 35.20	
 13.601	-21.647	 28.23064	 25.95835	  1.75804	  8.10025	 18.28253	 -1.12597	 30.89375	707.71503	 35.20	
 13.611	-14.417	 28.27268	 26.55820	  1.34802	  9.58815	 16.74871	 -1.14026	 30.93464	707.66699	 35.20	
 13.608	 -7.147	 28.26129	 26.87835	  1.07011	 11.06024	 14.96983	 -1.15227	 30.89205	707.71002	 35.20	
 13.600	  0.000	 28.34333	 27.07599	  0.96107	 12.77257	 13.34209	 -1.15494	 30.96103	707.67102	 35.20	
 13.608	  7.147	 28.30272	 26.96618	  0.97232	 14.41465	 11.69778	 -1.14913	 30.91835	707.64502	 35.20	
 13.611	 14.417	 28.31952	 26.70212	  1.15578	 16.07976	 10.21669	 -1.16692	 30.92780	707.68201	 35.20	
 13.601	 21.647	 28.33107	 26.17652	  1.60614	 17.70147	  8.78440	 -1.18188	 30.91761	707.59003	 35.20	
 13.609	 28.790	 28.35130	 25.49667	  2.17946	 19.19813	  7.50225	 -1.18038	 30.92361	707.73700	 35.20	
 13.611	 36.001	 28.35411	 24.58954	  2.96220	 20.70316	  6.24829	 -1.12446	 30.90712	707.68201	 35.20	
 13.601	 43.175	 28.40787	 23.56216	  3.86620	 22.07084	  5.11568	 -1.04484	 30.94795	707.60901	 35.20	
 13.596	 50.360	 28.36716	 22.28014	  4.90290	 23.21938	  4.13185	 -1.00930	 30.88725	707.64203	 35.20	
 13.611	 57.569	 28.41207	 20.92507	  6.12006	 24.34954	  3.28916	 -1.04583	 30.93709	707.67401	 35.20	
 13.604	 64.789	 28.39234	 19.47791	  7.41578	 25.19211	  2.64616	 -1.10784	 30.90937	707.73102	 35.30	
 13.595	 71.958	 28.44716	 17.92555	  8.87575	 25.88314	  2.20693	 -1.17634	 30.94478	707.67902	 35.30	
 13.607	 79.207	 28.41776	 16.34492	 10.33018	 26.34867	  1.89474	 -1.21347	 30.92364	707.62299	 35.30	
 13.601	 86.383	 28.43832	 14.74465	 11.95833	 26.62393	  1.75786	 -1.24130	 30.95820	707.68298	 35.30	
 13.601	 93.617	 28.43363	 13.08404	 13.74231	 26.64291	  1.79100	 -1.25243	 30.95501	707.72601	 35.20	
 13.607	100.793	 28.34492	 11.38376	 15.39593	 26.40118	  1.95205	 -1.25956	 30.89504	707.73901	 35.20	
 13.595	108.042	 28.33318	  9.96504	 17.11933	 25.99828	  2.30321	 -1.25170	 30.90972	707.61499	 35.20	
 13.604	115.211	 28.31131	  8.58936	 18.68022	 25.39484	  2.75902	 -1.21584	 30.91213	707.70398	 35.20	
 13.611	122.431	 28.26858	  7.25036	 20.22408	 24.54795	  3.42088	 -1.18201	 30.90800	707.69897	 35.20	
 13.596	129.640	 28.25112	  6.03584	 21.58225	 23.54010	  4.23160	 -1.12092	 30.92857	707.67102	 35.20	
 13.601	136.825	 28.23094	  4.96325	 22.79426	 22.37962	  5.19928	 -1.06307	 30.93577	707.75800	 35.30	
 13.611	143.999	 28.18977	  4.03446	 23.90965	 21.10901	  6.30197	 -1.03444	 30.92203	707.73602	 35.30	
 13.609	151.210	 28.20829	  3.26555	 24.87118	 19.60074	  7.56530	 -1.05312	 30.95168	707.75800	 35.20	
 13.601	158.353	 28.15876	  2.68094	 25.55562	 18.09260	  8.87619	 -1.06240	 30.89079	707.72601	 35.20	
 13.611	165.583	 28.15091	  2.14554	 26.15113	 16.47748	 10.22890	 -1.09240	 30.92181	707.71399	 35.20	
 13.608	172.853	 28.11225	  1.82274	 26.45165	 14.80208	 11.79304	 -1.11063	 30.89727	707.70398	 35.20	
 15.298	173.587	 27.28431	 -0.02764	 27.46603	 14.10933	 11.07472	 -1.24271	 30.91062	707.77899	 35.20	
 15.291	167.167	 27.31322	  0.19021	 27.16704	 15.81770	  9.61210	 -1.23752	 30.92403	707.85699	 35.20	
 15.307	160.676	 27.33574	  0.51675	 26.70331	 17.46391	  8.16423	 -1.22590	 30.95585	707.78497	 35.30	
 15.300	154.261	 27.33291	  1.02589	 26.01117	 18.98753	  6.81255	 -1.20332	 30.93769	707.76300	 35.20	
 15.288	147.854	 27.32806	  1.72183	 25.15045	 20.53824	  5.54166	 -1.19847	 30.91578	707.78400	 35.20	
 15.293	141.428	 27.35356	  2.59847	 24.11837	 21.89282	  4.34601	 -1.20154	 30.90960	707.81097	 35.20	
 15.299	134.985	 27.39202	  3.59980	 22.94642	 23.17583	  3.29642	 -1.24212	 30.92644	707.67102	 35.20	
 15.305	128.583	 27.46151	  4.67318	 21.72063	 24.37625	  2.36515	 -1.28088	 30.98191	707.75800	 35.20	
 15.309	122.142	 27.48167	  5.88010	 20.34042	 25.33447	  1.57698	 -1.31918	 30.94860	707.85699	 35.20	
 15.304	115.711	 27.48290	  7.18722	 18.78955	 26.14580	  0.96757	 -1.33966	 30.90797	707.87402	 35.10	
 15.297	109.291	 27.55245	  8.57302	 17.24686	 26.82649	  0.46579	 -1.35861	 30.96080	707.89801	 35.10	
 15.293	102.897	 27.57954	 10.03070	 15.54477	 27.29864	  0.12755	 -1.35258	 30.94934	707.86603	 35.10	
 15.293	 96.458	 27.61574	 11.52642	 13.88282	 27.57725	 -0.03925	 -1.35881	 30.94110	707.75800	 35.10	
 15.300	 90.000	 27.61931	 13.15142	 12.10830	 27.64003	 -0.10110	 -1.38043	 30.92774	707.80902	 35.10	
 15.293	 83.542	 27.60189	 14.81933	 10.47696	 27.49333	 -0.08183	 -1.39078	 30.89558	707.84198	 35.10	
 15.293	 77.103	 27.63007	 16.46537	  8.94921	 27.18138	  0.06302	 -1.36886	 30.92764	707.77899	 35.10	
 15.297	 70.709	 27.66105	 18.02477	  7.47143	 26.66647	  0.39233	 -1.35717	 30.94777	707.69397	 35.10	
 15.304	 64.289	 27.63206	 19.60510	  6.07229	 25.93690	  0.88494	 -1.27143	 30.91992	707.69800	 35.10	
 15.309	 57.858	 27.62611	 21.04036	  4.78034	 25.05822	  1.48302	 -1.20924	 30.91102	707.85199	 35.10	
 15.305	 51.417	 27.64493	 22.44441	  3.55892	 24.01006	  2.33594	 -1.18339	 30.93729	707.82300	 35.10	
 15.299	 45.015	 27.64934	 23.71467	  2.51127	 22.85599	  3.25656	 -1.20491	 30.96218	707.82501	 35.10	
 15.293	 38.572	 27.60640	 24.80705	  1.54579	 21.54354	  4.29148	 -1.27643	 30.92463	707.69800	 35.10	
 15.288	 32.146	 27.55338	 25.74866	  0.80997	 20.05440	  5.48247	 -1.33244	 30.87593	707.74701	 35.10	
 15.300	 25.739	 27.60936	 26.61199	  0.18679	 18.54534	  6.78085	 -1.35943	 30.96397	707.87903	 35.10	
 15.307	 19.324	 27.52244	 27.18802	 -0.31878	 16.98294	  8.09682	 -1.33600	 30.90166	707.83600	 35.10	
 15.291	 12.833	 27.50768	 27.64166	 -0.67361	 15.34746	  9.54928	 -1.32332	 30.91278	707.82800	 35.10	
 15.298	  6.413	 27.51624	 27.88512	 -0.79050	 13.72419	 11.01228	 -1.28906	 30.91461	707.82300	 35.10	
 15.300	  0.000	 27.54116	 27.98449	 -0.79337	 11.98308	 12.61316	 -1.30552	 30.95041	707.69598	 35.20	
 15.298	 -6.413	 27.49684	 27.82239	 -0.73309	 10.47659	 14.27138	 -1.29839	 30.92603	707.83600	 35.20	
 15.291	-12.833	 27.50746	 27.54644	 -0.53918	  8.93421	 15.95428	 -1.30298	 30.96087	707.79102	 35.10	
 15.307	-19.324	 27.48080	 27.03337	 -0.12947	  7.44941	 17.62006	 -1.26662	 30.94873	707.85797	 35.10	
 15.300	-25.739	 27.46343	 26.35468	  0.34392	  5.99982	 19.17762	 -1.24882	 30.95069	707.71399	 35.10	
 15.288	-32.146	 27.41592	 25.46938	  0.92642	  4.65274	 20.63049	 -1.22983	 30.90910	707.77899	 35.10	
 15.293	-38.572	 27.45152	 24.47753	  1.64754	  3.38839	 22.03515	 -1.24810	 30.96156	707.76099	 35.10	
 15.299	-45.015	 27.41130	 23.31068	  2.51540	  2.34746	 23.24095	 -1.25069	 30.95112	707.84698	 35.10	
 15.305	-51.417	 27.38836	 22.00042	  3.54501	  1.42924	 24.40141	 -1.25830	 30.95531	707.77899	 35.00	
 15.309	-57.858	 27.34418	 20.62219	  4.60831	  0.58882	 25.40969	 -1.24310	 30.94892	707.79102	 35.00	
 15.304	-64.289	 27.31329	 19.11460	  5.89039	 -0.09292	 26.22920	 -1.20083	 30.92427	707.75000	 35.00	
 15.297	-70.709	 27.29712	 17.47521	  7.29409	 -0.65460	 26.92062	 -1.18427	 30.94193	707.81201	 35.00	
 15.293	-77.103	 27.29637	 15.92865	  8.76057	 -1.02047	 27.44054	 -1.19114	 30.94955	707.78497	 35.00	
 15.293	-83.542	 27.29135	 14.26786	 10.34689	 -1.18004	 27.75435	 -1.15845	 30.94881	707.80402	 35.00	
 15.300	-90.000	 27.28763	 12.63026	 11.91798	 -1.14332	 27.84129	 -1.21493	 30.94382	707.81500	 35.00	
 15.293	-96.458	 27.27065	 11.02178	 13.67800	 -0.96775	 27.74595	 -1.23206	 30.93047	707.84100	 35.00	
 15.293	-102.897	 27.31149	  9.56416	 15.44697	 -0.73286	 27.52259	 -1.22770	 30.99589	707.87598	 35.00	
 15.297	-109.291	 27.28889	  8.11231	 17.12829	 -0.32426	 27.02213	 -1.19039	 30.99143	707.80402	 35.00	
 15.304	-115.711	 27.23748	  6.74399	 18.65612	  0.22697	 26.35119	 -1.16128	 30.95201	707.73102	 35.00	
 15.309	-122.142	 27.20892	  5.42711	 20.24569	  0.89722	 25.49342	 -1.12188	 30.94769	707.84100	 34.90	
 15.305	-128.583	 27.20543	  4.25670	 21.61368	  1.68025	 24.51006	 -1.12090	 30.95620	707.85199	 34.90	
 15.299	-134.985	 27.17263	  3.19778	 22.84732	  2.60976	 23.32997	 -1.12754	 30.90569	707.86298	 34.90	
 15.293	-141.428	 27.20769	  2.25477	 24.02229	  3.71929	 22.06926	 -1.17242	 30.92272	707.77899	 35.00	
 15.288	-147.854	 27.19680	  1.45972	 25.07325	  5.00274	 20.75124	 -1.19754	 30.91883	707.89801	 35.00	
 15.300	-154.261	 27.18414	  0.83812	 25.95685	  6.33685	 19.27419	 -1.20596	 30.91823	707.85498	 35.00	
 15.307	-160.676	 27.16785	  0.38231	 26.62318	  7.75697	 17.65262	 -1.19654	 30.89522	707.78198	 35.00	
 15.291	-167.167	 27.21704	  0.10640	 27.11434	  9.31036	 16.00504	 -1.16814	 30.89662	707.85999	 35.00	
 15.298	-173.587	 27.21449	 -0.07787	 27.43608	 10.84898	 14.37102	 -1.16632	 30.87191	707.78802	 35.00	
 15.300	180.000	 27.29871	 -0.10365	 27.59210	 12.38208	 12.72341	 -1.19115	 30.93730	707.76099	 35.00	
 17.000	180.000	 26.33378	 -1.87351	 28.39143	 11.70466	 11.89316	 -1.17821	 30.93392	707.73700	 35.00	
 16.990	-174.179	 26.27768	 -1.86686	 28.25282	 10.13615	 13.55919	 -1.12968	 30.89380	707.82501	 35.00	
 17.009	-168.383	 26.26866	 -1.73373	 28.03153	  8.58262	 15.21794	 -1.12850	 30.92517	707.75500	 35.00	
 17.000	-162.596	 26.25369	 -1.47309	 27.61683	  7.07451	 16.74240	 -1.12658	 30.94786	707.71503	 35.00	
 16.990	-156.759	 26.25432	 -1.05551	 26.98848	  5.60419	 18.42691	 -1.16587	 30.95021	707.78497	 35.00	
 16.995	-150.919	 26.25336	 -0.56624	 26.24884	  4.15811	 20.02941	 -1.19504	 30.97815	707.73901	 35.00	
 16.988	-145.161	 26.28208	  0.09300	 25.30634	  2.95114	 21.41337	 -1.21762	 30.98156	707.78802	 34.90	
 17.014	-139.343	 26.29699	  0.84519	 24.23072	  1.81734	 22.78653	 -1.20861	 31.01465	707.81201	 34.90	
 17.007	-133.546	 26.28444	  1.72129	 22.97344	  0.77119	 24.05559	 -1.19331	 31.00414	707.76099	 34.80	
 17.001	-127.699	 26.24248	  2.78120	 21.69439	 -0.14401	 25.12164	 -1.17560	 30.95036	707.77100	 34.80	
 17.006	-121.937	 26.29596	  3.98149	 20.28555	 -0.91080	 26.14186	 -1.18862	 30.99733	707.84198	 34.70	
 17.002	-116.134	 26.28546	  5.27166	 18.69833	 -1.54239	 26.94437	 -1.19221	 30.96112	707.73901	 34.70	
 17.001	-110.310	 26.34733	  6.66850	 17.06205	 -1.99345	 27.69124	 -1.19864	 31.02787	707.81702	 34.70	
 16.988	-104.517	 26.33689	  8.06499	 15.51558	 -2.31874	 28.13581	 -1.18258	 30.99154	707.71002	 34.70	
 17.008	-98.662	 26.32879	  9.56559	 13.72187	 -2.55688	 28.45201	 -1.15941	 30.95575	707.80902	 34.70	
 16.996	-92.909	 26.37212	 11.01978	 12.04419	 -2.73406	 28.63934	 -1.10766	 30.99286	707.83398	 34.70	
 16.996	-87.091	 26.34857	 12.58286	 10.45118	 -2.85527	 28.61392	 -1.07381	 30.96699	707.81702	 34.60	
 17.012	-81.253	 26.36605	 14.26899	  8.80221	 -2.76118	 28.45868	 -1.03872	 30.99357	707.81799	 34.70	
 16.988	-75.483	 26.36147	 15.88406	  7.27450	 -2.53964	 28.06020	 -1.02537	 30.94497	707.75201	 34.70	
 17.001	-69.690	 26.37437	 17.46807	  5.82743	 -2.26830	 27.54775	 -1.04268	 30.94403	707.79102	 34.70	
 17.002	-63.866	 26.41320	 19.06413	  4.45583	 -1.83762	 26.86395	 -1.06410	 30.96886	707.71198	 34.70	
 17.006	-58.063	 26.45706	 20.58311	  3.21434	 -1.18040	 26.04083	 -1.10363	 30.98724	707.76599	 34.70	
 17.001	-52.301	 26.47773	 21.91841	  2.20504	 -0.39943	 25.05330	 -1.21163	 30.93946	707.67401	 34.70	
 17.007	-46.454	 26.49151	 23.29096	  1.22177	  0.46297	 23.91701	 -1.22443	 30.95015	707.75500	 34.70	
 17.014	-40.657	 26.51931	 24.51583	  0.35042	  1.45555	 22.68730	 -1.23898	 30.96450	707.72900	 34.70	
 16.988	-34.839	 26.57895	 25.64360	 -0.36867	  2.59340	 21.37307	 -1.27248	 30.99510	707.77600	 34.70	
 16.995	-29.081	 26.58176	 26.53412	 -0.98721	  3.82709	 19.99900	 -1.27569	 30.96837	707.72302	 34.70	
 16.990	-23.241	 26.57000	 27.32223	 -1.55399	  5.26573	 18.38092	 -1.30065	 30.94985	707.71002	 34.70	
 17.000	-17.404	 26.60217	 27.96151	 -2.01409	  6.74973	 16.73798	 -1.32196	 30.96836	707.73401	 34.70	
 17.009	-11.617	 26.62465	 28.41064	 -2.35169	  8.23474	 15.16500	 -1.36347	 30.97302	707.71997	 34.60	
 16.990	 -5.821	 26.63294	 28.68645	 -2.54815	  9.75006	 13.51161	 -1.34258	 30.96566	707.73700	 34.70	
 17.000	  0.000	 26.67302	 28.81215	 -2.57547	 11.27957	 11.88451	 -1.34648	 30.98107	707.80298	 34.70	
 16.990	  5.821	 26.67068	 28.74190	 -2.54144	 12.87511	 10.33155	 -1.34797	 30.96634	707.79602	 34.70	
 17.009	 11.617	 26.67585	 28.56581	 -2.49384	 14.56520	  8.86792	 -1.34342	 30.98720	707.80902	 34.70	
 17.000	 17.404	 26.68849	 28.16614	 -2.19830	 16.21698	  7.38617	 -1.37004	 30.98820	707.85797	 34.70	
 16.990	 23.241	 26.73145	 27.61830	 -1.73895	 17.79587	  6.02101	 -1.41826	 30.98880	707.82501	 34.70	
 16.995	 29.081	 26.72623	 26.88230	 -1.19398	 19.31536	  4.69421	 -1.42645	 30.95911	707.85699	 34.70	
 16.988	 34.839	 26.75301	 26.02488	 -0.54607	 20.85192	  3.45889	 -1.41369	 30.97836	707.91998	 34.70	
 17.014	 40.657	 26.77420	 24.99515	  0.23674	 22.23071	  2.29305	 -1.35660	 30.98196	707.89001	 34.70	
 17.007	 46.454	 26.81734	 23.82547	  1.12580	 23.53228	  1.38899	 -1.30542	 30.99541	707.96503	 34.70	
 17.001	 52.301	 26.83517	 22.54672	  2.11565	 24.71981	  0.53970	 -1.29670	 31.01181	707.96802	 34.60	
 17.006	 58.063	 26.82041	 21.16933	  3.28353	 25.74836	 -0.22770	 -1.30187	 31.00414	707.87402	 34.60	
 17.002	 63.866	 26.85677	 19.71878	  4.64301	 26.66353	 -0.84130	 -1.33752	 31.03236	707.85498	 34.50	
 17.001	 69.690	 26.78809	 18.08003	  5.99780	 27.33020	 -1.32254	 -1.39132	 30.96252	707.81702	 34.50	
 16.988	 75.483	 26.79106	 16.55112	  7.48641	 27.89445	 -1.67512	 -1.39573	 30.96497	707.90802	 34.50	
 17.012	 81.253	 26.76319	 14.96587	  8.99614	 28.25601	 -1.92433	 -1.38338	 30.95599	707.91998	 34.50	
 16.996	 87.091	 26.77989	 13.25124	 10.55922	 28.44631	 -1.94004	 -1.35499	 30.95831	707.91901	 34.50	
 16.996	 92.909	 26.71462	 11.61476	 12.16484	 28.43844	 -1.91032	 -1.29123	 30.91709	707.87598	 34.60	
 17.008	 98.662	 26.73666	 10.15332	 13.92381	 28.36305	 -1.85158	 -1.25984	 30.98640	707.87299	 34.60	
 16.988	104.517	 26.71035	  8.64532	 15.59941	 28.03932	 -1.58507	 -1.25183	 30.98210	707.93799	 34.60	
 17.001	110.310	 26.62069	  7.18207	 17.11059	 27.50989	 -1.25776	 -1.28000	 30.93174	707.84900	 34.60	
 17.002	116.134	 26.62973	  5.80225	 18.81540	 26.90394	 -0.82386	 -1.32256	 31.00323	707.91901	 34.60	
 17.006	121.937	 26.56109	  4.47470	 20.36695	 26.04344	 -0.22466	 -1.31141	 30.96397	707.90002	 34.60	
 17.001	127.699	 26.51443	  3.26729	 21.70510	 25.03501	  0.51849	 -1.29409	 30.92249	707.90802	 34.60	
 17.007	133.546	 26.51513	  2.12153	 23.05637	 23.95728	  1.27008	 -1.27014	 30.99401	707.91400	 34.60	
 17.014	139.343	 26.49361	  1.13450	 24.29841	 22.70362	  2.33103	 -1.25796	 31.00133	707.86798	 34.60	
 16.988	145.161	 26.45337	  0.35840	 25.37352	 21.33171	  3.47609	 -1.24992	 30.98257	707.79602	 34.60	
 16.995	150.919	 26.41671	 -0.30708	 26.26580	 19.86901	  4.68985	 -1.24056	 30.96346	707.86603	 34.60	
 16.990	156.759	 26.42327	 -0.89155	 27.08413	 18.31449	  5.99980	 -1.24404	 30.99228	707.79498	 34.50	
 17.000	162.596	 26.38567	 -1.37208	 27.68241	 16.73105	  7.35591	 -1.23657	 30.97376	707.91400	 34.60	
 17.009	168.383	 26.38528	 -1.66299	 28.11338	 15.08304	  8.82834	 -1.22504	 30.97393	707.78198	 34.60	
 16.990	174.179	 26.39589	 -1.79945	 28.36221	 13.35282	 10.31012	 -1.19940	 30.98166	707.86499	 34.50	
 18.709	174.675	 25.29681	 -3.70743	 29.10518	 12.50812	  9.53059	 -1.10051	 30.97471	707.86298	 34.50	
 18.703	169.441	 25.30979	 -3.54954	 28.91146	 14.19916	  8.04258	 -1.13686	 30.99297	707.92499	 34.50	
 18.691	164.085	 25.28591	 -3.23605	 28.46185	 15.89608	  6.54706	 -1.17771	 30.94064	707.89600	 34.50	
 18.706	158.818	 25.33000	 -2.83089	 27.95383	 17.51607	  5.15215	 -1.20035	 30.98359	707.86603	 34.50	
 18.695	153.537	 25.34753	 -2.28384	 27.24643	 18.99530	  3.84918	 -1.21354	 30.97231	707.90002	 34.50	
 18.704	148.255	 25.35413	 -1.68305	 26.39711	 20.54317	  2.58224	 -1.25464	 30.96092	707.88702	 34.50	
 18.698	142.952	 25.39047	 -0.97816	 25.39733	 21.96957	  1.44625	 -1.35206	 31.00596	707.87299	 34.60	
 18.699	137.625	 25.42363	 -0.16024	 24.27690	 23.25924	  0.51528	 -1.35972	 31.00391	707.96002	 34.60	
 18.705	132.343	 25.44230	  0.76720	 23.01797	 24.49511	 -0.38369	 -1.35561	 30.99419	707.94397	 34.60	
 18.713	127.067	 25.48380	  1.80482	 21.69158	 25.61992	 -1.17871	 -1.34768	 30.99378	707.87299	 34.50	
 18.700	121.794	 25.55394	  2.99484	 20.28683	 26.59562	 -1.81542	 -1.32888	 31.02410	707.89001	 34.50	
 18.698	116.504	 25.62635	  4.30749	 18.76623	 27.45109	 -2.39465	 -1.31202	 31.05561	707.84698	 34.60	
 18.707	111.165	 25.62691	  5.66575	 17.13771	 28.09414	 -2.89113	 -1.27172	 31.02094	707.90302	 34.50	
 18.690	105.863	 25.68982	  7.11384	 15.57091	 28.64399	 -3.26900	 -1.24057	 31.03162	707.91901	 34.50	
 18.696	100.583	 25.71507	  8.57784	 13.90923	 29.00089	 -3.55380	 -1.22917	 31.03255	707.90601	 34.50	
 18.700	 95.309	 25.73752	 10.10954	 12.20045	 29.17084	 -3.65141	 -1.24302	 30.99834	707.82599	 34.50	
 18.700	 90.000	 25.75090	 11.57773	 10.61072	 29.21387	 -3.73161	 -1.31483	 30.98488	707.85999	 34.50	
 18.700	 84.691	 25.77891	 13.20811	  9.06090	 29.14613	 -3.76666	 -1.38566	 31.01306	707.92798	 34.50	
 18.696	 79.417	 25.81695	 14.85302	  7.45511	 28.91005	 -3.62176	 -1.45357	 31.03782	707.92200	 34.50	
 18.690	 74.137	 25.81685	 16.47482	  5.94173	 28.46434	 -3.35896	 -1.49941	 31.01404	707.91901	 34.40	
 18.707	 68.835	 25.78828	 17.98946	  4.51607	 27.85312	 -2.94885	 -1.49665	 30.96986	707.99200	 34.50	
 18.698	 63.496	 25.84002	 19.56440	  3.12994	 27.14610	 -2.43423	 -1.50450	 31.00700	707.92200	 34.50	
 18.700	 58.206	 25.86392	 21.06140	  1.82316	 26.29875	 -1.83897	 -1.50297	 31.04768	707.92999	 34.50	
 18.713	 52.933	 25.84222	 22.44205	  0.81535	 25.24934	 -1.10481	 -1.50060	 31.01308	707.93903	 34.50	
 18.705	 47.657	 25.85803	 23.74411	 -0.10631	 24.12579	 -0.30088	 -1.52988	 31.03252	707.92798	 34.40	
 18.699	 42.375	 25.81940	 24.95684	 -1.03065	 22.82680	  0.60388	 -1.52685	 31.01665	707.97900	 34.40	
 18.698	 37.048	 25.82941	 26.04769	 -1.80676	 21.48542	  1.58521	 -1.53664	 31.03364	707.93903	 34.40	
 18.704	 31.745	 25.80553	 26.98740	 -2.50298	 20.00205	  2.73156	 -1.52813	 31.01975	707.92499	 34.40	
 18.695	 26.463	 25.77517	 27.76767	 -3.08604	 18.46237	  4.00971	 -1.50755	 31.01427	708.02698	 34.40	
 18.706	 21.182	 25.72766	 28.43083	 -3.64460	 16.90082	  5.33884	 -1.45208	 31.01134	707.97302	 34.40	
 18.691	 15.915	 25.75607	 28.96775	 -4.00141	 15.38752	  6.71292	 -1.42620	 31.07525	707.90802	 34.40	
 18.703	 10.559	 25.66689	 29.25686	 -4.21913	 13.62046	  8.13826	 -1.39739	 31.00285	707.97601	 34.40	
 18.709	  5.325	 25.70031	 29.47354	 -4.33049	 12.04671	  9.64557	 -1.38343	 31.03807	707.98499	 34.40	
 18.700	  0.000	 25.66722	 29.47444	 -4.34494	 10.54352	 11.14181	 -1.39308	 31.00076	707.94897	 34.40	
 18.709	 -5.325	 25.64472	 29.37222	 -4.26996	  8.94782	 12.74162	 -1.40162	 31.00080	708.00000	 34.30	
 18.703	-10.559	 25.62753	 29.15611	 -4.14421	  7.45596	 14.33483	 -1.40271	 31.02659	707.93903	 34.30	
 18.691	-15.915	 25.60979	 28.72321	 -3.82014	  5.88985	 16.00300	 -1.41692	 31.01527	707.91998	 34.30	
 18.706	-21.182	 25.59219	 28.18365	 -3.44634	  4.39788	 17.60925	 -1.41098	 31.02249	707.93103	 34.40	
 18.695	-26.463	 25.58613	 27.47367	 -2.93248	  3.04408	 19.12106	 -1.39071	 31.01676	707.93298	 34.40	
 18.704	-31.745	 25.57022	 26.61423	 -2.37202	  1.83279	 20.65796	 -1.35383	 31.02594	707.99500	 34.40	
 18.698	-37.048	 25.54422	 25.58862	 -1.69601	  0.66712	 22.00212	 -1.32503	 31.00626	707.92297	 34.40	
 18.699	-42.375	 25.54507	 24.46880	 -0.92678	 -0.39601	 23.32526	 -1.26934	 31.02992	707.93103	 34.40	
 18.705	-47.657	 25.47866	 23.21885	 -0.07239	 -1.37001	 24.50904	 -1.19951	 30.98996	707.94897	 34.40	
 18.713	-52.933	 25.47967	 21.86987	  0.92307	 -2.12373	 25.66116	 -1.10672	 31.03697	707.90802	 34.40	
 18.700	-58.206	 25.45870	 20.44187	  1.95953	 -2.70052	 26.63253	 -1.05501	 31.03778	707.94098	 34.40	
 18.698	-63.496	 25.39175	 18.94421	  3.06699	 -3.24029	 27.43110	 -0.98085	 31.01726	707.91400	 34.40	
 18.707	-68.835	 25.36410	 17.42730	  4.25773	 -3.76552	 28.14728	 -0.91541	 31.03859	708.00800	 34.30	
 18.690	-74.137	 25.36820	 15.84955	  5.68846	 -4.19695	 28.70405	 -0.91083	 31.05950	707.99500	 34.30	
 18.696	-79.417	 25.33255	 14.23229	  7.16063	 -4.48202	 29.08275	 -0.91605	 31.04042	707.91199	 34.30	
 18.700	-84.691	 25.29250	 12.59695	  8.75501	 -4.64053	 29.31182	 -0.94497	 31.01259	707.96997	 34.30	
 18.700	-90.000	 25.29021	 10.98717	 10.40210	 -4.64786	 29.39881	 -1.00082	 31.01619	707.99298	 34.30	
 18.700	-95.309	 25.28162	  9.52376	 11.95138	 -4.48725	 29.33657	 -1.04870	 31.01600	707.93103	 34.30	
 18.696	-100.583	 25.25471	  7.98649	 13.67731	 -4.26628	 29.10248	 -1.13249	 31.00356	707.96002	 34.30	
 18.690	-105.863	 25.25241	  6.55863	 15.37273	 -4.02833	 28.74720	 -1.18326	 31.02025	707.89502	 34.30	
 18.707	-111.165	 25.25425	  5.15221	 16.95179	 -3.63899	 28.24730	 -1.24169	 31.03659	707.95697	 34.30	
 18.698	-116.504	 25.25795	  3.76151	 18.60235	 -3.08952	 27.56492	 -1.27448	 31.04631	708.07001	 34.30	
 18.700	-121.794	 25.20585	  2.52987	 20.15323	 -2.53083	 26.69279	 -1.28878	 30.99698	708.03601	 34.30	
 18.713	-127.067	 25.22183	  1.43324	 21.63055	 -1.88925	 25.74803	 -1.26565	 31.02464	707.99500	 34.30	
 18.705	-132.343	 25.18945	  0.43489	 22.89060	 -1.06780	 24.61075	 -1.25279	 31.00327	707.98499	 34.30	
 18.699	-137.625	 25.18639	 -0.49395	 24.19320	 -0.10080	 23.37635	 -1.24429	 31.02602	707.97699	 34.30	
 18.698	-142.952	 25.21870	 -1.26869	 25.32867	  0.98571	 22.04402	 -1.21289	 31.02642	707.95398	 34.30	
 18.704	-148.255	 25.17805	 -1.96131	 26.29698	  2.17742	 20.59238	 -1.17094	 30.97870	707.94702	 34.30	
 18.695	-153.537	 25.18793	 -2.53314	 27.15621	  3.40389	 19.10433	 -1.13262	 30.99265	707.99200	 34.30	
 18.706	-158.818	 25.17645	 -3.00935	 27.86616	  4.77704	 17.50427	 -1.09016	 30.97312	707.99500	 34.30	
 18.691	-164.085	 25.21050	 -3.34902	 28.42838	  6.27634	 15.98350	 -1.07914	 30.98249	707.94598	 34.40	
 18.703	-169.441	 25.18689	 -3.61339	 28.79367	  7.78288	 14.35719	 -1.07420	 30.94126	707.92798	 34.40	
 18.709	-174.675	 25.22959	 -3.75114	 29.07147	  9.32270	 12.71079	 -1.10412	 30.98069	707.96802	 34.40	
 18.700	180.000	 25.27505	 -3.72080	 29.15083	 10.95602	 11.09001	 -1.14231	 30.98207	707.89600	 34.40	
 20.400	180.000	 24.08728	 -5.57011	 29.75581	 10.10544	 10.25224	 -1.01023	 30.96474	707.96802	 34.50	
 20.401	-175.153	 24.07080	 -5.49087	 29.66778	  8.53883	 11.79347	 -0.98089	 30.96164	708.04401	 34.50	
 20.407	-170.264	 24.02283	 -5.33829	 29.42141	  6.95757	 13.35769	 -0.96764	 30.92288	707.97601	 34.50	
 20.410	-165.423	 24.06356	 -5.14587	 29.10874	  5.43216	 15.03545	 -0.95216	 30.98400	707.93799	 34.50	
 20.392	-160.496	 23.97797	 -4.86104	 28.56382	  3.95664	 16.54124	 -0.97450	 30.92489	707.98901	 34.60	
 20.401	-155.705	 23.98895	 -4.43945	 27.91541	  2.68256	 18.07475	 -0.96231	 30.90777	708.00299	 34.60	
 20.405	-150.835	 23.99077	 -3.95333	 27.15039	  1.42664	 19.60387	 -1.00545	 30.92470	708.02802	 34.60	
 20.397	-145.903	 24.01474	 -3.30688	 26.22565	  0.23557	 21.08204	 -1.05992	 30.94100	708.04901	 34.60	
 20.392	-141.062	 24.00248	 -2.58369	 25.16821	 -0.89422	 22.49510	 -1.11988	 30.95546	707.98700	 34.70	
 20.396	-136.227	 24.00829	 -1.76153	 23.99663	 -1.82602	 23.81856	 -1.14817	 30.97339	708.03601	 34.70	
 20.408	-131.372	 23.98921	 -0.88936	 22.71436	 -2.67732	 25.03920	 -1.18538	 30.98828	708.09802	 34.70	
 20.410	-126.511	 24.03503	  0.11767	 21.43755	 -3.39051	 26.12449	 -1.23355	 30.99966	708.06500	 34.70	
 20.400	-121.604	 24.03335	  1.12369	 19.94995	 -4.07933	 27.09332	 -1.24455	 30.98991	708.10602	 34.70	
 20.403	-116.741	 24.11453	  2.30197	 18.40306	 -4.62857	 27.97402	 -1.24666	 31.06296	708.08099	 34.70	
 20.413	-111.900	 24.12435	  3.56597	 16.84173	 -5.21640	 28.67301	 -1.19594	 31.06640	708.03198	 34.60	
 20.398	-107.004	 24.10322	  4.94725	 15.22945	 -5.64114	 29.16896	 -1.12207	 31.02285	708.06201	 34.60	
 20.394	-102.132	 24.14049	  6.41467	 13.55950	 -5.88421	 29.59154	 -1.04453	 31.04281	708.08099	 34.50	
 20.403	-97.332	 24.15287	  7.86657	 11.93525	 -6.13416	 29.84844	 -0.95914	 31.04313	708.09802	 34.40	
 20.392	-92.440	 24.16183	  9.41136	 10.37156	 -6.36852	 29.96647	 -0.88259	 31.04239	708.06500	 34.40	
 20.392	-87.560	 24.14858	 10.88582	  8.70528	 -6.48515	 29.96607	 -0.85839	 31.03136	708.05103	 34.40	
 20.403	-82.668	 24.14761	 12.48123	  7.05193	 -6.39905	 29.78284	 -0.82424	 31.00809	708.09003	 34.40	
 20.394	-77.868	 24.18504	 14.07716	  5.53179	 -6.17044	 29.52519	 -0.84027	 31.03279	708.05200	 34.40	
 20.398	-72.996	 24.23762	 15.67910	  4.14931	 -5.77610	 29.09406	 -0.82638	 31.03475	708.11401	 34.40	
 20.413	-68.100	 24.23838	 17.19978	  2.87838	 -5.31996	 28.53199	 -0.83883	 31.01674	708.04303	 34.40	
 20.403	-63.259	 24.28336	 18.69544	  1.85416	 -4.83312	 27.86328	 -0.88269	 31.01422	707.99500	 34.40	
 20.400	-58.396	 24.33017	 20.16470	  0.77808	 -4.31206	 27.06275	 -0.95224	 31.02523	708.06201	 34.40	
 20.410	-53.489	 24.37017	 21.63753	 -0.31553	 -3.69643	 26.10059	 -1.01760	 31.04362	708.14398	 34.40	
 20.408	-48.628	 24.42101	 23.03930	 -1.32841	 -2.99888	 25.05164	 -1.09642	 31.07279	708.13300	 34.40	
 20.396	-43.773	 24.44110	 24.29352	 -2.24059	 -2.19420	 23.81816	 -1.17610	 31.03203	708.10199	 34.30	
 20.392	-38.938	 24.49414	 25.49338	 -3.05337	 -1.25823	 22.56112	 -1.24590	 31.07353	708.07300	 34.30	
 20.397	-34.097	 24.49319	 26.51463	 -3.70524	 -0.17381	 21.24101	 -1.29401	 31.06540	708.16400	 34.30	
 20.405	-29.165	 24.46238	 27.41792	 -4.33512	  1.00742	 19.75049	 -1.35960	 31.02575	708.13000	 34.30	
 20.401	-24.295	 24.46794	 28.20486	 -4.84023	  2.20916	 18.20318	 -1.36168	 31.01383	708.16498	 34.20	
 20.392	-19.504	 24.48846	 28.83828	 -5.26569	  3.52539	 16.65309	 -1.37204	 30.99495	708.16803	 34.20	
 20.410	-14.577	 24.48791	 29.34479	 -5.61661	  4.97490	 15.06450	 -1.34231	 30.98342	708.09399	 34.20	
 20.407	 -9.736	 24.51537	 29.73165	 -5.88442	  6.49487	 13.46936	 -1.34217	 31.00819	708.14899	 34.30	
 20.401	 -4.847	 24.54965	 29.96919	 -6.05788	  8.09625	 11.86983	 -1.31258	 31.01225	708.06702	 34.30	
 20.400	  0.000	 24.57970	 30.05592	 -6.14095	  9.64156	 10.34922	 -1.31118	 31.01467	708.08600	 34.30	
 20.401	  4.847	 24.60055	 30.03135	 -6.09841	 11.18741	  8.83502	 -1.29225	 31.02003	708.13800	 34.30	
 20.407	  9.736	 24.62945	 29.90100	 -5.99515	 12.72655	  7.31809	 -1.31305	 31.05560	708.05499	 34.30	
 20.410	 14.577	 24.64766	 29.61435	 -5.79082	 14.29795	  5.90707	 -1.31842	 31.05606	708.12201	 34.30	
 20.392	 19.504	 24.69971	 29.18960	 -5.47443	 15.99896	  4.50313	 -1.35396	 31.09153	708.08197	 34.30	
 20.401	 24.295	 24.67808	 28.56911	 -5.00987	 17.51500	  3.16321	 -1.36784	 31.02751	708.11401	 34.20	
 20.405	 29.165	 24.71129	 27.85768	 -4.45951	 19.03634	  1.96084	 -1.43495	 31.04450	708.00299	 34.20	
 20.397	 34.097	 24.77206	 27.01041	 -3.81328	 20.54523	  0.87117	 -1.46570	 31.06020	708.01599	 34.20	
 20.392	 38.938	 24.79923	 26.00575	 -3.09069	 21.98123	 -0.12409	 -1.49924	 31.06529	708.08398	 34.20	
 20.396	 43.773	 24.82547	 24.91959	 -2.31370	 23.31184	 -1.05171	 -1.53844	 31.07063	708.06500	 34.10	
 20.408	 48.628	 24.75506	 23.64375	 -1.45761	 24.49321	 -1.94428	 -1.55631	 30.99462	708.05701	 34.10	
 20.410	 53.489	 24.80445	 22.35433	 -0.49425	 25.66913	 -2.73251	 -1.55107	 31.02933	708.09802	 34.10	
 20.400	 58.396	 24.80153	 20.95582	  0.48655	 26.66666	 -3.42906	 -1.51497	 31.02228	708.08600	 34.10	
 20.403	 63.259	 24.78770	 19.48355	  1.60772	 27.55741	 -4.06018	 -1.48772	 31.01814	708.11298	 34.20	
 20.413	 68.100	 24.75146	 17.96404	  2.88834	 28.28103	 -4.59375	 -1.43522	 31.01165	708.15997	 34.20	
 20.398	 72.996	 24.76471	 16.42102	  4.32871	 28.91820	 -5.07876	 -1.38355	 31.03740	707.99500	 34.20	
 20.394	 77.868	 24.74992	 14.80480	  5.83098	 29.36478	 -5.36333	 -1.32481	 31.03222	708.03601	 34.20	
 20.403	 82.668	 24.75300	 13.22327	  7.38840	 29.68365	 -5.52823	 -1.24832	 31.04884	708.13300	 34.20	
 20.392	 87.560	 24.70657	 11.62716	  8.96024	 29.84854	 -5.60555	 -1.18724	 31.03813	708.09998	 34.20	
 20.392	 92.440	 24.70337	 10.12939	 10.55602	 29.88243	 -5.52308	 -1.11686	 31.04818	708.04901	 34.20	
 20.403	 97.332	 24.70367	  8.59099	 12.14603	 29.78288	 -5.36507	 -1.09699	 31.06606	708.04901	 34.20	
 20.394	102.132	 24.63265	  7.07806	 13.75201	 29.51542	 -5.20386	 -1.07461	 31.04270	708.05499	 34.10	
 20.398	107.004	 24.57688	  5.60833	 15.40778	 29.10784	 -4.94588	 -1.07752	 31.02400	708.05902	 34.10	
 20.413	111.900	 24.52094	  4.14663	 16.99051	 28.58382	 -4.55875	 -1.12481	 31.03027	708.18597	 34.10	
 20.403	116.741	 24.51042	  2.83513	 18.54678	 27.90358	 -4.00949	 -1.16230	 31.04117	708.11700	 34.10	
 20.400	121.604	 24.49279	  1.67210	 20.10608	 27.10371	 -3.44455	 -1.22998	 31.05524	708.13599	 34.10	
 20.410	126.511	 24.41675	  0.53746	 21.56609	 26.12020	 -2.79172	 -1.24473	 31.04430	708.06500	 34.20	
 20.408	131.372	 24.36871	 -0.49193	 22.89070	 25.00791	 -2.05102	 -1.28832	 31.03334	708.04700	 34.20	
 20.396	136.227	 24.30102	 -1.42630	 24.13162	 23.79960	 -1.22226	 -1.29243	 30.99765	708.11603	 34.20	
 20.392	141.062	 24.35539	 -2.23960	 25.32136	 22.52810	 -0.27423	 -1.29770	 31.03914	708.02502	 34.20	
 20.397	145.903	 24.35361	 -3.04139	 26.40833	 21.21729	  0.69016	 -1.29157	 31.08841	708.09399	 34.20	
 20.405	150.835	 24.28724	 -3.72466	 27.31940	 19.67638	  1.75253	 -1.25752	 31.07376	707.99200	 34.20	
 20.401	155.705	 24.27221	 -4.30684	 28.11702	 18.18776	  3.03666	 -1.22723	 31.09483	708.03497	 34.20	
 20.392	160.496	 24.27382	 -4.76209	 28.77176	 16.69226	  4.37813	 -1.15878	 31.10714	708.01099	 34.10	
 20.410	165.423	 24.21771	 -5.10706	 29.22926	 15.01302	  5.80600	 -1.14550	 31.06481	708.09198	 34.10	
 20.407	170.264	 24.17808	 -5.35124	 29.55958	 13.30005	  7.23083	 -1.10387	 31.04323	707.96301	 34.10	
 20.401	175.153	 24.16350	 -5.52407	 29.74704	 11.74020	  8.77683	 -1.05256	 31.03161	708.07001	 34.10	
  0.141	 45.000	 31.03437	 16.72421	 15.71936	 15.83806	 16.40666	  0.21959	 30.99640	708.08099	 34.10	
  4.001	128.691	 30.99910	 13.92329	 18.00842	 18.75034	 13.15581	  0.12645	 31.06582	708.05103	 34.10	
  4.002	 76.995	 30.97641	 17.27455	 14.76500	 19.45673	 12.37457	  0.11600	 31.03572	708.05499	 34.10	
  4.002	 25.892	 30.96571	 19.84129	 11.88176	 17.31686	 14.52180	  0.11385	 31.03168	708.15601	 34.10	
  4.002	-25.892	 30.97221	 19.76546	 11.97598	 13.82623	 17.83224	  0.08511	 31.04668	708.05103	 34.10	
  4.002	-76.995	 30.97693	 17.16278	 14.69512	 11.66608	 20.02675	  0.07313	 31.07499	708.04102	 34.10	
  4.001	-128.691	 30.98736	 13.83825	 18.02849	 12.51237	 19.26249	  0.11029	 31.08496	707.98901	 34.10	
  4.000	180.000	 30.98510	 12.44627	 19.56793	 15.58534	 16.26936	  0.12389	 31.06599	708.07300	 34.10	
  8.000	180.000	 30.33462	  8.25347	 22.75200	 14.93883	 15.57610	 -0.25440	 31.09066	708.04102	 34.00	
  7.991	-152.370	 30.31330	  8.99790	 21.89423	 11.26555	 19.05544	 -0.32522	 31.09306	708.14099	 34.00	
  7.997	-124.550	 30.29395	 10.99062	 19.29560	  8.68514	 21.92222	 -0.33325	 31.09086	708.08197	 33.90	
  8.006	-96.837	 30.29030	 14.43862	 15.78355	  7.43878	 23.19428	 -0.46143	 31.09103	708.18597	 33.90	
  7.988	-69.228	 30.33761	 18.18456	 11.82944	  7.78891	 22.78305	 -0.52378	 31.15353	708.13599	 33.80	
  7.997	-41.563	 30.32233	 21.23962	  9.07668	  9.63178	 20.59090	 -0.47144	 31.07982	708.18402	 33.80	
  8.008	-13.821	 30.32154	 23.08041	  7.57882	 12.82821	 17.23573	 -0.38146	 31.06176	708.16199	 33.80	
  8.008	 13.821	 30.38838	 23.15911	  7.62881	 16.72228	 13.44824	 -0.36531	 31.03667	708.19397	 33.90	
  7.997	 41.563	 30.38116	 21.38907	  9.04691	 20.06565	 10.20777	 -0.32274	 31.06142	708.17297	 33.90	
  7.988	 69.228	 30.44045	 18.46146	 11.87863	 22.35098	  8.48313	 -0.37205	 31.09097	708.06500	 33.90	
  8.006	 96.837	 30.42237	 14.74107	 15.78859	 22.79130	  8.18099	 -0.36558	 30.99611	708.12402	 33.90	
  7.997	124.550	 30.35354	 11.22601	 19.31124	 21.53933	  9.35110	 -0.38080	 31.07939	708.09802	 33.90	
  7.991	152.370	 30.37107	  9.10446	 21.89923	 18.64878	 11.84353	 -0.20315	 31.09239	708.07300	 33.90	
 12.009	161.059	 29.01618	  4.32546	 25.02391	 17.69874	 10.42647	 -0.91538	 31.07323	708.07599	 33.90	
 12.013	142.081	 29.03006	  5.87770	 23.06405	 21.19493	  7.43773	 -0.87464	 31.07701	708.07800	 33.90	
 12.006	123.113	 29.07901	  8.44195	 20.21968	 23.80799	  5.16891	 -0.99573	 31.06643	708.11298	 33.90	
 12.007	104.200	 29.18418	 11.60536	 16.62152	 25.42483	  3.94220	 -1.08060	 31.10230	708.05902	 33.90	
 11.989	 85.301	 29.18019	 15.44045	 12.55538	 25.65042	  3.66877	 -1.03030	 31.05197	708.05499	 33.90	
 12.013	 66.294	 29.18264	 19.13511	  8.96009	 24.62256	  4.34227	 -0.94166	 31.06925	708.09998	 33.80	
 12.012	 47.388	 29.16500	 22.44385	  5.96349	 22.35579	  6.07410	 -0.85033	 31.06875	708.07300	 33.90	
 11.990	 28.440	 29.14497	 24.83500	  3.96097	 19.11191	  8.80948	 -0.96162	 31.06720	708.14001	 33.90	
 11.991	  9.464	 29.16395	 26.08546	  2.94628	 15.42649	 12.15452	 -0.96240	 31.11558	708.06500	 33.90	
 11.991	 -9.464	 29.10879	 25.98220	  3.03098	 11.44208	 16.02071	 -0.96231	 31.08283	708.14600	 33.90	
 11.990	-28.440	 29.07599	 24.63500	  4.01058	  8.11489	 19.76028	 -0.96619	 31.09601	708.05200	 33.90	
 12.012	-47.388	 29.01409	 22.12869	  6.00207	  5.30385	 22.80538	 -1.05914	 31.08241	708.03601	 33.80	
 12.013	-66.294	 28.94128	 18.82170	  8.81782	  3.34197	 24.95733	 -1.11917	 31.05327	708.04901	 33.80	
 11.989	-85.301	 28.93186	 15.04005	 12.38230	  2.57744	 25.98636	 -1.09916	 31.05948	708.01898	 33.80	
 12.007	-104.200	 28.91889	 11.17225	 16.47587	  3.00864	 25.68505	 -1.02143	 31.07034	708.05902	 33.90	
 12.006	-123.113	 28.88910	  8.05824	 20.12565	  4.48514	 24.06792	 -0.86869	 31.06703	708.10797	 33.90	
 12.013	-142.081	 28.88170	  5.58975	 22.98605	  6.83005	 21.48044	 -0.91908	 31.05912	708.10602	 33.90	
 12.009	-161.059	 28.90500	  4.19018	 24.94046	 10.03463	 18.02908	 -0.95167	 31.04559	708.05499	 33.90	
 16.000	180.000	 26.98214	 -0.83530	 28.00882	 12.10760	 12.46522	 -1.26778	 31.04782	708.08600	 33.80	
 15.990	-165.604	 26.95681	 -0.54589	 27.48676	  8.53409	 16.33751	 -1.23656	 31.07085	708.05902	 33.90	
 16.002	-151.165	 26.93592	  0.43426	 25.98047	  5.07353	 20.15717	 -1.27813	 31.10721	707.98499	 33.90	
 16.002	-136.836	 26.93866	  2.18069	 23.53285	  2.29976	 23.25607	 -1.23505	 31.09911	708.08197	 33.90	
 15.995	-122.439	 26.96564	  4.78309	 20.44410	  0.19059	 25.87959	 -1.20108	 31.12624	708.10602	 33.90	
 15.993	-107.966	 27.00808	  7.92002	 16.70697	 -1.26094	 27.63028	 -1.26684	 31.15231	708.08899	 33.80	
 16.005	-93.629	 27.01565	 11.38760	 12.68605	 -1.81036	 28.31129	 -1.24026	 31.10766	708.07800	 33.80	
 15.992	-79.234	 26.99970	 15.20929	  8.94845	 -1.75584	 27.99831	 -1.14822	 31.05797	708.07300	 33.80	
 16.009	-64.774	 26.99615	 18.91744	  5.50593	 -0.90290	 26.69158	 -1.21206	 31.02355	708.15698	 33.80	
 15.997	-50.364	 27.13509	 22.36076	  2.78013	  0.88803	 24.54074	 -1.28588	 31.07644	708.03601	 33.80	
 15.997	-36.045	 27.16088	 25.18680	  0.69011	  3.20808	 21.68600	 -1.31173	 31.07711	708.05200	 33.80	
 16.000	-21.597	 27.19739	 27.19481	 -0.68694	  6.40915	 18.20114	 -1.35362	 31.07064	707.98901	 33.90	
 16.003	 -7.169	 27.22998	 28.25831	 -1.49713	  9.95236	 14.32608	 -1.38604	 31.06593	708.05902	 33.80	
 16.003	  7.169	 27.31837	 28.39502	 -1.53681	 13.70889	 10.63231	 -1.38428	 31.14035	708.01099	 33.80	
 16.000	 21.597	 27.34971	 27.47666	 -0.88235	 17.55100	  7.19718	 -1.45767	 31.12587	708.03198	 33.80	
 15.997	 36.045	 27.38491	 25.59278	  0.57123	 21.13589	  4.16640	 -1.41504	 31.10692	708.14899	 33.70	
 15.997	 50.364	 27.43189	 22.91653	  2.73905	 24.13549	  1.79830	 -1.29336	 31.12342	708.07300	 33.70	
 16.009	 64.774	 27.40684	 19.57038	  5.66203	 26.43698	  0.13708	 -1.36355	 31.09460	708.01099	 33.70	
 15.992	 79.234	 27.41250	 15.87030	  9.10248	 27.78595	 -0.69612	 -1.45063	 31.08924	708.07300	 33.60	
 16.005	 93.629	 27.36588	 11.94502	 12.85873	 28.09932	 -0.80413	 -1.41624	 31.08386	708.07300	 33.60	
 15.993	107.966	 27.27764	  8.46785	 16.77017	 27.36262	 -0.32718	 -1.39761	 31.07242	708.12402	 33.60	
 15.995	122.439	 27.17839	  5.24783	 20.50263	 25.62792	  0.95014	 -1.38876	 31.05128	708.07800	 33.70	
 16.002	136.836	 27.08553	  2.54086	 23.56123	 23.05705	  2.92211	 -1.30934	 31.04785	708.02002	 33.70	
 16.002	151.165	 27.02385	  0.61960	 25.98712	 19.82956	  5.63879	 -1.29372	 31.04508	708.00800	 33.70	
 15.990	165.604	 27.03823	 -0.45620	 27.52831	 16.14999	  8.87857	 -1.29654	 31.06332	708.03601	 33.80	
 20.003	168.362	 24.45679	 -4.86454	 29.30149	 14.06685	  6.94034	 -1.14717	 31.03693	708.07599	 33.80	
 20.008	156.764	 24.53008	 -4.01158	 28.15282	 17.92875	  3.65764	 -1.24193	 31.07059	708.00000	 33.80	
 20.000	145.147	 24.63684	 -2.51573	 26.19119	 21.45713	  0.87923	 -1.32224	 31.09243	708.09399	 33.80	
 19.995	133.545	 24.65591	 -0.56447	 23.49609	 24.45999	 -1.32221	 -1.31282	 31.07143	708.01099	 33.80	
 20.009	121.926	 24.75038	  1.84756	 20.30348	 26.95671	 -3.06504	 -1.25665	 31.09257	708.05499	 33.80	
 20.005	110.327	 24.83860	  4.92203	 16.63050	 28.65635	 -4.29766	 -1.13584	 31.05860	708.06799	 33.80	
 19.989	 98.733	 24.93641	  8.35296	 12.79630	 29.57886	 -4.94030	 -1.12999	 31.05568	708.01703	 33.70	
 19.999	 87.075	 25.01102	 11.92631	  9.11897	 29.72020	 -5.11031	 -1.23419	 31.06040	708.00098	 33.70	
 19.992	 75.457	 25.04227	 15.69730	  5.48071	 29.07056	 -4.73477	 -1.39501	 31.06385	708.00500	 33.70	
 20.009	 63.844	 25.10058	 19.35496	  2.12839	 27.61827	 -3.70054	 -1.52216	 31.07783	708.06000	 33.80	
 19.989	 52.269	 25.11471	 22.68784	 -0.34101	 25.38907	 -2.14591	 -1.55572	 31.07314	708.03198	 33.80	
 19.999	 40.602	 25.10688	 25.61246	 -2.46626	 22.48567	 -0.11462	 -1.54411	 31.11607	708.05902	 33.80	
 20.004	 29.051	 25.01576	 27.81508	 -4.10020	 19.09448	  2.29794	 -1.45172	 31.09652	708.12097	 33.80	
 20.005	 17.433	 24.92939	 29.26107	 -5.25556	 15.44063	  5.36435	 -1.35610	 31.06838	708.00897	 33.80	
 20.006	  5.780	 24.88287	 29.92883	 -5.70183	 11.68490	  8.76586	 -1.33121	 31.06185	708.04901	 33.80	
 20.006	 -5.780	 24.86702	 29.86073	 -5.60042	  8.05420	 12.38895	 -1.34702	 31.07613	708.03900	 33.80	
 20.005	-17.433	 24.79682	 29.02353	 -5.04664	  4.41946	 16.10756	 -1.37520	 31.05164	707.95398	 33.80	
 20.004	-29.051	 24.73761	 27.39124	 -3.95887	  1.38507	 19.75038	 -1.36030	 31.03909	708.02802	 33.80	
 19.999	-40.602	 24.74607	 25.07374	 -2.41392	 -1.24111	 22.97810	 -1.24797	 31.06738	708.00098	 33.80	
 19.989	-52.269	 24.70116	 22.03023	 -0.22619	 -3.11299	 25.81884	 -1.10012	 31.10051	708.00800	 33.80	
 20.009	-63.844	 24.59267	 18.59930	  2.26013	 -4.51255	 27.90032	 -0.92078	 31.07491	708.04700	 33.80	
 19.992	-75.457	 24.50762	 15.02752	  5.20553	 -5.46868	 29.20416	 -0.84094	 31.03844	708.01599	 33.80	
 19.999	-87.075	 24.42033	 11.25315	  8.75728	 -6.00519	 29.81068	 -0.88663	 31.01763	708.01703	 33.90	
 19.989	-98.733	 24.46238	  7.72987	 12.58216	 -5.64573	 29.68931	 -1.01719	 31.07222	708.08899	 33.90	
 20.005	-110.327	 24.41514	  4.33857	 16.40270	 -5.01124	 28.78770	 -1.17919	 31.08270	708.05200	 33.90	
 20.009	-121.926	 24.36114	  1.40891	 20.10108	 -3.71725	 27.03985	 -1.27772	 31.05903	708.08398	 33.90	
 19.995	-133.545	 24.33806	 -0.95615	 23.34159	 -1.98531	 24.52119	 -1.21760	 31.05819	708.04303	 33.90	
 20.000	-145.147	 24.40854	 -2.81520	 26.06221	  0.38139	 21.47618	 -1.09727	 31.07420	708.07599	 33.90	
 20.008	-156.764	 24.35744	 -4.17518	 28.07425	  3.25234	 17.93220	 -1.01993	 31.05424	708.08899	 33.90	
 20.003	-168.362	 24.35843	 -4.91547	 29.26254	  6.63454	 14.18318	 -1.01126	 31.02602	707.97900	 33.90	
 20.000	180.000	 24.45478	 -5.16244	 29.72529	 10.33598	 10.51287	 -1.07202	 31.08470	708.04401	 33.80	
