FileType=PCF
NHL=14
Date=10/23/18	15:01:55
Facility=APL
Serial=16328-5
Customer=NASA
NP=6
Mach=0.200000
Calibration=1:1
CalPts=490
TstPts=95
PortNumbering=AP Standard
Units=Torr C m/s kg/m^3 deg mm 
Theta[deg]	Phi[deg]	P1[Torr]	P2[Torr]	P3[Torr]	P4[Torr]	P5[Torr]	P6[Torr]	Pt[Torr]	Ps[Abs,Torr]	Ts[C]	
  0.000	  0.000	 19.64730	 10.35521	  9.81516	  9.86027	 10.21967	  0.12308	 19.63184	707.94598	 31.40	
  1.691	128.401	 19.64370	  9.70472	 10.43212	 10.64817	  9.45177	  0.11249	 19.62689	707.91101	 31.50	
  1.692	 77.194	 19.65357	 10.58252	  9.61611	 10.84155	  9.28344	  0.11587	 19.64619	707.91199	 31.50	
  1.699	 26.182	 19.66357	 11.26300	  8.98122	 10.28293	  9.75308	  0.11050	 19.64643	708.05103	 31.50	
  1.699	-26.182	 19.64983	 11.23947	  8.97230	  9.42849	 10.62913	  0.10397	 19.63993	708.00500	 31.50	
  1.692	-77.194	 19.64099	 10.52700	  9.58067	  8.90024	 11.19160	  0.09595	 19.62765	707.94702	 31.50	
  1.691	-128.401	 19.62469	  9.67778	 10.40366	  9.09485	 10.97188	  0.09898	 19.61084	707.09998	 31.60	
  1.700	180.000	 19.64429	  9.31917	 10.83093	  9.83817	 10.19479	  0.11330	 19.63209	707.90002	 31.60	
  3.400	180.000	 19.61382	  8.23729	 11.83170	  9.79529	 10.11169	  0.07980	 19.63917	707.97302	 31.60	
  3.388	-152.325	 19.64410	  8.47103	 11.60095	  8.92023	 11.08016	  0.07440	 19.66669	707.72900	 31.60	
  3.397	-124.529	 19.62020	  9.07477	 10.88735	  8.19723	 11.82876	  0.06851	 19.64765	707.96198	 31.60	
  3.399	-96.763	 19.61314	  9.96408	  9.93443	  7.84039	 12.19946	  0.05173	 19.64516	707.94897	 31.60	
  3.394	-69.283	 19.60851	 10.91966	  9.06475	  7.93995	 12.05742	  0.04024	 19.63611	707.97601	 31.60	
  3.400	-41.398	 19.62393	 11.77513	  8.32254	  8.48221	 11.47400	  0.04848	 19.65001	707.89203	 31.50	
  3.401	-14.021	 19.65686	 12.29866	  7.89402	  9.30527	 10.60288	  0.05647	 19.68306	707.96198	 31.50	
  3.401	 14.021	 19.65953	 12.32773	  7.89371	 10.24007	  9.65638	  0.06351	 19.67955	708.00897	 31.50	
  3.400	 41.398	 19.63086	 11.83429	  8.32376	 11.12540	  8.85674	  0.06869	 19.64774	707.93799	 31.40	
  3.394	 69.283	 19.66770	 11.02286	  9.09961	 11.74696	  8.36637	  0.07689	 19.67345	707.93799	 31.40	
  3.399	 96.763	 19.66570	 10.05817	  9.97330	 11.88825	  8.26343	  0.07440	 19.67153	707.95203	 31.40	
  3.397	124.529	 19.64811	  9.16172	 10.89814	 11.52851	  8.58295	  0.08050	 19.66429	708.03497	 31.30	
  3.388	152.325	 19.62170	  8.48567	 11.58633	 10.74699	  9.26309	  0.07974	 19.63721	707.98102	 31.30	
  5.099	161.165	 19.52379	  7.32275	 12.59895	 10.67237	  9.09287	 -0.00839	 19.63706	707.97900	 31.40	
  5.109	142.013	 19.55890	  7.78310	 12.12122	 11.60734	  8.26928	 -0.00851	 19.66428	707.97900	 31.40	
  5.095	123.033	 19.54988	  8.52199	 11.29359	 12.33547	  7.61080	 -0.02367	 19.65041	707.98499	 31.40	
  5.105	104.191	 19.55385	  9.41221	 10.33621	 12.76730	  7.24014	 -0.01072	 19.64447	707.89801	 31.40	
  5.093	 85.207	 19.57005	 10.41669	  9.40346	 12.82903	  7.15395	 -0.02675	 19.65377	707.98901	 31.40	
  5.104	 66.290	 19.53832	 11.39340	  8.47509	 12.55568	  7.34555	 -0.01203	 19.63131	708.05200	 31.40	
  5.094	 47.331	 19.56063	 12.28786	  7.66067	 11.96654	  7.88314	 -0.00216	 19.66058	708.05701	 31.40	
  5.089	 28.397	 19.56670	 12.93427	  7.06929	 11.11069	  8.66037	 -0.01601	 19.67579	707.97699	 31.40	
  5.096	  9.576	 19.56331	 13.24855	  6.78023	 10.11628	  9.55220	 -0.02469	 19.67335	708.05701	 31.40	
  5.096	 -9.576	 19.53426	 13.22075	  6.74684	  9.15786	 10.45229	 -0.05031	 19.65480	707.97101	 31.40	
  5.089	-28.397	 19.52281	 12.85124	  7.05485	  8.23788	 11.42114	 -0.06558	 19.64129	707.97101	 31.40	
  5.094	-47.331	 19.52273	 12.18103	  7.63522	  7.44621	 12.29308	 -0.07851	 19.65642	707.94598	 31.40	
  5.104	-66.290	 19.51414	 11.29171	  8.44150	  6.90182	 12.86941	 -0.08508	 19.65241	707.91998	 31.40	
  5.093	-85.207	 19.51259	 10.29549	  9.35885	  6.68442	 13.13608	 -0.05250	 19.65112	707.97101	 31.40	
  5.105	-104.191	 19.52029	  9.31720	 10.31546	  6.78578	 13.05778	 -0.06095	 19.65902	707.99298	 31.40	
  5.095	-123.033	 19.51195	  8.41124	 11.28375	  7.18540	 12.63905	 -0.04347	 19.65043	707.98901	 31.40	
  5.109	-142.013	 19.54304	  7.73551	 12.09937	  7.84979	 11.94227	 -0.03552	 19.67293	707.95697	 31.40	
  5.099	-161.165	 19.51105	  7.28746	 12.60214	  8.73914	 10.97086	 -0.02481	 19.63895	708.02399	 31.40	
  5.100	180.000	 19.53529	  7.17324	 12.79699	  9.67909	  9.99694	  0.01359	 19.66045	707.93597	 31.40	
  6.800	180.000	 19.37989	  6.01350	 13.71586	  9.52302	  9.84179	 -0.12461	 19.67572	708.05200	 31.40	
  6.796	-166.229	 19.34248	  6.09302	 13.55766	  8.54982	 10.79340	 -0.13306	 19.63980	708.07599	 31.40	
  6.808	-152.311	 19.33676	  6.36669	 13.18948	  7.60024	 11.76450	 -0.14089	 19.65007	707.93903	 31.40	
  6.795	-138.383	 19.34425	  6.86825	 12.60316	  6.80018	 12.60996	 -0.14475	 19.66693	708.00800	 31.40	
  6.792	-124.591	 19.30677	  7.55128	 11.77171	  6.22479	 13.27682	 -0.15400	 19.63093	707.98499	 31.40	
  6.787	-110.754	 19.34776	  8.39546	 10.85758	  5.83988	 13.79368	 -0.17739	 19.67316	707.91498	 31.30	
  6.800	-96.985	 19.32243	  9.30346	  9.87283	  5.58792	 14.03096	 -0.20291	 19.64792	708.03601	 31.30	
  6.800	-83.015	 19.34164	 10.28594	  8.95930	  5.55916	 14.04707	 -0.21934	 19.66021	708.03302	 31.30	
  6.787	-69.246	 19.32564	 11.28452	  8.01388	  5.74824	 13.76078	 -0.22590	 19.64310	708.07599	 31.30	
  6.792	-55.409	 19.35391	 12.21415	  7.17856	  6.10320	 13.26398	 -0.21879	 19.66632	708.00897	 31.30	
  6.795	-41.617	 19.35275	 13.00467	  6.46003	  6.71675	 12.58106	 -0.20652	 19.66183	708.01898	 31.30	
  6.808	-27.689	 19.36643	 13.63798	  5.95941	  7.54138	 11.70341	 -0.18902	 19.66772	708.00299	 31.30	
  6.796	-13.771	 19.36635	 14.03716	  5.66997	  8.47396	 10.71909	 -0.18294	 19.65926	708.00299	 31.30	
  6.800	  0.000	 19.36141	 14.16307	  5.58631	  9.41750	  9.78673	 -0.16263	 19.64222	708.03497	 31.30	
  6.796	 13.771	 19.38299	 14.07313	  5.66067	 10.36855	  8.86976	 -0.14485	 19.66491	707.99701	 31.30	
  6.808	 27.689	 19.36493	 13.71457	  5.87382	 11.33805	  7.96800	 -0.15320	 19.63657	708.00098	 31.30	
  6.795	 41.617	 19.37294	 13.11531	  6.41394	 12.22586	  7.18613	 -0.14062	 19.63894	708.01703	 31.30	
  6.792	 55.409	 19.37646	 12.35752	  7.14856	 12.95202	  6.56977	 -0.12913	 19.64376	707.99701	 31.30	
  6.787	 69.246	 19.41459	 11.45382	  8.05589	 13.49003	  6.18821	 -0.15333	 19.67641	708.03302	 31.30	
  6.800	 83.015	 19.42088	 10.47556	  8.99482	 13.77097	  6.00697	 -0.15407	 19.67851	707.97601	 31.30	
  6.800	 96.985	 19.41044	  9.48982	  9.87567	 13.76673	  6.03263	 -0.15212	 19.66624	707.91199	 31.30	
  6.787	110.754	 19.40847	  8.52566	 10.87914	 13.52462	  6.23339	 -0.15282	 19.66711	707.96301	 31.30	
  6.792	124.591	 19.41752	  7.70195	 11.82169	 13.04301	  6.66222	 -0.14026	 19.68486	707.97302	 31.30	
  6.795	138.383	 19.38433	  6.99477	 12.59822	 12.32218	  7.27174	 -0.12745	 19.65856	708.01599	 31.30	
  6.808	152.311	 19.36636	  6.43185	 13.21533	 11.45839	  8.03890	 -0.08121	 19.65034	708.09399	 31.30	
  6.796	166.229	 19.39416	  6.13331	 13.59585	 10.50013	  8.95264	 -0.12884	 19.68142	708.00299	 31.20	
  8.491	168.704	 19.15583	  4.90301	 14.52049	 10.31086	  8.70396	 -0.27312	 19.69988	707.98401	 31.20	
  8.502	157.493	 19.16364	  5.14231	 14.21917	 11.32411	  7.77063	 -0.26613	 19.69808	707.92999	 31.20	
  8.494	146.194	 19.11007	  5.56580	 13.66380	 12.23505	  6.88181	 -0.26340	 19.64291	707.87903	 31.20	
  8.495	135.039	 19.14058	  6.19125	 12.97942	 13.06805	  6.15442	 -0.27879	 19.65954	707.95398	 31.20	
  8.487	123.723	 19.15288	  6.97223	 12.11110	 13.76772	  5.58573	 -0.29963	 19.66403	708.01599	 31.20	
  8.492	112.575	 19.16005	  7.78560	 11.18651	 14.26874	  5.18598	 -0.32021	 19.66300	707.95398	 31.20	
  8.510	101.220	 19.17315	  8.73091	 10.16060	 14.58931	  4.94642	 -0.31643	 19.66670	707.92798	 31.20	
  8.500	 90.000	 19.17592	  9.72990	  9.22242	 14.67558	  4.85138	 -0.31555	 19.66105	707.94598	 31.20	
  8.510	 78.780	 19.17446	 10.73425	  8.25940	 14.55391	  4.92092	 -0.31368	 19.66063	707.98102	 31.20	
  8.492	 67.425	 19.18711	 11.75852	  7.29166	 14.23453	  5.15127	 -0.29616	 19.67370	707.90601	 31.20	
  8.487	 56.277	 19.14573	 12.66508	  6.35757	 13.65513	  5.52073	 -0.26456	 19.63305	707.93799	 31.20	
  8.495	 44.961	 19.17190	 13.49788	  5.63193	 12.97692	  6.02877	 -0.26798	 19.66560	708.00000	 31.20	
  8.494	 33.806	 19.15524	 14.15109	  5.09255	 12.12854	  6.77566	 -0.29083	 19.65582	707.90802	 31.20	
  8.502	 22.507	 19.14720	 14.65817	  4.71595	 11.16212	  7.65133	 -0.29995	 19.66493	707.91199	 31.20	
  8.491	 11.296	 19.14224	 14.94867	  4.49068	 10.13647	  8.58252	 -0.29693	 19.66083	707.90802	 31.20	
  8.500	  0.000	 19.13989	 15.04923	  4.39886	  9.16787	  9.54180	 -0.31436	 19.67127	707.87598	 31.20	
  8.491	-11.296	 19.12437	 14.90231	  4.47171	  8.17876	 10.49593	 -0.32975	 19.66310	707.90802	 31.10	
  8.502	-22.507	 19.13764	 14.60104	  4.70073	  7.19705	 11.51301	 -0.34173	 19.68517	707.80298	 31.10	
  8.494	-33.806	 19.10582	 14.04245	  5.10546	  6.29728	 12.45341	 -0.34765	 19.66449	707.92999	 31.10	
  8.495	-44.961	 19.11923	 13.37078	  5.64293	  5.63561	 13.28209	 -0.37491	 19.68155	707.89600	 31.10	
  8.487	-56.277	 19.09527	 12.50881	  6.37038	  5.06340	 13.97281	 -0.39987	 19.66785	707.93597	 31.10	
  8.492	-67.425	 19.09752	 11.59241	  7.23839	  4.58178	 14.50255	 -0.41459	 19.67995	707.84698	 31.10	
  8.510	-78.780	 19.06940	 10.54639	  8.20066	  4.30408	 14.81996	 -0.40805	 19.65257	707.95502	 31.10	
  8.500	-90.000	 19.08106	  9.54413	  9.18802	  4.26504	 14.92927	 -0.38866	 19.67194	707.89600	 31.10	
  8.510	-101.220	 19.06248	  8.53492	 10.12050	  4.35682	 14.83099	 -0.36766	 19.65291	708.08197	 31.10	
  8.492	-112.575	 19.10053	  7.64380	 11.16144	  4.67287	 14.52775	 -0.33267	 19.68766	707.89600	 31.10	
  8.487	-123.723	 19.07598	  6.79084	 12.09208	  5.15979	 14.02096	 -0.29737	 19.67087	707.99200	 31.10	
  8.495	-135.039	 19.09379	  6.07519	 12.92772	  5.75718	 13.35654	 -0.28741	 19.68260	707.92999	 31.10	
  8.494	-146.194	 19.10369	  5.49720	 13.63211	  6.40992	 12.55105	 -0.29649	 19.69015	707.92297	 31.10	
  8.502	-157.493	 19.11650	  5.06959	 14.19576	  7.33405	 11.59341	 -0.29766	 19.69901	707.89203	 31.10	
  8.491	-168.704	 19.11051	  4.84102	 14.50454	  8.30797	 10.57855	 -0.28257	 19.67303	707.96301	 31.10	
  8.500	180.000	 19.12520	  4.78284	 14.61446	  9.30848	  9.64735	 -0.27880	 19.67982	707.91998	 31.10	
 10.200	180.000	 18.74514	  3.58616	 15.39579	  8.99048	  9.33545	 -0.43606	 19.62978	707.96198	 31.00	
 10.191	-170.497	 18.74142	  3.63307	 15.30810	  7.98528	 10.26909	 -0.44698	 19.63454	707.91998	 31.10	
 10.210	-161.034	 18.73271	  3.80602	 15.04606	  6.95288	 11.31703	 -0.46083	 19.64782	707.96002	 31.10	
 10.194	-151.526	 18.73721	  4.14476	 14.58559	  6.03709	 12.29378	 -0.45895	 19.65618	707.94702	 31.10	
 10.190	-142.105	 18.73216	  4.58975	 13.98990	  5.29621	 13.19350	 -0.44880	 19.66158	707.93799	 31.10	
 10.215	-132.646	 18.74272	  5.21206	 13.25142	  4.56291	 14.00364	 -0.43683	 19.67558	707.91199	 31.10	
 10.203	-123.092	 18.71146	  5.94070	 12.34745	  3.96342	 14.66380	 -0.44939	 19.64998	707.98499	 31.10	
 10.192	-113.678	 18.75187	  6.81307	 11.40924	  3.54918	 15.20190	 -0.49084	 19.68630	707.96997	 31.10	
 10.208	-104.249	 18.75117	  7.72931	 10.37949	  3.25969	 15.55276	 -0.52616	 19.68222	707.81201	 31.10	
 10.210	-94.801	 18.75386	  8.70317	  9.42930	  3.10544	 15.73232	 -0.55793	 19.67991	707.90802	 31.10	
 10.210	-85.199	 18.76801	  9.74498	  8.41507	  3.08325	 15.74029	 -0.57104	 19.68882	707.89203	 31.10	
 10.208	-75.751	 18.77405	 10.78348	  7.41723	  3.20764	 15.53614	 -0.59303	 19.69436	707.92499	 31.10	
 10.192	-66.322	 18.80087	 11.79235	  6.45320	  3.47494	 15.17023	 -0.59492	 19.70866	707.94702	 31.00	
 10.203	-56.908	 18.74817	 12.69590	  5.57156	  3.84716	 14.61304	 -0.57208	 19.64900	707.87097	 31.00	
 10.215	-47.354	 18.79290	 13.62059	  4.85723	  4.39730	 13.96218	 -0.54564	 19.69220	707.94098	 31.00	
 10.190	-37.895	 18.80497	 14.36881	  4.25547	  5.17469	 13.14252	 -0.51217	 19.68867	707.96002	 31.00	
 10.194	-28.474	 18.82935	 14.98327	  3.77252	  5.91352	 12.25744	 -0.48336	 19.70095	707.95502	 30.90	
 10.210	-18.966	 18.80399	 15.44520	  3.29213	  6.81073	 11.24894	 -0.48359	 19.67635	707.93103	 31.00	
 10.191	 -9.503	 18.81006	 15.70819	  3.10604	  7.82125	 10.24097	 -0.48388	 19.66441	707.94397	 31.00	
 10.200	  0.000	 18.84132	 15.84450	  3.00928	  8.84518	  9.27316	 -0.48976	 19.68439	708.00500	 31.00	
 10.191	  9.503	 18.83254	 15.75972	  3.06701	  9.83941	  8.28645	 -0.46331	 19.67538	707.94897	 31.00	
 10.210	 18.966	 18.83403	 15.52153	  3.26904	 10.88715	  7.29484	 -0.46760	 19.66674	707.91400	 31.00	
 10.194	 28.474	 18.84814	 15.09243	  3.70462	 11.88777	  6.36729	 -0.46228	 19.66570	708.01599	 31.00	
 10.190	 37.895	 18.83753	 14.50468	  4.21587	 12.78532	  5.60792	 -0.43933	 19.64258	707.98700	 31.00	
 10.215	 47.354	 18.88739	 13.80625	  4.84124	 13.65489	  4.95958	 -0.41481	 19.69582	707.91498	 31.00	
 10.203	 56.908	 18.86904	 12.95767	  5.54044	 14.35553	  4.44696	 -0.41904	 19.67813	707.96198	 31.00	
 10.192	 66.322	 18.87577	 12.01402	  6.42173	 14.88758	  4.06605	 -0.45257	 19.66956	707.91998	 31.00	
 10.208	 75.751	 18.87327	 11.03104	  7.37268	 15.27841	  3.78001	 -0.48198	 19.67010	707.98901	 31.00	
 10.210	 85.199	 18.91625	 10.00961	  8.42867	 15.51583	  3.65549	 -0.49975	 19.71297	707.90601	 31.00	
 10.210	 94.801	 18.89376	  8.95898	  9.43420	 15.51629	  3.65899	 -0.51122	 19.69904	707.91998	 31.00	
 10.208	104.249	 18.87107	  7.96385	 10.41299	 15.33298	  3.80677	 -0.51642	 19.67783	707.92499	 30.90	
 10.192	113.678	 18.86473	  7.05287	 11.41876	 14.98302	  4.08249	 -0.49936	 19.67757	707.89600	 30.90	
 10.203	123.092	 18.87077	  6.19781	 12.38503	 14.49040	  4.49972	 -0.48179	 19.69864	707.95502	 30.90	
 10.215	132.646	 18.84608	  5.41794	 13.27595	 13.79599	  5.02203	 -0.45653	 19.69561	707.93903	 30.90	
 10.190	142.105	 18.82776	  4.74970	 14.02966	 12.97392	  5.69959	 -0.42349	 19.68532	707.93103	 30.90	
 10.194	151.526	 18.82248	  4.24083	 14.63558	 12.07179	  6.48917	 -0.42173	 19.68842	707.84698	 30.90	
 10.210	161.034	 18.80271	  3.87694	 15.08056	 11.06931	  7.40824	 -0.44318	 19.67715	707.92200	 30.90	
 10.191	170.497	 18.81240	  3.68132	 15.35377	 10.03498	  8.40516	 -0.44223	 19.68859	707.91998	 30.90	
 11.899	171.783	 18.39718	  2.47631	 16.11366	  9.73680	  8.02815	 -0.60593	 19.67315	707.87402	 30.90	
 11.890	163.610	 18.39524	  2.65199	 15.87048	 10.76962	  7.02954	 -0.60112	 19.67788	707.90002	 30.90	
 11.889	155.445	 18.44389	  2.97355	 15.51537	 11.79534	  6.10452	 -0.59038	 19.70688	707.94098	 30.90	
 11.909	147.299	 18.39853	  3.35778	 14.96764	 12.73696	  5.25276	 -0.57989	 19.67256	707.93799	 30.90	
 11.902	139.148	 18.41945	  3.88675	 14.29919	 13.61517	  4.55633	 -0.58554	 19.67184	707.88702	 30.90	
 11.894	130.867	 18.43334	  4.56606	 13.48986	 14.42401	  3.86947	 -0.61705	 19.67669	707.97302	 30.90	
 11.897	122.732	 18.47714	  5.35604	 12.62395	 15.08451	  3.24272	 -0.65213	 19.70211	707.92297	 30.90	
 11.903	114.597	 18.51183	  6.22485	 11.66476	 15.61644	  2.85499	 -0.67355	 19.71372	707.92999	 30.90	
 11.893	106.346	 18.47924	  7.15287	 10.60602	 15.95640	  2.57088	 -0.69020	 19.66821	707.89001	 30.80	
 11.892	 98.155	 18.50483	  8.13524	  9.59051	 16.20895	  2.40480	 -0.69581	 19.68186	707.92999	 30.80	
 11.900	 90.000	 18.50579	  9.14336	  8.62288	 16.27230	  2.33461	 -0.68787	 19.67368	707.83899	 30.80	
 11.892	 81.845	 18.53610	 10.20400	  7.59986	 16.18691	  2.39697	 -0.67554	 19.69921	707.93103	 30.80	
 11.893	 73.654	 18.52379	 11.22612	  6.57500	 15.91141	  2.52874	 -0.63834	 19.68821	707.89801	 30.80	
 11.903	 65.403	 18.52204	 12.22295	  5.59656	 15.49889	  2.80006	 -0.60540	 19.68987	707.91901	 30.80	
 11.897	 57.268	 18.53109	 13.17175	  4.79307	 14.96074	  3.19506	 -0.56472	 19.70045	707.90002	 30.80	
 11.894	 49.133	 18.51600	 14.01934	  3.99043	 14.27412	  3.71847	 -0.55561	 19.68973	707.91498	 30.80	
 11.902	 40.852	 18.52778	 14.81483	  3.26687	 13.46986	  4.43639	 -0.59042	 19.71612	707.91199	 30.80	
 11.909	 32.701	 18.52002	 15.45273	  2.74224	 12.55700	  5.22286	 -0.62061	 19.71557	707.85498	 30.80	
 11.889	 24.555	 18.52190	 15.95441	  2.35799	 11.60509	  6.00153	 -0.63312	 19.71888	707.88000	 30.70	
 11.890	 16.390	 18.51581	 16.32174	  2.05831	 10.58000	  6.95918	 -0.62870	 19.72237	707.89001	 30.70	
 11.899	  8.217	 18.51230	 16.54425	  1.86439	  9.56073	  7.94449	 -0.63050	 19.73754	707.86603	 30.70	
 11.900	  0.000	 18.48664	 16.57732	  1.81716	  8.51150	  8.94631	 -0.63741	 19.71332	707.83301	 30.60	
 11.899	 -8.217	 18.47544	 16.47181	  1.92417	  7.46038	  9.94058	 -0.63915	 19.70736	707.79102	 30.60	
 11.890	-16.390	 18.44952	 16.21664	  2.08916	  6.41304	 10.96400	 -0.63372	 19.69650	707.91199	 30.60	
 11.889	-24.555	 18.46385	 15.82652	  2.39901	  5.54501	 11.94648	 -0.63901	 19.72113	707.82001	 30.60	
 11.909	-32.701	 18.44310	 15.29065	  2.77656	  4.67508	 12.91001	 -0.65592	 19.71782	707.80402	 30.60	
 11.902	-40.852	 18.41545	 14.62815	  3.24968	  3.94245	 13.76880	 -0.68205	 19.70513	707.85797	 30.60	
 11.894	-49.133	 18.42922	 13.82501	  4.01584	  3.30109	 14.56654	 -0.71332	 19.72535	707.79901	 30.60	
 11.897	-57.268	 18.37850	 12.90852	  4.74010	  2.74190	 15.21808	 -0.73350	 19.68295	707.78699	 30.60	
 11.903	-65.403	 18.37382	 11.97492	  5.52080	  2.33558	 15.74447	 -0.75022	 19.69200	707.80298	 30.60	
 11.893	-73.654	 18.36100	 10.93752	  6.48071	  2.06400	 16.15031	 -0.75394	 19.67511	707.81799	 30.60	
 11.892	-81.845	 18.38977	  9.92673	  7.53776	  1.92340	 16.41618	 -0.73659	 19.71205	707.84399	 30.60	
 11.900	-90.000	 18.33951	  8.87761	  8.54448	  1.86855	 16.46684	 -0.72947	 19.67260	707.80103	 30.60	
 11.892	-98.155	 18.35907	  7.88202	  9.55860	  1.97678	 16.39766	 -0.70866	 19.67934	707.89203	 30.70	
 11.893	-106.346	 18.35216	  6.87446	 10.57307	  2.17008	 16.18123	 -0.67862	 19.68267	707.80298	 30.70	
 11.903	-114.597	 18.34576	  5.97310	 11.58444	  2.47511	 15.79378	 -0.63262	 19.68773	707.83301	 30.70	
 11.897	-122.732	 18.32054	  5.15149	 12.52644	  2.91451	 15.24362	 -0.60131	 19.66805	707.84399	 30.70	
 11.894	-130.867	 18.34435	  4.39687	 13.44781	  3.46432	 14.62085	 -0.59177	 19.69424	707.78400	 30.70	
 11.902	-139.148	 18.35217	  3.77384	 14.26386	  4.12715	 13.83653	 -0.61482	 19.69439	707.88202	 30.80	
 11.909	-147.299	 18.35163	  3.25537	 14.93429	  4.84579	 12.97054	 -0.63360	 19.69301	707.83398	 30.70	
 11.889	-155.445	 18.35743	  2.89269	 15.45646	  5.67028	 12.02447	 -0.64036	 19.68518	707.85999	 30.70	
 11.890	-163.610	 18.37060	  2.61484	 15.87046	  6.62937	 11.00066	 -0.63922	 19.68983	707.80902	 30.70	
 11.899	-171.783	 18.36838	  2.45011	 16.11290	  7.63819	  9.97320	 -0.62574	 19.67915	707.81201	 30.70	
 11.900	180.000	 18.38800	  2.39507	 16.21240	  8.68552	  9.03496	 -0.62463	 19.68797	707.78802	 30.70	
 13.600	180.000	 17.90436	  1.14700	 16.89923	  8.30285	  8.62657	 -0.77188	 19.69082	707.91400	 30.80	
 13.608	-172.853	 17.86363	  1.21181	 16.78672	  7.25044	  9.55692	 -0.77138	 19.65325	707.74500	 30.80	
 13.611	-165.583	 17.87012	  1.36295	 16.58953	  6.23232	 10.61296	 -0.78705	 19.67464	707.69800	 30.80	
 13.601	-158.353	 17.83439	  1.58753	 16.20481	  5.27533	 11.61727	 -0.78445	 19.64155	707.80402	 30.80	
 13.609	-151.210	 17.83726	  1.92275	 15.72906	  4.44519	 12.60910	 -0.77693	 19.65816	707.71503	 30.80	
 13.611	-143.999	 17.82547	  2.35836	 15.12919	  3.65849	 13.53045	 -0.76340	 19.65584	707.82599	 30.80	
 13.601	-136.825	 17.82152	  2.89822	 14.40909	  2.95353	 14.36862	 -0.72805	 19.65767	707.82800	 30.80	
 13.596	-129.640	 17.83318	  3.55285	 13.58875	  2.32754	 15.12898	 -0.71284	 19.66458	707.80701	 30.90	
 13.611	-122.431	 17.85990	  4.26412	 12.71077	  1.77191	 15.80573	 -0.72239	 19.70013	707.83099	 30.90	
 13.604	-115.211	 17.85186	  5.08914	 11.71959	  1.34492	 16.31495	 -0.75198	 19.67867	707.84198	 30.90	
 13.595	-108.042	 17.87475	  5.99723	 10.70043	  1.00852	 16.72648	 -0.78665	 19.69023	707.83398	 30.90	
 13.607	-100.793	 17.86123	  6.94419	  9.65757	  0.77592	 16.97796	 -0.81654	 19.67295	707.87598	 30.90	
 13.601	-93.617	 17.88359	  7.96474	  8.66698	  0.65268	 17.12184	 -0.83603	 19.69146	707.76001	 30.80	
 13.601	-86.383	 17.88217	  8.97580	  7.63668	  0.58649	 17.10647	 -0.84471	 19.68154	707.75500	 30.80	
 13.607	-79.207	 17.87796	 10.00875	  6.57036	  0.67383	 16.94798	 -0.83892	 19.67116	707.76898	 30.80	
 13.595	-71.958	 17.89145	 11.05294	  5.54952	  0.87924	 16.67483	 -0.83836	 19.68255	707.76099	 30.80	
 13.604	-64.789	 17.90853	 12.06095	  4.64977	  1.18505	 16.27956	 -0.84442	 19.69743	707.73901	 30.80	
 13.611	-57.569	 17.90107	 13.02424	  3.77740	  1.63104	 15.71779	 -0.84390	 19.67317	707.73102	 30.80	
 13.596	-50.360	 17.94110	 13.91732	  3.08993	  2.15275	 15.08221	 -0.83012	 19.69230	707.81500	 30.80	
 13.601	-43.175	 17.95004	 14.71661	  2.47264	  2.76737	 14.32639	 -0.80340	 19.68522	707.85498	 30.80	
 13.611	-36.001	 17.93977	 15.41748	  1.91662	  3.46945	 13.46958	 -0.77714	 19.66681	707.86499	 30.80	
 13.609	-28.790	 17.94478	 16.03957	  1.49644	  4.23839	 12.53201	 -0.78088	 19.66863	707.79498	 30.80	
 13.601	-21.647	 17.97424	 16.53108	  1.13262	  5.06405	 11.58675	 -0.78438	 19.69166	707.77698	 30.80	
 13.611	-14.417	 17.95350	 16.87455	  0.84587	  5.99049	 10.54323	 -0.78470	 19.65887	707.86499	 30.80	
 13.608	 -7.147	 17.97986	 17.12643	  0.63806	  7.03505	  9.54101	 -0.79103	 19.68155	707.85797	 30.90	
 13.600	  0.000	 18.01706	 17.23033	  0.56046	  8.06896	  8.55089	 -0.79170	 19.69686	707.81799	 30.90	
 13.608	  7.147	 18.00727	 17.18700	  0.57590	  9.08959	  7.53969	 -0.79495	 19.69408	707.86298	 30.90	
 13.611	 14.417	 18.01649	 16.98798	  0.75565	 10.13547	  6.52111	 -0.79696	 19.68588	707.86298	 30.80	
 13.601	 21.647	 18.03179	 16.66810	  1.02401	 11.19176	  5.60790	 -0.80545	 19.69090	707.82599	 30.80	
 13.609	 28.790	 18.04112	 16.22873	  1.37564	 12.17409	  4.75760	 -0.80281	 19.68708	707.76001	 30.80	
 13.611	 36.001	 18.05509	 15.65785	  1.86852	 13.13968	  3.89785	 -0.77876	 19.68790	707.85498	 30.80	
 13.601	 43.175	 18.06911	 14.97984	  2.44263	 14.00773	  3.23207	 -0.72064	 19.69129	707.75500	 30.80	
 13.596	 50.360	 18.10178	 14.21309	  3.11498	 14.80272	  2.63843	 -0.69717	 19.71083	707.77100	 30.80	
 13.611	 57.569	 18.08978	 13.31966	  3.84433	 15.47820	  2.12184	 -0.71074	 19.70115	707.70398	 30.80	
 13.604	 64.789	 18.06926	 12.36966	  4.72865	 16.01313	  1.69632	 -0.75544	 19.66968	707.69098	 30.80	
 13.595	 71.958	 18.07924	 11.39305	  5.62615	 16.45507	  1.40314	 -0.79463	 19.68099	707.74500	 30.80	
 13.607	 79.207	 18.07769	 10.35009	  6.65020	 16.75399	  1.22205	 -0.83551	 19.67819	707.76300	 30.80	
 13.601	 86.383	 18.08369	  9.31834	  7.70833	 16.92549	  1.14842	 -0.85204	 19.69512	707.73901	 30.80	
 13.601	 93.617	 18.07241	  8.28213	  8.73130	 16.94917	  1.14699	 -0.85451	 19.69235	707.69897	 30.80	
 13.607	100.793	 18.05130	  7.27660	  9.70057	 16.81677	  1.24241	 -0.86235	 19.68289	707.72900	 30.80	
 13.595	108.042	 18.06975	  6.31999	 10.76786	 16.56052	  1.47465	 -0.85296	 19.70838	707.76300	 30.80	
 13.604	115.211	 18.04309	  5.40078	 11.77984	 16.17746	  1.74127	 -0.83179	 19.71295	707.83099	 30.80	
 13.611	122.431	 18.01286	  4.54592	 12.74771	 15.63589	  2.13600	 -0.80850	 19.69782	707.78400	 30.80	
 13.596	129.640	 17.99545	  3.77347	 13.66482	 14.98259	  2.64084	 -0.77742	 19.70476	707.76001	 30.70	
 13.601	136.825	 17.95965	  3.11092	 14.47208	 14.21403	  3.22791	 -0.74702	 19.68325	707.80298	 30.70	
 13.611	143.999	 17.96704	  2.50530	 15.21266	 13.38274	  4.03608	 -0.73035	 19.71590	707.87299	 30.70	
 13.609	151.210	 17.97089	  2.02991	 15.81837	 12.44142	  4.83716	 -0.73228	 19.71884	707.71802	 30.70	
 13.601	158.353	 17.94821	  1.65516	 16.29295	 11.45506	  5.63780	 -0.74450	 19.71063	707.75299	 30.70	
 13.611	165.583	 17.94103	  1.38471	 16.63427	 10.40368	  6.60908	 -0.75602	 19.70490	707.78400	 30.70	
 13.608	172.853	 17.94333	  1.21018	 16.85102	  9.37357	  7.62005	 -0.77375	 19.72393	707.71002	 30.60	
 15.298	173.587	 17.36082	 -0.06953	 17.43293	  8.94072	  7.13221	 -0.86180	 19.67762	707.71399	 30.60	
 15.291	167.167	 17.36667	  0.10597	 17.24552	  9.96628	  6.13536	 -0.86466	 19.67101	707.72101	 30.60	
 15.307	160.676	 17.37203	  0.35091	 16.95597	 11.02508	  5.15167	 -0.86394	 19.68432	707.69397	 30.60	
 15.300	154.261	 17.37901	  0.68706	 16.53824	 12.03245	  4.27314	 -0.85305	 19.69170	707.69397	 30.70	
 15.288	147.854	 17.39584	  1.16368	 15.98206	 12.99834	  3.46293	 -0.85053	 19.68489	707.75201	 30.70	
 15.293	141.428	 17.41445	  1.66253	 15.34190	 13.90376	  2.74677	 -0.85054	 19.69139	707.69598	 30.70	
 15.299	134.985	 17.41811	  2.27138	 14.57502	 14.72937	  2.09122	 -0.86902	 19.67692	707.69397	 30.70	
 15.305	128.583	 17.43895	  2.93714	 13.74489	 15.45743	  1.51138	 -0.89490	 19.67401	707.65802	 30.70	
 15.309	122.142	 17.45849	  3.67269	 12.82028	 16.10052	  1.02101	 -0.92399	 19.66412	707.72803	 30.70	
 15.304	115.711	 17.49686	  4.51938	 11.84374	 16.63190	  0.61973	 -0.93299	 19.67633	707.65503	 30.70	
 15.297	109.291	 17.49863	  5.39300	 10.84273	 17.03107	  0.29589	 -0.94670	 19.66751	707.74402	 30.70	
 15.293	102.897	 17.56365	  6.34980	  9.82446	 17.36251	  0.06975	 -0.94532	 19.70616	707.79602	 30.80	
 15.293	 96.458	 17.53219	  7.32550	  8.78935	 17.49434	 -0.06454	 -0.94339	 19.66562	707.71198	 30.80	
 15.300	 90.000	 17.56510	  8.35699	  7.76642	 17.56570	 -0.11318	 -0.95359	 19.68713	707.65601	 30.80	
 15.293	 83.542	 17.55729	  9.39882	  6.70405	 17.46711	 -0.07565	 -0.95506	 19.67352	707.73901	 30.80	
 15.293	 77.103	 17.58923	 10.43647	  5.67076	 17.28488	  0.04681	 -0.94761	 19.69671	707.65002	 30.80	
 15.297	 70.709	 17.59011	 11.44226	  4.70694	 16.95996	  0.27115	 -0.92254	 19.69600	707.70599	 30.80	
 15.304	 64.289	 17.55923	 12.41662	  3.80547	 16.47944	  0.58858	 -0.87438	 19.66059	707.73401	 30.80	
 15.309	 57.858	 17.58983	 13.39147	  3.00158	 15.94297	  1.00275	 -0.83438	 19.69371	707.65002	 30.80	
 15.305	 51.417	 17.57593	 14.25896	  2.27143	 15.26436	  1.49954	 -0.81831	 19.67938	707.62903	 30.80	
 15.299	 45.015	 17.55019	 15.03995	  1.62148	 14.48826	  2.09073	 -0.83984	 19.65492	707.63702	 30.80	
 15.293	 38.572	 17.54179	 15.75716	  1.02884	 13.63590	  2.74386	 -0.88002	 19.65461	707.66699	 30.80	
 15.288	 32.146	 17.56077	 16.40699	  0.49091	 12.74088	  3.46740	 -0.92528	 19.69241	707.73700	 30.80	
 15.300	 25.739	 17.50823	 16.89233	  0.04958	 11.73559	  4.24190	 -0.93743	 19.65894	707.60498	 30.80	
 15.307	 19.324	 17.51002	 17.30997	 -0.29549	 10.74075	  5.16711	 -0.93648	 19.69041	707.67401	 30.80	
 15.291	 12.833	 17.50973	 17.60616	 -0.52512	  9.68720	  6.08271	 -0.91929	 19.69593	707.66699	 30.80	
 15.298	  6.413	 17.46840	 17.73653	 -0.66271	  8.64189	  7.07591	 -0.90618	 19.66073	707.69897	 30.80	
 15.300	  0.000	 17.48952	 17.78937	 -0.67145	  7.62753	  8.09410	 -0.90935	 19.68661	707.66602	 30.80	
 15.298	 -6.413	 17.47581	 17.70533	 -0.62770	  6.58162	  9.10909	 -0.90885	 19.68301	707.62097	 30.70	
 15.291	-12.833	 17.48292	 17.50946	 -0.46187	  5.58358	 10.12963	 -0.91573	 19.69702	707.65002	 30.70	
 15.307	-19.324	 17.45255	 17.17958	 -0.19354	  4.67117	 11.11720	 -0.89344	 19.68089	707.60999	 30.70	
 15.300	-25.739	 17.44795	 16.75135	  0.13134	  3.82197	 12.12907	 -0.88085	 19.68993	707.64203	 30.70	
 15.288	-32.146	 17.42457	 16.19309	  0.51992	  3.00231	 13.05986	 -0.86553	 19.66221	707.56097	 30.70	
 15.293	-38.572	 17.41072	 15.53351	  1.01148	  2.25549	 13.95625	 -0.86484	 19.66330	707.67902	 30.70	
 15.299	-45.015	 17.38871	 14.77231	  1.59931	  1.56978	 14.76931	 -0.87874	 19.64914	707.69397	 30.80	
 15.305	-51.417	 17.39418	 13.96332	  2.23470	  0.95867	 15.53052	 -0.89190	 19.67352	707.69598	 30.80	
 15.309	-57.858	 17.38213	 13.05947	  2.93867	  0.43770	 16.17314	 -0.88488	 19.68063	707.53400	 30.80	
 15.304	-64.289	 17.35179	 12.10272	  3.70320	  0.00453	 16.69148	 -0.87178	 19.66742	707.65002	 30.80	
 15.297	-70.709	 17.36592	 11.09821	  4.58727	 -0.32864	 17.14244	 -0.85838	 19.68641	707.60699	 30.80	
 15.293	-77.103	 17.34728	 10.09133	  5.54287	 -0.56557	 17.44730	 -0.84103	 19.68347	707.67102	 30.80	
 15.293	-83.542	 17.35076	  9.05004	  6.62894	 -0.68762	 17.64048	 -0.83158	 19.68273	707.70203	 30.80	
 15.300	-90.000	 17.32639	  8.01207	  7.63484	 -0.71870	 17.70224	 -0.84846	 19.67425	707.66602	 30.80	
 15.293	-96.458	 17.31114	  6.99573	  8.68091	 -0.65725	 17.64201	 -0.86700	 19.66244	707.67999	 30.80	
 15.293	-102.897	 17.30289	  6.01032	  9.73152	 -0.48339	 17.44499	 -0.88176	 19.65328	707.64502	 30.80	
 15.297	-109.291	 17.30943	  5.08315	 10.76134	 -0.24040	 17.18346	 -0.87105	 19.68141	707.74701	 30.80	
 15.304	-115.711	 17.28619	  4.20478	 11.77284	  0.12875	 16.75594	 -0.84211	 19.66399	707.63202	 30.80	
 15.309	-122.142	 17.30204	  3.41486	 12.75818	  0.58940	 16.25466	 -0.81655	 19.69427	707.66699	 30.80	
 15.305	-128.583	 17.30873	  2.68239	 13.68933	  1.12699	 15.63963	 -0.81001	 19.71308	707.73401	 30.80	
 15.299	-134.985	 17.28400	  2.03537	 14.51757	  1.76566	 14.86987	 -0.82700	 19.67949	707.71002	 30.80	
 15.293	-141.428	 17.31207	  1.46555	 15.27953	  2.45731	 14.07613	 -0.84964	 19.70501	707.70398	 30.70	
 15.288	-147.854	 17.31404	  0.96784	 15.95768	  3.22216	 13.16978	 -0.86895	 19.70429	707.65802	 30.70	
 15.300	-154.261	 17.32318	  0.59037	 16.49970	  4.03117	 12.23339	 -0.87196	 19.71134	707.66400	 30.70	
 15.307	-160.676	 17.32225	  0.26787	 16.95362	  4.90221	 11.19839	 -0.86890	 19.70067	707.60699	 30.70	
 15.291	-167.167	 17.34692	  0.04906	 17.25446	  5.82150	 10.17724	 -0.87351	 19.70410	707.68298	 30.60	
 15.298	-173.587	 17.34065	 -0.07213	 17.42483	  6.82818	  9.14606	 -0.86526	 19.67824	707.61700	 30.60	
 15.300	180.000	 17.37105	 -0.13046	 17.50304	  7.89110	  8.17367	 -0.86110	 19.70214	707.66302	 30.60	
 17.000	180.000	 16.76443	 -1.30825	 18.06091	  7.41977	  7.67628	 -0.86224	 19.71274	707.62299	 30.60	
 16.990	-174.179	 16.75237	 -1.26947	 17.99711	  6.38119	  8.68044	 -0.85599	 19.71189	707.71503	 30.60	
 17.009	-168.383	 16.73553	 -1.18583	 17.83680	  5.38099	  9.68656	 -0.85520	 19.71383	707.59003	 30.60	
 17.000	-162.596	 16.70326	 -1.01089	 17.55514	  4.47432	 10.70261	 -0.85412	 19.70691	707.64697	 30.60	
 16.990	-156.759	 16.70036	 -0.74040	 17.15020	  3.60115	 11.72390	 -0.87238	 19.70590	707.62903	 30.50	
 16.995	-150.919	 16.68328	 -0.40671	 16.64531	  2.71536	 12.70386	 -0.87190	 19.69898	707.69897	 30.50	
 16.988	-145.161	 16.69009	  0.01762	 16.06197	  1.92790	 13.61895	 -0.88478	 19.70366	707.67499	 30.50	
 17.014	-139.343	 16.67938	  0.51455	 15.36427	  1.16888	 14.50202	 -0.88407	 19.70978	707.65601	 30.50	
 17.007	-133.546	 16.69104	  1.12657	 14.57538	  0.50909	 15.30519	 -0.87918	 19.70945	707.67902	 30.50	
 17.001	-127.699	 16.68866	  1.76731	 13.72553	 -0.13620	 16.03236	 -0.87724	 19.71723	707.57001	 30.50	
 17.006	-121.937	 16.71851	  2.50143	 12.82251	 -0.63356	 16.66414	 -0.88358	 19.73223	707.62903	 30.50	
 17.002	-116.134	 16.74108	  3.30345	 11.85630	 -1.03677	 17.19483	 -0.88657	 19.73722	707.71399	 30.50	
 17.001	-110.310	 16.72997	  4.14699	 10.82759	 -1.37565	 17.61102	 -0.89588	 19.71741	707.64203	 30.50	
 16.988	-104.517	 16.74773	  5.06249	  9.79263	 -1.62325	 17.93260	 -0.89525	 19.72267	707.67401	 30.40	
 17.008	-98.662	 16.74150	  6.01190	  8.72718	 -1.81917	 18.15028	 -0.87119	 19.71624	707.63397	 30.40	
 16.996	-92.909	 16.75578	  7.00162	  7.70511	 -1.90601	 18.22627	 -0.84589	 19.70472	707.60901	 30.40	
 16.996	-87.091	 16.75124	  8.01454	  6.64888	 -1.93494	 18.21807	 -0.80611	 19.69555	707.62903	 30.40	
 17.012	-81.253	 16.78585	  9.07347	  5.56966	 -1.87859	 18.14342	 -0.79238	 19.73525	707.70599	 30.40	
 16.988	-75.483	 16.79283	 10.09141	  4.59576	 -1.71821	 17.89744	 -0.78570	 19.72090	707.54999	 30.40	
 17.001	-69.690	 16.83220	 11.12752	  3.68925	 -1.49614	 17.61030	 -0.79516	 19.76246	707.63202	 30.40	
 17.002	-63.866	 16.83329	 12.12426	  2.85828	 -1.15463	 17.14616	 -0.80144	 19.74510	707.61298	 30.30	
 17.006	-58.063	 16.84695	 13.08387	  2.09761	 -0.75378	 16.62864	 -0.83433	 19.75210	707.72101	 30.30	
 17.001	-52.301	 16.87129	 13.98829	  1.38494	 -0.25216	 16.01378	 -0.86627	 19.75867	707.65002	 30.30	
 17.007	-46.454	 16.86639	 14.82218	  0.71929	  0.33200	 15.27140	 -0.88910	 19.73351	707.63098	 30.30	
 17.014	-40.657	 16.87977	 15.62849	  0.07458	  0.97221	 14.47725	 -0.90793	 19.75434	707.64502	 30.20	
 16.988	-34.839	 16.90679	 16.31618	 -0.43323	  1.71391	 13.62507	 -0.92346	 19.75898	707.62598	 30.20	
 16.995	-29.081	 16.89710	 16.89009	 -0.87116	  2.47905	 12.69919	 -0.93943	 19.73585	707.64001	 30.20	
 16.990	-23.241	 16.92363	 17.39399	 -1.19682	  3.37338	 11.71322	 -0.95628	 19.74533	707.62299	 30.10	
 17.000	-17.404	 16.96207	 17.80770	 -1.46983	  4.25947	 10.70497	 -0.96996	 19.76638	707.56598	 30.10	
 17.009	-11.617	 16.95351	 18.10625	 -1.70060	  5.13052	  9.69657	 -0.98040	 19.75994	707.66400	 30.10	
 16.990	 -5.821	 16.97453	 18.29692	 -1.82066	  6.12366	  8.69182	 -0.97323	 19.77273	707.55499	 30.10	
 17.000	  0.000	 16.96138	 18.35093	 -1.88030	  7.13870	  7.63449	 -0.96192	 19.74710	707.65601	 30.10	
 16.990	  5.821	 16.97714	 18.32233	 -1.84749	  8.18032	  6.61026	 -0.97167	 19.75170	707.62402	 30.10	
 17.009	 11.617	 16.99593	 18.19807	 -1.74356	  9.22462	  5.61999	 -0.98680	 19.76889	707.69598	 30.00	
 17.000	 17.404	 16.99271	 17.92552	 -1.55425	 10.25245	  4.69704	 -0.99783	 19.75318	707.56702	 30.00	
 16.990	 23.241	 17.01979	 17.58826	 -1.27385	 11.29169	  3.84133	 -1.02121	 19.76747	707.57501	 30.00	
 16.995	 29.081	 17.01570	 17.12132	 -0.91596	 12.27407	  3.02443	 -1.03797	 19.74829	707.65900	 30.00	
 16.988	 34.839	 17.05648	 16.58442	 -0.46251	 13.23672	  2.26714	 -1.02185	 19.77492	707.55103	 30.00	
 17.014	 40.657	 17.05554	 15.92620	  0.07193	 14.14548	  1.53673	 -0.98184	 19.76595	707.57001	 30.00	
 17.007	 46.454	 17.05383	 15.16794	  0.69213	 14.96406	  0.89941	 -0.94698	 19.74948	707.54498	 29.90	
 17.001	 52.301	 17.10296	 14.35717	  1.38956	 15.75678	  0.33936	 -0.93883	 19.79161	707.55902	 29.90	
 17.006	 58.063	 17.06108	 13.43792	  2.11095	 16.38247	 -0.16896	 -0.94886	 19.74586	707.64001	 29.90	
 17.002	 63.866	 17.08896	 12.51952	  2.91642	 16.95179	 -0.56143	 -0.97439	 19.76703	707.57800	 29.90	
 17.001	 69.690	 17.10023	 11.54038	  3.77206	 17.43297	 -0.89655	 -1.01322	 19.79076	707.57703	 29.90	
 16.988	 75.483	 17.09506	 10.52849	  4.70435	 17.77183	 -1.13147	 -1.02906	 19.76866	707.59302	 29.80	
 17.012	 81.253	 17.06763	  9.48446	  5.66618	 18.00746	 -1.31445	 -1.01948	 19.75617	707.58197	 29.80	
 16.996	 87.091	 17.05484	  8.44816	  6.73840	 18.13181	 -1.39801	 -0.98680	 19.75312	707.58502	 29.80	
 16.996	 92.909	 17.05771	  7.42689	  7.79633	 18.16590	 -1.40287	 -0.96610	 19.77041	707.58600	 29.80	
 17.008	 98.662	 17.05280	  6.43582	  8.83652	 18.09260	 -1.31232	 -0.95488	 19.78686	707.66602	 29.80	
 16.988	104.517	 17.02193	  5.46467	  9.85677	 17.87068	 -1.13854	 -0.95846	 19.77526	707.66699	 29.80	
 17.001	110.310	 17.00411	  4.52966	 10.88723	 17.56527	 -0.89372	 -0.96653	 19.78027	707.72601	 29.80	
 17.002	116.134	 16.98057	  3.66715	 11.90013	 17.13214	 -0.55509	 -0.97854	 19.77118	707.54199	 29.80	
 17.006	121.937	 16.94304	  2.84255	 12.88501	 16.60227	 -0.15424	 -0.97572	 19.77327	707.60699	 29.70	
 17.001	127.699	 16.92929	  2.12208	 13.79941	 15.96275	  0.35687	 -0.96998	 19.76223	707.50403	 29.80	
 17.007	133.546	 16.91189	  1.40812	 14.66556	 15.24891	  0.91648	 -0.95326	 19.77641	707.52600	 29.70	
 17.014	139.343	 16.87990	  0.77888	 15.44150	 14.41872	  1.55368	 -0.94147	 19.75496	707.69897	 29.70	
 16.988	145.161	 16.85355	  0.24343	 16.11809	 13.53951	  2.24852	 -0.93513	 19.74375	707.55499	 29.70	
 16.995	150.919	 16.83154	 -0.22663	 16.71809	 12.60549	  2.99040	 -0.93498	 19.74689	707.62097	 29.70	
 16.990	156.759	 16.86218	 -0.59884	 17.25415	 11.63465	  3.81046	 -0.93302	 19.79256	707.66302	 29.70	
 17.000	162.596	 16.85057	 -0.88958	 17.62651	 10.59695	  4.69465	 -0.93151	 19.77611	707.62598	 29.70	
 17.009	168.383	 16.81273	 -1.15007	 17.90250	  9.55093	  5.63171	 -0.91826	 19.76686	707.60498	 29.70	
 16.990	174.179	 16.81188	 -1.27087	 18.05241	  8.52031	  6.65024	 -0.90982	 19.76686	707.66699	 29.70	
 18.709	174.675	 16.12691	 -2.41172	 18.52111	  7.97275	  6.08558	 -0.87481	 19.76072	707.64203	 29.70	
 18.703	169.441	 16.12191	 -2.30964	 18.37976	  9.00946	  5.10482	 -0.90261	 19.75484	707.66400	 29.70	
 18.691	164.085	 16.14447	 -2.12444	 18.13998	 10.07352	  4.16630	 -0.92586	 19.76502	707.60101	 29.70	
 18.706	158.818	 16.16115	 -1.85883	 17.80571	 11.10183	  3.29082	 -0.94335	 19.77615	707.63202	 29.70	
 18.695	153.537	 16.16906	 -1.51528	 17.35977	 12.10372	  2.45296	 -0.89276	 19.75624	707.58600	 29.60	
 18.704	148.255	 16.16262	 -1.13676	 16.81620	 13.06440	  1.65717	 -0.90558	 19.76061	707.54199	 29.60	
 18.698	142.952	 16.20598	 -0.64334	 16.18157	 13.99120	  0.94423	 -0.91526	 19.76362	707.53400	 29.60	
 18.699	137.625	 16.23486	 -0.09788	 15.46597	 14.85913	  0.27057	 -0.91773	 19.77457	707.56702	 29.60	
 18.705	132.343	 16.24760	  0.49765	 14.66557	 15.65073	 -0.35469	 -0.91095	 19.77859	707.58301	 29.60	
 18.713	127.067	 16.25359	  1.17043	 13.78785	 16.34465	 -0.89619	 -0.92059	 19.75987	707.51801	 29.60	
 18.700	121.794	 16.29042	  1.91357	 12.88226	 16.95691	 -1.33306	 -0.90828	 19.76826	707.61298	 29.60	
 18.698	116.504	 16.32512	  2.71955	 11.92477	 17.49780	 -1.71836	 -0.87657	 19.77712	707.51501	 29.50	
 18.707	111.165	 16.33967	  3.58389	 10.88305	 17.94055	 -2.04031	 -0.85879	 19.77426	707.59698	 29.50	
 18.690	105.863	 16.38272	  4.49735	  9.86452	 18.26977	 -2.26126	 -0.84729	 19.77918	707.46503	 29.50	
 18.696	100.583	 16.40262	  5.43489	  8.84293	 18.50872	 -2.42963	 -0.83782	 19.78119	707.61700	 29.50	
 18.700	 95.309	 16.40254	  6.41049	  7.78608	 18.62265	 -2.52462	 -0.83607	 19.75685	707.53900	 29.50	
 18.700	 90.000	 16.44451	  7.42092	  6.72581	 18.66358	 -2.53091	 -0.86881	 19.77137	707.56097	 29.50	
 18.700	 84.691	 16.45608	  8.44316	  5.68855	 18.60211	 -2.52176	 -0.90941	 19.77824	707.56702	 29.50	
 18.696	 79.417	 16.45401	  9.47264	  4.69424	 18.42058	 -2.42079	 -0.95630	 19.76934	707.52600	 29.50	
 18.690	 74.137	 16.51325	 10.52474	  3.76907	 18.20606	 -2.25805	 -0.99550	 19.82311	707.58197	 29.50	
 18.707	 68.835	 16.49411	 11.52224	  2.87497	 17.82268	 -2.04062	 -1.00438	 19.79834	707.47198	 29.40	
 18.698	 63.496	 16.50910	 12.52573	  2.02586	 17.35399	 -1.71306	 -1.00047	 19.81224	707.51001	 29.40	
 18.700	 58.206	 16.49430	 13.43814	  1.24567	 16.78362	 -1.33190	 -0.99830	 19.79289	707.53101	 29.40	
 18.713	 52.933	 16.48818	 14.34307	  0.49513	 16.11801	 -0.86261	 -0.98644	 19.78668	707.58600	 29.30	
 18.705	 47.657	 16.45591	 15.16210	 -0.18803	 15.37682	 -0.33288	 -0.99277	 19.77500	707.58197	 29.30	
 18.699	 42.375	 16.46127	 15.93153	 -0.77648	 14.56927	  0.30287	 -0.98966	 19.78139	707.53101	 29.30	
 18.698	 37.048	 16.47921	 16.64048	 -1.30619	 13.70207	  0.99863	 -0.99954	 19.80162	707.65503	 29.30	
 18.704	 31.745	 16.44910	 17.22923	 -1.78249	 12.75702	  1.72813	 -0.99596	 19.79065	707.54700	 29.30	
 18.695	 26.463	 16.44621	 17.75764	 -2.17776	 11.78928	  2.51927	 -0.97221	 19.80634	707.63397	 29.30	
 18.706	 21.182	 16.42473	 18.17863	 -2.47327	 10.76224	  3.35669	 -0.95531	 19.80371	707.61298	 29.30	
 18.691	 15.915	 16.40474	 18.47999	 -2.67419	  9.74601	  4.20418	 -0.92358	 19.79850	707.52100	 29.30	
 18.703	 10.559	 16.38301	 18.70585	 -2.83120	  8.68933	  5.11843	 -0.92781	 19.79809	707.60498	 29.30	
 18.709	  5.325	 16.37000	 18.80792	 -2.90564	  7.66830	  6.07380	 -0.91497	 19.78281	707.59698	 29.30	
 18.700	  0.000	 16.36652	 18.83869	 -2.94135	  6.63930	  7.10485	 -0.91674	 19.78773	707.56702	 29.30	
 18.709	 -5.325	 16.36262	 18.78781	 -2.90313	  5.62625	  8.14587	 -0.92245	 19.80598	707.66699	 29.30	
 18.703	-10.559	 16.34319	 18.61874	 -2.78652	  4.69370	  9.15347	 -0.92966	 19.79542	707.64801	 29.30	
 18.691	-15.915	 16.31907	 18.33648	 -2.62455	  3.77417	 10.14750	 -0.92600	 19.76910	707.59100	 29.20	
 18.706	-21.182	 16.29553	 17.98104	 -2.43881	  2.88522	 11.15390	 -0.92055	 19.77162	707.56598	 29.20	
 18.695	-26.463	 16.30986	 17.54291	 -2.12352	  2.01097	 12.15097	 -0.89778	 19.79099	707.58600	 29.30	
 18.704	-31.745	 16.29716	 16.98316	 -1.75101	  1.19410	 13.11809	 -0.88056	 19.78973	707.56201	 29.30	
 18.698	-37.048	 16.28567	 16.34764	 -1.30588	  0.42756	 14.00376	 -0.86895	 19.78160	707.65002	 29.20	
 18.699	-42.375	 16.25532	 15.61278	 -0.79443	 -0.27727	 14.84974	 -0.83193	 19.76987	707.59399	 29.30	
 18.705	-47.657	 16.24068	 14.81651	 -0.19425	 -0.89034	 15.64219	 -0.80222	 19.77352	707.55798	 29.30	
 18.713	-52.933	 16.23594	 13.95750	  0.47526	 -1.39887	 16.33393	 -0.74777	 19.77291	707.60199	 29.30	
 18.700	-58.206	 16.23664	 13.06319	  1.19264	 -1.83693	 16.96305	 -0.69814	 19.78777	707.62299	 29.30	
 18.698	-63.496	 16.19190	 12.09877	  1.93617	 -2.20413	 17.46287	 -0.65779	 19.76288	707.57703	 29.30	
 18.707	-68.835	 16.17541	 11.09520	  2.73759	 -2.52072	 17.91672	 -0.63206	 19.76069	707.63702	 29.20	
 18.690	-74.137	 16.16408	 10.09989	  3.58518	 -2.77422	 18.28093	 -0.61895	 19.77465	707.68701	 29.20	
 18.696	-79.417	 16.20157	  9.10884	  4.55516	 -2.91900	 18.56626	 -0.63520	 19.81822	707.62299	 29.20	
 18.700	-84.691	 16.15540	  8.04802	  5.54946	 -3.01533	 18.69042	 -0.64381	 19.77659	707.56201	 29.20	
 18.700	-90.000	 16.14794	  7.03116	  6.60827	 -3.01879	 18.74284	 -0.68275	 19.77522	707.62598	 29.20	
 18.700	-95.309	 16.15254	  6.03321	  7.71070	 -2.95328	 18.70753	 -0.70816	 19.78455	707.64502	 29.20	
 18.696	-100.583	 16.13696	  5.05073	  8.77755	 -2.81988	 18.56346	 -0.75549	 19.78281	707.59302	 29.20	
 18.690	-105.863	 16.11289	  4.12801	  9.78407	 -2.65128	 18.32916	 -0.80392	 19.77808	707.57703	 29.20	
 18.707	-111.165	 16.09684	  3.24272	 10.78211	 -2.41584	 17.99486	 -0.83223	 19.76917	707.58600	 29.20	
 18.698	-116.504	 16.10523	  2.40403	 11.82317	 -2.08814	 17.55110	 -0.85725	 19.78150	707.56097	 29.20	
 18.700	-121.794	 16.08561	  1.61580	 12.79194	 -1.71942	 17.02526	 -0.86343	 19.77846	707.57501	 29.20	
 18.713	-127.067	 16.07111	  0.89549	 13.72520	 -1.26773	 16.40303	 -0.86265	 19.77597	707.64203	 29.20	
 18.705	-132.343	 16.06586	  0.24175	 14.60024	 -0.72337	 15.70112	 -0.85376	 19.77984	707.61798	 29.20	
 18.699	-137.625	 16.08059	 -0.34872	 15.42008	 -0.09520	 14.92143	 -0.84937	 19.79527	707.62402	 29.20	
 18.698	-142.952	 16.06494	 -0.84899	 16.10684	  0.61634	 14.07437	 -0.81108	 19.77257	707.52899	 29.20	
 18.704	-148.255	 16.07877	 -1.29756	 16.78185	  1.40339	 13.15137	 -0.79151	 19.78402	707.57397	 29.20	
 18.695	-153.537	 16.09267	 -1.66502	 17.33176	  2.21865	 12.21173	 -0.76818	 19.79230	707.65198	 29.20	
 18.706	-158.818	 16.10204	 -1.97432	 17.80793	  3.10253	 11.20939	 -0.74696	 19.79961	707.59003	 29.20	
 18.691	-164.085	 16.10240	 -2.20056	 18.15521	  4.01100	 10.18021	 -0.75289	 19.78604	707.45599	 29.20	
 18.703	-169.441	 16.13275	 -2.36903	 18.43216	  4.96516	  9.16690	 -0.74892	 19.80840	707.53900	 29.20	
 18.709	-174.675	 16.14483	 -2.46747	 18.59571	  5.90480	  8.14316	 -0.76002	 19.81748	707.58502	 29.20	
 18.700	180.000	 16.15338	 -2.48556	 18.63120	  6.93962	  7.11515	 -0.78935	 19.80167	707.51501	 29.10	
 20.400	180.000	 15.39787	 -3.56256	 19.00329	  6.40470	  6.50551	 -0.71526	 19.78549	707.53400	 29.10	
 20.401	-175.153	 15.38103	 -3.54018	 18.95556	  5.40040	  7.52059	 -0.69501	 19.77917	707.55902	 29.10	
 20.407	-170.264	 15.37610	 -3.47061	 18.84197	  4.46653	  8.54836	 -0.67747	 19.80232	707.54700	 29.10	
 20.410	-165.423	 15.35693	 -3.33866	 18.59940	  3.50984	  9.57977	 -0.68023	 19.79860	707.59100	 29.10	
 20.392	-160.496	 15.35555	 -3.13968	 18.28723	  2.59633	 10.60205	 -0.68088	 19.80428	707.55499	 29.10	
 20.401	-155.705	 15.33008	 -2.89487	 17.85545	  1.71962	 11.57457	 -0.67957	 19.78119	707.58301	 29.10	
 20.405	-150.835	 15.32005	 -2.57340	 17.34454	  0.86999	 12.52454	 -0.70326	 19.76160	707.57703	 29.10	
 20.397	-145.903	 15.35042	 -2.18457	 16.77837	  0.09412	 13.51415	 -0.74118	 19.81699	707.51202	 29.10	
 20.392	-141.062	 15.30663	 -1.72549	 16.06690	 -0.61475	 14.36210	 -0.78049	 19.76437	707.52802	 29.10	
 20.396	-136.227	 15.32783	 -1.21662	 15.34796	 -1.24734	 15.20814	 -0.81786	 19.79531	707.48798	 29.10	
 20.408	-131.372	 15.32187	 -0.63179	 14.51032	 -1.82216	 15.97541	 -0.83819	 19.77859	707.56201	 29.10	
 20.410	-126.511	 15.34885	  0.01707	 13.63120	 -2.30512	 16.68820	 -0.84273	 19.79471	707.47803	 29.10	
 20.400	-121.604	 15.35894	  0.72073	 12.70685	 -2.71623	 17.29249	 -0.83345	 19.79641	707.52301	 29.10	
 20.403	-116.741	 15.38325	  1.46948	 11.74077	 -3.06611	 17.83950	 -0.83017	 19.80848	707.53400	 29.10	
 20.413	-111.900	 15.40420	  2.28019	 10.76530	 -3.36442	 18.28287	 -0.78451	 19.82228	707.51300	 29.10	
 20.398	-107.004	 15.38776	  3.11641	  9.75115	 -3.59011	 18.60448	 -0.75168	 19.79406	707.52002	 29.10	
 20.394	-102.132	 15.42004	  4.03432	  8.74776	 -3.75280	 18.87751	 -0.70341	 19.81031	707.54700	 29.10	
 20.403	-97.332	 15.45039	  4.97725	  7.70148	 -3.87816	 19.05223	 -0.65774	 19.81622	707.52600	 29.10	
 20.392	-92.440	 15.46063	  5.96994	  6.61089	 -3.97304	 19.12796	 -0.61035	 19.81659	707.49701	 29.00	
 20.392	-87.560	 15.44727	  6.96321	  5.54105	 -4.02994	 19.10958	 -0.59050	 19.79000	707.52600	 29.00	
 20.403	-82.668	 15.47682	  8.01224	  4.49672	 -3.99353	 19.04189	 -0.58386	 19.82322	707.48602	 29.00	
 20.394	-77.868	 15.47360	  9.01180	  3.54230	 -3.87638	 18.84109	 -0.58392	 19.80745	707.53497	 29.00	
 20.398	-72.996	 15.48092	  9.99195	  2.67448	 -3.71116	 18.56663	 -0.57116	 19.79559	707.52899	 29.00	
 20.413	-68.100	 15.48333	 11.01992	  1.81406	 -3.50087	 18.21076	 -0.57658	 19.80200	707.50000	 29.00	
 20.403	-63.259	 15.50440	 11.97759	  1.06149	 -3.20915	 17.77312	 -0.60017	 19.80134	707.52802	 29.00	
 20.400	-58.396	 15.54342	 12.92478	  0.32965	 -2.86807	 17.26440	 -0.61984	 19.81904	707.52899	 29.00	
 20.410	-53.489	 15.54428	 13.83345	 -0.38747	 -2.47528	 16.62967	 -0.67936	 19.79601	707.57001	 29.00	
 20.408	-48.628	 15.54447	 14.70183	 -1.05440	 -1.99966	 15.92321	 -0.72288	 19.78299	707.50800	 29.00	
 20.396	-43.773	 15.56472	 15.50564	 -1.63654	 -1.42318	 15.16117	 -0.77367	 19.78174	707.49701	 29.00	
 20.392	-38.938	 15.60561	 16.26407	 -2.13411	 -0.80407	 14.37594	 -0.79698	 19.81484	707.48102	 29.00	
 20.397	-34.097	 15.60238	 16.92903	 -2.58446	 -0.13168	 13.49262	 -0.84857	 19.80783	707.54498	 29.00	
 20.405	-29.165	 15.61397	 17.53848	 -2.95454	  0.62713	 12.55424	 -0.85653	 19.81405	707.53900	 29.00	
 20.401	-24.295	 15.60614	 18.01318	 -3.23761	  1.47028	 11.58343	 -0.85990	 19.78737	707.55103	 29.00	
 20.392	-19.504	 15.62259	 18.42929	 -3.46492	  2.34138	 10.59882	 -0.86920	 19.78707	707.49597	 29.00	
 20.410	-14.577	 15.64433	 18.77709	 -3.63930	  3.24994	  9.58549	 -0.85804	 19.80648	707.45801	 28.90	
 20.407	 -9.736	 15.63826	 18.98141	 -3.76720	  4.14532	  8.58903	 -0.86061	 19.77867	707.44202	 28.90	
 20.401	 -4.847	 15.68714	 19.15855	 -3.86990	  5.10714	  7.57731	 -0.86017	 19.81119	707.48602	 28.90	
 20.400	  0.000	 15.68813	 19.19565	 -3.90294	  6.08986	  6.56171	 -0.85721	 19.78861	707.51001	 28.90	
 20.401	  4.847	 15.69447	 19.17994	 -3.88447	  7.09842	  5.56939	 -0.85374	 19.79236	707.39398	 28.90	
 20.407	  9.736	 15.69949	 19.07251	 -3.80470	  8.12346	  4.61324	 -0.86189	 19.79013	707.39203	 28.90	
 20.410	 14.577	 15.70209	 18.89533	 -3.69505	  9.13105	  3.72316	 -0.86218	 19.80280	707.44000	 28.90	
 20.392	 19.504	 15.70527	 18.59804	 -3.52723	 10.15650	  2.83521	 -0.86475	 19.78356	707.38599	 28.90	
 20.401	 24.295	 15.72055	 18.22305	 -3.30329	 11.13381	  2.01976	 -0.86950	 19.77277	707.41498	 28.90	
 20.405	 29.165	 15.75542	 17.79186	 -3.01741	 12.15034	  1.21087	 -0.93257	 19.80958	707.50800	 28.90	
 20.397	 34.097	 15.78831	 17.24303	 -2.62995	 13.12624	  0.44859	 -0.96724	 19.81983	707.40198	 28.90	
 20.392	 38.938	 15.80678	 16.60032	 -2.15654	 14.04551	 -0.25061	 -1.00415	 19.81699	707.41602	 28.90	
 20.396	 43.773	 15.80608	 15.89902	 -1.63359	 14.86440	 -0.85562	 -1.02121	 19.80289	707.43201	 28.90	
 20.408	 48.628	 15.80317	 15.11002	 -1.04447	 15.67686	 -1.45981	 -1.03860	 19.79772	707.48102	 28.90	
 20.410	 53.489	 15.83713	 14.28746	 -0.38681	 16.42368	 -1.95028	 -1.04538	 19.82073	707.45398	 28.90	
 20.400	 58.396	 15.83279	 13.36623	  0.33633	 17.05539	 -2.35702	 -1.03303	 19.80195	707.47998	 28.90	
 20.403	 63.259	 15.82613	 12.42194	  1.09842	 17.62996	 -2.71919	 -1.01806	 19.80942	707.53699	 28.90	
 20.413	 68.100	 15.82694	 11.46905	  1.89886	 18.09898	 -2.99458	 -1.00139	 19.80898	707.51501	 28.90	
 20.398	 72.996	 15.81618	 10.46652	  2.77194	 18.48009	 -3.22830	 -0.96323	 19.81292	707.52301	 28.80	
 20.394	 77.868	 15.80701	  9.43992	  3.69489	 18.75464	 -3.36700	 -0.89614	 19.79705	707.39697	 28.80	
 20.403	 82.668	 15.78603	  8.43597	  4.62872	 18.95535	 -3.49787	 -0.82935	 19.79696	707.42297	 28.80	
 20.392	 87.560	 15.77749	  7.41000	  5.63360	 19.06043	 -3.55876	 -0.78765	 19.80109	707.54303	 28.80	
 20.392	 92.440	 15.77193	  6.40723	  6.68640	 19.08517	 -3.53914	 -0.75807	 19.80740	707.47302	 28.80	
 20.403	 97.332	 15.72462	  5.40747	  7.70023	 19.00037	 -3.50805	 -0.74612	 19.78885	707.45300	 28.80	
 20.394	102.132	 15.70092	  4.46674	  8.73349	 18.83755	 -3.40086	 -0.74850	 19.78088	707.46399	 28.80	
 20.398	107.004	 15.69782	  3.54577	  9.78387	 18.60280	 -3.25020	 -0.75607	 19.80055	707.47998	 28.80	
 20.413	111.900	 15.66001	  2.66920	 10.80483	 18.25663	 -3.05019	 -0.76419	 19.79646	707.52100	 28.90	
 20.403	116.741	 15.62582	  1.82366	 11.81016	 17.83005	 -2.78539	 -0.79633	 19.80757	707.52802	 28.90	
 20.400	121.604	 15.60441	  1.05275	 12.77460	 17.29626	 -2.43394	 -0.83489	 19.80062	707.44501	 28.90	
 20.410	126.511	 15.58791	  0.31872	 13.72605	 16.68777	 -2.00928	 -0.85463	 19.81836	707.48499	 28.90	
 20.408	131.372	 15.55459	 -0.34858	 14.59732	 15.98585	 -1.51316	 -0.87523	 19.80702	707.49701	 28.80	
 20.396	136.227	 15.55377	 -0.94928	 15.42427	 15.24086	 -0.95614	 -0.89748	 19.82536	707.48901	 28.80	
 20.392	141.062	 15.53539	 -1.48587	 16.16515	 14.39722	 -0.32132	 -0.90227	 19.81100	707.43103	 28.80	
 20.397	145.903	 15.50842	 -1.97070	 16.83599	 13.50858	  0.36117	 -0.88118	 19.81913	707.51202	 28.80	
 20.405	150.835	 15.51231	 -2.38591	 17.43823	 12.57023	  1.13335	 -0.85304	 19.83090	707.42603	 28.80	
 20.401	155.705	 15.45199	 -2.74938	 17.90660	 11.56413	  1.91543	 -0.85055	 19.79170	707.48499	 28.80	
 20.392	160.496	 15.46118	 -3.01765	 18.31100	 10.57398	  2.75009	 -0.82369	 19.79637	707.39899	 28.80	
 20.410	165.423	 15.45333	 -3.26375	 18.65198	  9.52433	  3.62288	 -0.79559	 19.81975	707.47803	 28.70	
 20.407	170.264	 15.43210	 -3.41610	 18.86068	  8.48468	  4.53818	 -0.76443	 19.79522	707.46198	 28.70	
 20.401	175.153	 15.44931	 -3.51805	 19.01148	  7.43977	  5.52765	 -0.73112	 19.83056	707.51300	 28.70	
  0.141	 45.000	 19.82409	 10.50443	  9.89684	 10.03388	 10.24274	  0.15010	 19.79695	707.50500	 28.70	
  4.001	128.691	 19.78939	  8.85735	 11.30547	 11.79245	  8.42972	  0.07456	 19.81595	707.49701	 28.70	
  4.002	 76.995	 19.78457	 10.86882	  9.31909	 12.28088	  7.95481	  0.09260	 19.81170	707.47998	 28.80	
  4.002	 25.892	 19.79072	 12.58018	  7.74581	 10.86414	  9.19796	  0.08397	 19.82470	707.42902	 28.80	
  4.002	-25.892	 19.79457	 12.54212	  7.74348	  8.81976	 11.21531	  0.05724	 19.83384	707.48102	 28.80	
  4.002	-76.995	 19.77771	 10.79739	  9.29006	  7.55302	 12.58769	  0.03874	 19.83036	707.35901	 28.80	
  4.001	-128.691	 19.75811	  8.75685	 11.30639	  8.03760	 12.10521	  0.08017	 19.80894	707.44800	 28.70	
  4.000	180.000	 19.73521	  7.93321	 12.26304	  9.84911	 10.14765	  0.09469	 19.78241	707.50201	 28.70	
  8.000	180.000	 19.34878	  5.18128	 14.46407	  9.47440	  9.78141	 -0.19006	 19.81715	707.55798	 28.70	
  7.991	-152.370	 19.32747	  5.62098	 13.85479	  7.16951	 12.01065	 -0.20754	 19.81124	707.43799	 28.70	
  7.997	-124.550	 19.30286	  7.02910	 12.15462	  5.57817	 13.87351	 -0.21811	 19.80449	707.51001	 28.70	
  8.006	-96.837	 19.30761	  9.10434	  9.90790	  4.74874	 14.74024	 -0.29224	 19.80825	707.48102	 28.70	
  7.988	-69.228	 19.30634	 11.46317	  7.64476	  5.01657	 14.41888	 -0.31761	 19.79985	707.47803	 28.70	
  7.997	-41.563	 19.30649	 13.50338	  5.81281	  6.11494	 12.95823	 -0.27963	 19.77545	707.49597	 28.70	
  8.008	-13.821	 19.33894	 14.73224	  4.90389	  8.16662	 10.79074	 -0.24333	 19.79622	707.47998	 28.70	
  8.008	 13.821	 19.38855	 14.79768	  4.91489	 10.48324	  8.56633	 -0.21764	 19.83148	707.46997	 28.70	
  7.997	 41.563	 19.40949	 13.68578	  5.77242	 12.70243	  6.56103	 -0.19193	 19.83192	707.47699	 28.70	
  7.988	 69.228	 19.39215	 11.65889	  7.66760	 14.16627	  5.46332	 -0.20794	 19.80156	707.49701	 28.70	
  8.006	 96.837	 19.40613	  9.32037	  9.90399	 14.51721	  5.26982	 -0.22434	 19.81098	707.46503	 28.70	
  7.997	124.550	 19.38000	  7.20337	 12.18120	 13.64594	  5.94216	 -0.21298	 19.80721	707.57001	 28.70	
  7.991	152.370	 19.36851	  5.70996	 13.86518	 11.75387	  7.62568	 -0.18559	 19.81145	707.45300	 28.70	
 12.009	161.059	 18.53117	  2.69544	 15.96137	 11.19011	  6.70882	 -0.55579	 19.84375	707.53699	 28.70	
 12.013	142.081	 18.55005	  3.65743	 14.72879	 13.46528	  4.78241	 -0.54749	 19.84874	707.46198	 28.70	
 12.006	123.113	 18.56870	  5.30377	 12.75118	 15.20564	  3.19511	 -0.60897	 19.81884	707.54999	 28.60	
 12.007	104.200	 18.61978	  7.44054	 10.41123	 16.23582	  2.43807	 -0.65976	 19.82706	707.57800	 28.60	
 11.989	 85.301	 18.61413	  9.78886	  8.07452	 16.39836	  2.27948	 -0.63813	 19.78704	707.55103	 28.60	
 12.013	 66.294	 18.63522	 12.21525	  5.70189	 15.71427	  2.70330	 -0.56903	 19.81748	707.49701	 28.60	
 12.012	 47.388	 18.61337	 14.31803	  3.74737	 14.24301	  3.78606	 -0.52242	 19.81362	707.56598	 28.60	
 11.990	 28.440	 18.60327	 15.86662	  2.46183	 12.16607	  5.59236	 -0.59165	 19.82163	707.49402	 28.60	
 11.991	  9.464	 18.57253	 16.64373	  1.82187	  9.74772	  7.77753	 -0.58689	 19.81196	707.52802	 28.60	
 11.991	 -9.464	 18.58100	 16.61781	  1.88430	  7.33443	 10.14176	 -0.59942	 19.84110	707.54303	 28.60	
 11.990	-28.440	 18.54253	 15.74699	  2.49975	  5.13033	 12.47768	 -0.59701	 19.83620	707.54199	 28.60	
 12.012	-47.388	 18.50451	 14.12519	  3.71132	  3.40371	 14.49508	 -0.65679	 19.81609	707.51001	 28.50	
 12.013	-66.294	 18.45771	 11.96054	  5.60994	  2.23591	 15.91634	 -0.71096	 19.79543	707.53400	 28.50	
 11.989	-85.301	 18.47011	  9.53838	  7.98437	  1.83647	 16.59809	 -0.69949	 19.82264	707.52301	 28.50	
 12.007	-104.200	 18.45963	  7.15681	 10.36396	  2.03632	 16.40420	 -0.64503	 19.82163	707.55298	 28.50	
 12.006	-123.113	 18.46290	  5.10609	 12.70259	  2.90328	 15.37890	 -0.55248	 19.82784	707.54303	 28.50	
 12.013	-142.081	 18.45959	  3.54955	 14.65959	  4.35749	 13.65000	 -0.57257	 19.83208	707.46100	 28.50	
 12.009	-161.059	 18.47903	  2.64596	 15.91326	  6.30964	 11.41696	 -0.59260	 19.82930	707.57001	 28.50	
 16.000	180.000	 17.22222	 -0.63878	 17.85608	  7.74578	  7.98550	 -0.81104	 19.81001	707.49701	 28.50	
 15.990	-165.604	 17.22838	 -0.41696	 17.55549	  5.39145	 10.38985	 -0.80931	 19.85102	707.53101	 28.50	
 16.002	-151.165	 17.18662	  0.26313	 16.56537	  3.32555	 12.74280	 -0.82198	 19.83356	707.49298	 28.50	
 16.002	-136.836	 17.18513	  1.42527	 15.01003	  1.53546	 14.81432	 -0.78769	 19.83591	707.46100	 28.50	
 15.995	-122.439	 17.19765	  3.02569	 12.96076	  0.09240	 16.49166	 -0.78699	 19.84497	707.45001	 28.50	
 15.993	-107.966	 17.21721	  5.00460	 10.58510	 -0.81485	 17.56567	 -0.82374	 19.82787	707.45801	 28.50	
 16.005	-93.629	 17.24298	  7.26798	  8.14933	 -1.22509	 18.04353	 -0.78141	 19.83736	707.54498	 28.50	
 15.992	-79.234	 17.25326	  9.68665	  5.65917	 -1.14176	 17.85543	 -0.74134	 19.82572	707.47699	 28.40	
 16.009	-64.774	 17.27281	 12.10446	  3.46439	 -0.56251	 17.05417	 -0.76204	 19.83680	707.47302	 28.40	
 15.997	-50.364	 17.31411	 14.27765	  1.76761	  0.58153	 15.66411	 -0.81492	 19.83441	707.41803	 28.50	
 15.997	-36.045	 17.32607	 16.08786	  0.34840	  2.16322	 13.75876	 -0.83148	 19.81999	707.41302	 28.50	
 16.000	-21.597	 17.35646	 17.36395	 -0.61456	  4.10988	 11.51148	 -0.85105	 19.81768	707.41302	 28.50	
 16.003	 -7.169	 17.36982	 18.05119	 -1.14513	  6.25531	  9.14416	 -0.87718	 19.81538	707.47198	 28.50	
 16.003	  7.169	 17.37684	 18.09262	 -1.16908	  8.69642	  6.72566	 -0.86948	 19.80048	707.46997	 28.50	
 16.000	 21.597	 17.43813	 17.55309	 -0.71646	 11.14163	  4.50554	 -0.91388	 19.84587	707.43701	 28.50	
 15.997	 36.045	 17.44820	 16.33445	  0.30353	 13.43816	  2.62883	 -0.88735	 19.81638	707.42603	 28.50	
 15.997	 50.364	 17.47538	 14.60768	  1.73926	 15.37838	  1.13448	 -0.80232	 19.81233	707.40802	 28.50	
 16.009	 64.774	 17.48003	 12.45473	  3.55350	 16.84976	  0.03675	 -0.85274	 19.80789	707.37299	 28.50	
 15.992	 79.234	 17.46893	 10.05714	  5.76900	 17.71699	 -0.57524	 -0.92106	 19.81309	707.50000	 28.60	
 16.005	 93.629	 17.42880	  7.63726	  8.21060	 17.89770	 -0.71880	 -0.89779	 19.78913	707.46100	 28.60	
 15.993	107.966	 17.42447	  5.36701	 10.62260	 17.48267	 -0.30800	 -0.89246	 19.82478	707.46399	 28.60	
 15.995	122.439	 17.34987	  3.33910	 12.97033	 16.37534	  0.53216	 -0.88050	 19.79834	707.46399	 28.60	
 16.002	136.836	 17.29509	  1.69025	 15.00643	 14.70349	  1.83224	 -0.83543	 19.79138	707.38397	 28.60	
 16.002	151.165	 17.26589	  0.44968	 16.56927	 12.61095	  3.52197	 -0.82068	 19.80107	707.45300	 28.70	
 15.990	165.604	 17.22769	 -0.34905	 17.51886	 10.21964	  5.57671	 -0.83258	 19.78166	707.40802	 28.70	
 20.003	168.362	 15.58756	 -3.11748	 18.67231	  8.97005	  4.32549	 -0.77141	 19.77052	707.47198	 28.70	
 20.008	156.764	 15.63234	 -2.58861	 17.95371	 11.39246	  2.29607	 -0.83984	 19.80617	707.47198	 28.70	
 20.000	145.147	 15.68300	 -1.64994	 16.67681	 13.65260	  0.47256	 -0.88321	 19.80188	707.50000	 28.80	
 19.995	133.545	 15.67975	 -0.40986	 14.92961	 15.58555	 -1.04154	 -0.88935	 19.76571	707.50500	 28.80	
 20.009	121.926	 15.74952	  1.19271	 12.86738	 17.17948	 -2.17831	 -0.82943	 19.77887	707.52600	 28.80	
 20.005	110.327	 15.82140	  3.10417	 10.55219	 18.29263	 -2.90702	 -0.77147	 19.79011	707.48901	 28.80	
 19.989	 98.733	 15.88790	  5.26803	  8.14777	 18.86931	 -3.24482	 -0.75102	 19.78053	707.49597	 28.80	
 19.999	 87.075	 15.95024	  7.60220	  5.71243	 18.98484	 -3.33307	 -0.80343	 19.80672	707.46997	 28.80	
 19.992	 75.457	 15.97986	 10.01128	  3.43398	 18.55750	 -3.07983	 -0.92882	 19.79931	707.48602	 28.80	
 20.009	 63.844	 15.97950	 12.33748	  1.39963	 17.60780	 -2.53194	 -1.00325	 19.78133	707.51001	 28.80	
 19.989	 52.269	 16.00998	 14.49470	 -0.30969	 16.20801	 -1.58403	 -1.01680	 19.81623	707.51001	 28.80	
 19.999	 40.602	 15.96631	 16.32397	 -1.74699	 14.34444	 -0.27325	 -0.99777	 19.80161	707.46899	 28.80	
 20.004	 29.051	 15.91887	 17.72257	 -2.76909	 12.17087	  1.42250	 -0.91359	 19.78225	707.53497	 28.80	
 20.005	 17.433	 15.92119	 18.70304	 -3.35763	  9.83545	  3.39186	 -0.87114	 19.83014	707.52002	 28.70	
 20.006	  5.780	 15.87298	 19.09042	 -3.62469	  7.42509	  5.51382	 -0.86562	 19.78786	707.45001	 28.70	
 20.006	 -5.780	 15.86406	 19.08387	 -3.62986	  5.07845	  7.88381	 -0.86577	 19.82869	707.48901	 28.70	
 20.005	-17.433	 15.79819	 18.54137	 -3.34257	  2.91179	 10.23313	 -0.86338	 19.80753	707.50403	 28.70	
 20.004	-29.051	 15.79523	 17.50768	 -2.73142	  0.86906	 12.55277	 -0.84862	 19.82041	707.43201	 28.70	
 19.999	-40.602	 15.75462	 15.99851	 -1.75237	 -0.81933	 14.63457	 -0.78803	 19.80079	707.32397	 28.70	
 19.989	-52.269	 15.74131	 14.10474	 -0.34338	 -2.10161	 16.40941	 -0.67678	 19.81159	707.47998	 28.70	
 20.009	-63.844	 15.68491	 11.91229	  1.35155	 -2.99840	 17.75062	 -0.56537	 19.79959	707.42297	 28.70	
 19.992	-75.457	 15.66341	  9.62155	  3.25262	 -3.58201	 18.64889	 -0.55665	 19.81909	707.47998	 28.70	
 19.999	-87.075	 15.63541	  7.23007	  5.56502	 -3.79676	 19.02935	 -0.58105	 19.81304	707.44501	 28.60	
 19.989	-98.733	 15.65033	  4.89857	  8.11537	 -3.60919	 18.95235	 -0.66551	 19.84762	707.45001	 28.70	
 20.005	-110.327	 15.60787	  2.77113	 10.48906	 -3.21599	 18.36192	 -0.77050	 19.84467	707.45001	 28.60	
 20.009	-121.926	 15.57853	  0.90573	 12.81269	 -2.46308	 17.24270	 -0.82283	 19.83862	707.51501	 28.60	
 19.995	-133.545	 15.52695	 -0.66341	 14.89295	 -1.35003	 15.62399	 -0.80577	 19.80475	707.44000	 28.60	
 20.000	-145.147	 15.55033	 -1.85654	 16.63468	  0.18992	 13.68134	 -0.73619	 19.81906	707.36499	 28.60	
 20.008	-156.764	 15.54761	 -2.70650	 17.91816	  2.11416	 11.43830	 -0.67177	 19.82084	707.46198	 28.50	
 20.003	-168.362	 15.59539	 -3.16363	 18.71438	  4.25605	  9.06943	 -0.67072	 19.83554	707.53699	 28.50	
 20.000	180.000	 15.60499	 -3.32196	 18.96278	  6.53529	  6.64544	 -0.69965	 19.82031	707.38599	 28.50	
