FileType=PCF
NHL=14
Date=03/11/19	10:12:29
Facility=APL
Serial=16071-5
Customer=NASA
NP=6
Mach=0.230000
Calibration=1:1
CalPts=490
TstPts=95
PortNumbering=AP Standard
Units=Torr C m/s kg/m^3 deg mm 
Theta[deg]	Phi[deg]	P1[Torr]	P2[Torr]	P3[Torr]	P4[Torr]	P5[Torr]	P6[Torr]	Pt[Torr]	Ps[Abs,Torr]	Ts[C]	
  0.000	  0.000	 25.65307	 10.70644	 10.95774	 11.33754	 10.31407	  0.60341	 25.63499	712.03998	 19.40	
  1.691	128.401	 25.64712	  9.79221	 11.78192	 12.38452	  9.20245	  0.58086	 25.64195	712.08002	 19.40	
  1.692	 77.194	 25.65479	 10.92807	 10.61179	 12.65973	  8.97417	  0.62359	 25.64669	712.13000	 19.30	
  1.699	 26.182	 25.66409	 11.93627	  9.67981	 11.92923	  9.69266	  0.63779	 25.65297	712.10999	 19.30	
  1.699	-26.182	 25.65411	 11.96921	  9.68750	 10.72602	 10.83371	  0.60988	 25.63739	712.04999	 19.30	
  1.692	-77.194	 25.66841	 11.03186	 10.64536	  9.99061	 11.55574	  0.58053	 25.64707	712.09003	 19.30	
  1.691	-128.401	 25.65494	  9.87843	 11.80357	 10.24662	 11.30811	  0.55086	 25.64489	712.09003	 19.30	
  1.700	180.000	 25.65674	  9.34238	 12.32053	 11.29923	 10.27287	  0.54969	 25.64090	712.15997	 19.30	
  3.400	180.000	 25.59795	  7.94910	 13.66565	 11.14816	 10.16711	  0.43664	 25.65028	712.07001	 19.30	
  3.388	-152.325	 25.62163	  8.33332	 13.35162	  9.90365	 11.42474	  0.44008	 25.64813	712.16998	 19.20	
  3.397	-124.529	 25.62290	  9.18478	 12.45276	  8.95417	 12.45408	  0.45060	 25.64141	712.03998	 19.20	
  3.399	-96.763	 25.62994	 10.33826	 11.18380	  8.51801	 12.95818	  0.47642	 25.63352	712.06000	 19.20	
  3.394	-69.283	 25.65004	 11.64366	  9.88906	  8.66899	 12.79068	  0.51299	 25.65113	712.17999	 19.20	
  3.400	-41.398	 25.63065	 12.78293	  8.79417	  9.44091	 11.94128	  0.56749	 25.63559	712.07001	 19.20	
  3.401	-14.021	 25.63275	 13.42749	  8.16368	 10.59960	 10.79294	  0.60021	 25.64456	712.02002	 19.20	
  3.401	 14.021	 25.62198	 13.38714	  8.15445	 11.91261	  9.52446	  0.62317	 25.64914	712.00000	 19.20	
  3.400	 41.398	 25.61933	 12.67240	  8.75125	 13.09544	  8.39623	  0.61874	 25.64971	712.04999	 19.20	
  3.394	 69.283	 25.60015	 11.46041	  9.84472	 13.85620	  7.69836	  0.59191	 25.63765	712.00000	 19.20	
  3.399	 96.763	 25.59143	 10.13543	 11.12847	 13.99876	  7.52483	  0.55090	 25.64517	712.12000	 19.20	
  3.397	124.529	 25.56950	  8.98934	 12.39159	 13.47278	  7.93415	  0.50839	 25.64253	712.01001	 19.20	
  3.388	152.325	 25.57006	  8.20322	 13.30885	 12.44679	  8.89657	  0.45748	 25.63566	712.06000	 19.20	
  5.099	161.165	 25.43183	  6.68993	 14.73211	 12.25718	  8.65387	  0.25959	 25.64339	712.14001	 19.10	
  5.109	142.013	 25.40688	  7.18937	 14.01898	 13.56705	  7.48835	  0.31652	 25.63525	712.03003	 19.10	
  5.095	123.033	 25.40478	  8.07856	 12.97305	 14.56980	  6.66206	  0.38033	 25.64614	711.97998	 19.10	
  5.105	104.191	 25.40881	  9.27460	 11.65758	 15.16342	  6.17964	  0.37366	 25.62939	711.97998	 19.10	
  5.093	 85.207	 25.43063	 10.55495	 10.29282	 15.30533	  6.14052	  0.46839	 25.63894	711.84998	 19.10	
  5.104	 66.290	 25.45839	 11.95203	  8.99297	 15.00018	  6.46718	  0.50687	 25.64660	711.97998	 19.10	
  5.094	 47.331	 25.46780	 13.21795	  7.89297	 14.20486	  7.09073	  0.48680	 25.63860	711.90002	 19.10	
  5.089	 28.397	 25.50605	 14.20396	  7.10923	 13.11125	  8.08136	  0.55582	 25.65659	711.90997	 19.10	
  5.096	  9.576	 25.50551	 14.76315	  6.69386	 11.79027	  9.31668	  0.54871	 25.64317	712.01001	 19.10	
  5.096	 -9.576	 25.53619	 14.84601	  6.70466	 10.44161	 10.63588	  0.52841	 25.64467	711.97998	 19.10	
  5.089	-28.397	 25.54421	 14.35780	  7.13941	  9.17981	 11.90274	  0.49088	 25.63971	711.95001	 19.10	
  5.094	-47.331	 25.55222	 13.46252	  7.95843	  8.11795	 13.10168	  0.43429	 25.64645	711.97998	 19.10	
  5.104	-66.290	 25.53497	 12.24733	  9.05155	  7.35399	 13.93832	  0.39480	 25.63314	711.98999	 19.10	
  5.093	-85.207	 25.54171	 10.92057	 10.33811	  7.03845	 14.35084	  0.35318	 25.62948	711.89001	 19.10	
  5.105	-104.191	 25.53292	  9.57559	 11.72176	  7.12967	 14.21510	  0.32719	 25.63370	712.00000	 19.10	
  5.095	-123.033	 25.51281	  8.45055	 12.98407	  7.59100	 13.58995	  0.29068	 25.63001	712.02002	 19.10	
  5.109	-142.013	 25.51934	  7.46055	 14.06644	  8.46246	 12.57623	  0.29687	 25.65732	711.98999	 19.10	
  5.099	-161.165	 25.47848	  6.80649	 14.74843	  9.61670	 11.32012	  0.28346	 25.64671	711.98999	 19.10	
  5.100	180.000	 25.45789	  6.51855	 14.98531	 10.93364	  9.97965	  0.24275	 25.64186	712.02002	 19.10	
  6.800	180.000	 25.22787	  5.03727	 16.25927	 10.61480	  9.72250	  0.04605	 25.65035	712.00000	 19.10	
  6.796	-166.229	 25.25760	  5.26442	 16.10116	  9.33411	 11.05193	  0.03815	 25.65059	711.90997	 19.10	
  6.808	-152.311	 25.27579	  5.76370	 15.57072	  8.10220	 12.34949	  0.07153	 25.64315	712.00000	 19.10	
  6.795	-138.383	 25.30621	  6.50829	 14.74334	  7.09966	 13.54958	  0.05903	 25.64141	711.88000	 19.20	
  6.792	-124.591	 25.31824	  7.40761	 13.67925	  6.32126	 14.56485	  0.08069	 25.64510	711.97998	 19.10	
  6.787	-110.754	 25.34091	  8.53229	 12.44235	  5.82571	 15.26719	  0.13466	 25.64365	711.98999	 19.20	
  6.800	-96.985	 25.36182	  9.73518	 11.12755	  5.57959	 15.64290	  0.13703	 25.65235	711.98999	 19.20	
  6.800	-83.015	 25.36517	 11.08215	  9.78014	  5.58686	 15.65101	  0.17010	 25.64404	711.94000	 19.20	
  6.787	-69.246	 25.37899	 12.40159	  8.52675	  5.88427	 15.29936	  0.20320	 25.64442	711.96997	 19.20	
  6.792	-55.409	 25.37449	 13.65278	  7.39056	  6.47482	 14.56409	  0.21703	 25.64391	711.95001	 19.20	
  6.795	-41.617	 25.38414	 14.71792	  6.45887	  7.31557	 13.50532	  0.24814	 25.66021	712.03003	 19.20	
  6.808	-27.689	 25.35756	 15.55058	  5.73937	  8.35593	 12.29659	  0.29590	 25.64884	711.96997	 19.20	
  6.796	-13.771	 25.33669	 16.02699	  5.30693	  9.60231	 10.98821	  0.36878	 25.63877	712.02002	 19.20	
  6.800	  0.000	 25.33502	 16.13517	  5.20778	 10.90864	  9.72187	  0.34953	 25.66121	711.96997	 19.20	
  6.796	 13.771	 25.29917	 15.89563	  5.35100	 12.20817	  8.46416	  0.39710	 25.64544	711.92999	 19.20	
  6.808	 27.689	 25.27544	 15.31230	  5.78542	 13.52388	  7.27735	  0.36012	 25.65357	711.78003	 19.20	
  6.795	 41.617	 25.25216	 14.38788	  6.44480	 14.65631	  6.28101	  0.35683	 25.64783	712.03998	 19.20	
  6.792	 55.409	 25.24076	 13.24216	  7.35761	 15.58149	  5.53312	  0.36020	 25.65564	711.90002	 19.20	
  6.787	 69.246	 25.23040	 11.94676	  8.47635	 16.22368	  5.02284	  0.24868	 25.64918	711.97998	 19.20	
  6.800	 83.015	 25.21692	 10.61014	  9.72507	 16.55322	  4.71309	  0.27432	 25.66504	711.95001	 19.20	
  6.800	 96.985	 25.17653	  9.33308	 11.06853	 16.50945	  4.64839	  0.17039	 25.64489	712.00000	 19.30	
  6.787	110.754	 25.17303	  8.09631	 12.40033	 16.14084	  4.93042	  0.15371	 25.66343	711.96002	 19.30	
  6.792	124.591	 25.15977	  6.96803	 13.65487	 15.45822	  5.43647	  0.20688	 25.66026	711.94000	 19.30	
  6.795	138.383	 25.15677	  6.09772	 14.71003	 14.50377	  6.18479	  0.10266	 25.65270	711.92999	 19.30	
  6.808	152.311	 25.16711	  5.47486	 15.54480	 13.30923	  7.19497	  0.04147	 25.64998	711.96002	 19.30	
  6.796	166.229	 25.19307	  5.15201	 16.06855	 11.94862	  8.42151	  0.04787	 25.64508	712.02002	 19.30	
  8.491	168.704	 24.84504	  3.56319	 17.32326	 11.65025	  8.06377	 -0.20200	 25.64259	712.01001	 19.30	
  8.502	157.493	 24.83304	  3.82746	 16.89895	 13.03078	  6.80703	 -0.20149	 25.65708	712.00000	 19.30	
  8.494	146.194	 24.80599	  4.32994	 16.16902	 14.31364	  5.69608	 -0.17006	 25.64691	712.02002	 19.30	
  8.495	135.039	 24.79815	  5.04228	 15.21472	 15.44883	  4.75586	 -0.12364	 25.65178	711.94000	 19.30	
  8.487	123.723	 24.81066	  5.97373	 14.07002	 16.43569	  3.99986	 -0.03647	 25.66219	711.92999	 19.30	
  8.492	112.575	 24.80183	  7.04167	 12.81360	 17.14327	  3.46787	 -0.11306	 25.64547	712.01001	 19.30	
  8.510	101.220	 24.81371	  8.30896	 11.41809	 17.61039	  3.12763	 -0.09435	 25.64756	712.04999	 19.30	
  8.500	 90.000	 24.84606	  9.62030	 10.06183	 17.78457	  3.05034	 -0.05120	 25.66227	712.00000	 19.40	
  8.510	 78.780	 24.87340	 10.94150	  8.73810	 17.68954	  3.22125	 -0.00035	 25.65967	712.09998	 19.40	
  8.492	 67.425	 24.89650	 12.33860	  7.45820	 17.27185	  3.56905	  0.00416	 25.67025	712.03003	 19.40	
  8.487	 56.277	 24.91481	 13.63567	  6.38597	 16.60335	  4.08235	  0.03164	 25.66487	712.06000	 19.40	
  8.495	 44.961	 24.92634	 14.84033	  5.43471	 15.68188	  4.83960	  0.07784	 25.65338	712.00000	 19.40	
  8.494	 33.806	 24.95591	 15.87253	  4.69501	 14.58930	  5.76642	  0.12223	 25.66435	711.91998	 19.40	
  8.502	 22.507	 24.96986	 16.63052	  4.16022	 13.33034	  6.87166	  0.13325	 25.65331	712.03003	 19.40	
  8.491	 11.296	 25.00707	 17.10827	  3.79544	 11.97552	  8.10988	  0.12436	 25.65842	711.97998	 19.40	
  8.500	  0.000	 25.02940	 17.31244	  3.64177	 10.60569	  9.39186	  0.13378	 25.65564	712.07001	 19.40	
  8.491	-11.296	 25.05690	 17.22320	  3.75095	  9.25505	 10.74645	  0.10699	 25.65379	712.03998	 19.40	
  8.502	-22.507	 25.08364	 16.85937	  4.09752	  7.97809	 12.06735	  0.09474	 25.65840	712.06000	 19.40	
  8.494	-33.806	 25.09861	 16.19924	  4.65626	  6.84216	 13.36907	  0.03291	 25.65807	711.96997	 19.40	
  8.495	-44.961	 25.09953	 15.30021	  5.43041	  5.90177	 14.49715	  0.00887	 25.65998	712.09998	 19.50	
  8.487	-56.277	 25.10246	 14.16470	  6.41269	  5.09406	 15.56990	 -0.04085	 25.65259	712.07001	 19.50	
  8.492	-67.425	 25.09973	 12.91985	  7.51339	  4.49495	 16.31647	 -0.08048	 25.65462	711.98999	 19.50	
  8.510	-78.780	 25.09458	 11.54407	  8.79914	  4.11769	 16.78955	 -0.10733	 25.66093	712.03003	 19.50	
  8.500	-90.000	 25.07443	 10.16577	 10.13771	  4.01266	 16.92305	 -0.12066	 25.64337	711.92999	 19.50	
  8.510	-101.220	 25.05644	  8.86882	 11.47289	  4.07626	 16.78649	 -0.12210	 25.65269	712.03003	 19.50	
  8.492	-112.575	 25.04200	  7.59506	 12.83492	  4.36807	 16.33175	 -0.14592	 25.65290	712.02002	 19.50	
  8.487	-123.723	 25.02194	  6.45774	 14.10630	  4.87803	 15.59993	 -0.17098	 25.64042	712.03003	 19.50	
  8.495	-135.039	 25.00193	  5.50735	 15.23931	  5.64629	 14.57649	 -0.17218	 25.64553	711.98999	 19.50	
  8.494	-146.194	 24.97570	  4.72557	 16.18395	  6.57909	 13.42226	 -0.18285	 25.64108	712.02002	 19.60	
  8.502	-157.493	 24.94960	  4.11891	 16.90675	  7.69595	 12.10916	 -0.20960	 25.65238	712.07001	 19.60	
  8.491	-168.704	 24.92422	  3.74147	 17.33418	  8.96047	 10.78651	 -0.22801	 25.64884	712.00000	 19.60	
  8.500	180.000	 24.88686	  3.53506	 17.48207	 10.29088	  9.41029	 -0.22180	 25.64996	712.15002	 19.60	
 10.200	180.000	 24.47548	  1.98926	 18.63970	  9.89986	  9.05601	 -0.45344	 25.66410	711.96997	 19.60	
 10.191	-170.497	 24.50922	  2.16341	 18.50820	  8.55819	 10.44786	 -0.46453	 25.66978	712.00000	 19.60	
 10.210	-161.034	 24.52683	  2.50891	 18.15205	  7.26505	 11.79356	 -0.46031	 25.66191	712.03998	 19.60	
 10.194	-151.526	 24.54947	  2.99309	 17.51510	  6.10166	 13.15012	 -0.41999	 25.64753	711.27002	 19.60	
 10.190	-142.105	 24.60236	  3.63481	 16.71127	  5.05822	 14.40326	 -0.40343	 25.67079	711.20001	 19.60	
 10.215	-132.646	 24.61725	  4.48156	 15.67659	  4.14192	 15.61470	 -0.41621	 25.66641	711.28998	 19.60	
 10.203	-123.092	 24.62474	  5.47189	 14.46515	  3.42408	 16.57781	 -0.41378	 25.65001	711.23999	 19.70	
 10.192	-113.678	 24.63649	  6.60082	 13.17450	  2.93240	 17.28058	 -0.40344	 25.64956	711.26001	 19.70	
 10.208	-104.249	 24.67154	  7.84777	 11.82726	  2.61053	 17.78019	 -0.38136	 25.66955	711.21997	 19.70	
 10.210	-94.801	 24.68410	  9.20900	 10.42601	  2.48249	 18.09866	 -0.36583	 25.65218	711.40002	 19.70	
 10.210	-85.199	 24.70511	 10.57412	  9.04410	  2.53708	 18.06555	 -0.36691	 25.65211	711.35999	 19.70	
 10.208	-75.751	 24.71179	 11.96809	  7.70046	  2.71979	 17.82590	 -0.36694	 25.65388	711.35999	 19.70	
 10.192	-66.322	 24.72573	 13.33652	  6.49983	  3.07919	 17.27392	 -0.34109	 25.66231	711.70001	 19.70	
 10.203	-56.908	 24.72761	 14.60304	  5.36465	  3.63912	 16.54176	 -0.30413	 25.65488	711.39001	 19.70	
 10.215	-47.354	 24.72521	 15.78286	  4.35540	  4.37844	 15.56662	 -0.27766	 25.66446	711.28998	 19.70	
 10.190	-37.895	 24.73167	 16.74607	  3.57816	  5.34045	 14.35042	 -0.26050	 25.66628	711.25000	 19.70	
 10.194	-28.474	 24.71915	 17.52644	  2.93662	  6.38440	 13.09624	 -0.23408	 25.66849	711.34003	 19.80	
 10.210	-18.966	 24.68918	 18.10395	  2.44683	  7.57308	 11.72896	 -0.17838	 25.66120	711.39001	 19.80	
 10.191	 -9.503	 24.67784	 18.41001	  2.18253	  8.89425	 10.39231	 -0.13449	 25.67026	711.28003	 19.80	
 10.200	  0.000	 24.65429	 18.48745	  2.07510	 10.26095	  9.03756	 -0.11529	 25.67512	711.22998	 19.80	
 10.191	  9.503	 24.63019	 18.28594	  2.22913	 11.65220	  7.72535	 -0.12643	 25.67403	711.42999	 19.80	
 10.210	 18.966	 24.59218	 17.85273	  2.52389	 13.04180	  6.44392	 -0.11448	 25.67606	711.41998	 19.80	
 10.194	 28.474	 24.55616	 17.16987	  2.96650	 14.35062	  5.26277	 -0.09848	 25.66786	711.40002	 19.80	
 10.190	 37.895	 24.53114	 16.31253	  3.55837	 15.56590	  4.21273	 -0.12180	 25.67048	711.40002	 19.80	
 10.215	 47.354	 24.50040	 15.21617	  4.36202	 16.67128	  3.29436	 -0.20138	 25.67916	711.37000	 19.90	
 10.203	 56.908	 24.49611	 13.97653	  5.34350	 17.58386	  2.59244	 -0.25275	 25.68854	711.29999	 19.90	
 10.192	 66.322	 24.47047	 12.64937	  6.43550	 18.25136	  2.08375	 -0.25936	 25.67823	711.25000	 19.90	
 10.208	 75.751	 24.45324	 11.25071	  7.65916	 18.70619	  1.67103	 -0.26737	 25.67547	711.37000	 19.90	
 10.210	 85.199	 24.43039	  9.90210	  8.98125	 18.91829	  1.47559	 -0.29134	 25.66538	711.39001	 19.90	
 10.210	 94.801	 24.40998	  8.52913	 10.38824	 18.88407	  1.48090	 -0.34434	 25.66995	711.34003	 19.90	
 10.208	104.249	 24.37610	  7.20025	 11.77746	 18.61572	  1.64428	 -0.38010	 25.66847	711.20001	 19.90	
 10.192	113.678	 24.36388	  5.99835	 13.14096	 18.09833	  1.97319	 -0.38119	 25.66364	711.32001	 19.90	
 10.203	123.092	 24.36283	  4.90034	 14.44324	 17.36947	  2.47078	 -0.35521	 25.67694	711.22998	 19.90	
 10.215	132.646	 24.34974	  3.93745	 15.64354	 16.39386	  3.21241	 -0.37148	 25.66279	711.27002	 19.90	
 10.190	142.105	 24.37066	  3.18056	 16.67253	 15.25757	  4.17419	 -0.41087	 25.68083	711.31000	 19.90	
 10.194	151.526	 24.38406	  2.61570	 17.50648	 14.01539	  5.24233	 -0.44322	 25.66880	711.28998	 20.00	
 10.210	161.034	 24.41549	  2.22909	 18.15048	 12.68888	  6.42883	 -0.44331	 25.69149	711.37000	 20.00	
 10.191	170.497	 24.44636	  2.02038	 18.50588	 11.29316	  7.75433	 -0.44464	 25.67810	711.29999	 20.00	
 11.899	171.783	 23.90085	  0.47504	 19.58874	 10.83229	  7.29814	 -0.66631	 25.65527	711.28998	 20.00	
 11.890	163.610	 23.89103	  0.67483	 19.26685	 12.23371	  5.99228	 -0.66624	 25.67853	711.23999	 20.00	
 11.889	155.445	 23.86153	  0.99074	 18.70791	 13.58370	  4.77924	 -0.67397	 25.66622	711.29999	 20.00	
 11.909	147.299	 23.83054	  1.40839	 17.98590	 14.89163	  3.62537	 -0.67270	 25.67037	711.29999	 20.00	
 11.902	139.148	 23.81712	  2.04846	 17.06270	 16.11076	  2.59316	 -0.64000	 25.67178	711.22998	 20.00	
 11.894	130.867	 23.82184	  2.86893	 15.96002	 17.23286	  1.71772	 -0.61271	 25.67408	711.29999	 20.00	
 11.897	122.732	 23.82717	  3.82784	 14.74179	 18.17435	  1.03056	 -0.60798	 25.67006	711.26001	 20.00	
 11.903	114.597	 23.84016	  4.90983	 13.45763	 18.93225	  0.54649	 -0.63443	 25.68255	711.34003	 20.10	
 11.893	106.346	 23.85273	  6.11504	 12.06201	 19.48829	  0.20399	 -0.65211	 25.66541	711.34998	 20.10	
 11.892	 98.155	 23.87797	  7.40717	 10.64586	 19.83565	  0.01939	 -0.62009	 25.67134	711.21997	 20.10	
 11.900	 90.000	 23.90751	  8.75443	  9.23677	 19.98605	 -0.09865	 -0.58738	 25.68065	711.29999	 20.10	
 11.892	 81.845	 23.92329	 10.11101	  7.89225	 19.90298	  0.00000	 -0.53901	 25.67581	711.20001	 20.10	
 11.893	 73.654	 23.94256	 11.49100	  6.59467	 19.61586	  0.26715	 -0.52727	 25.67275	711.15997	 20.10	
 11.903	 65.403	 23.94748	 12.88681	  5.37257	 19.11009	  0.65250	 -0.51956	 25.67300	711.28998	 20.10	
 11.897	 57.268	 23.95750	 14.21939	  4.29154	 18.41818	  1.17867	 -0.50527	 25.66460	711.33002	 20.10	
 11.894	 49.133	 23.98165	 15.47145	  3.33322	 17.55415	  1.79497	 -0.46003	 25.67410	711.37000	 20.10	
 11.902	 40.852	 24.00273	 16.64667	  2.46391	 16.48178	  2.60420	 -0.39427	 25.67919	711.26001	 20.10	
 11.909	 32.701	 24.03165	 17.60935	  1.78892	 15.28453	  3.61355	 -0.33719	 25.67405	711.35999	 20.20	
 11.889	 24.555	 24.06748	 18.38283	  1.31599	 13.99688	  4.75325	 -0.33642	 25.67289	711.39001	 20.20	
 11.890	 16.390	 24.11232	 18.98078	  0.92987	 12.65460	  5.97027	 -0.35436	 25.66672	711.45001	 20.20	
 11.899	  8.217	 24.13900	 19.38047	  0.69081	 11.25057	  7.27516	 -0.37367	 25.66749	711.26001	 20.20	
 11.900	  0.000	 24.17409	 19.56221	  0.59206	  9.84421	  8.62706	 -0.36804	 25.67183	711.34998	 20.20	
 11.899	 -8.217	 24.20380	 19.51213	  0.64217	  8.47170	  9.97894	 -0.37330	 25.66028	711.44000	 20.20	
 11.890	-16.390	 24.24603	 19.25200	  0.89066	  7.16102	 11.33586	 -0.41260	 25.68628	711.45001	 20.20	
 11.889	-24.555	 24.25386	 18.75400	  1.28745	  5.94096	 12.70790	 -0.45547	 25.66700	711.41998	 20.20	
 11.909	-32.701	 24.26440	 18.08938	  1.80644	  4.82785	 14.02151	 -0.50335	 25.67102	711.39001	 20.20	
 11.902	-40.852	 24.26907	 17.22166	  2.45014	  3.82250	 15.29061	 -0.52307	 25.67300	711.28998	 20.20	
 11.894	-49.133	 24.26286	 16.16718	  3.26375	  2.94192	 16.46220	 -0.51946	 25.67198	711.38000	 20.30	
 11.897	-57.268	 24.26564	 14.96759	  4.28911	  2.25351	 17.39361	 -0.52891	 25.66773	711.32001	 20.30	
 11.903	-65.403	 24.26008	 13.69105	  5.41061	  1.70700	 18.10771	 -0.55959	 25.67224	711.28998	 20.30	
 11.893	-73.654	 24.25422	 12.32623	  6.67016	  1.31718	 18.70152	 -0.58464	 25.66852	711.40997	 20.30	
 11.892	-81.845	 24.24926	 10.91377	  7.98608	  1.07280	 19.03685	 -0.56336	 25.67586	711.39001	 20.30	
 11.900	-90.000	 24.22618	  9.54241	  9.32697	  0.95995	 19.15996	 -0.55008	 25.68406	711.39001	 20.30	
 11.892	-98.155	 24.21043	  8.18204	 10.72696	  1.02759	 19.02899	 -0.55281	 25.66875	711.41998	 20.30	
 11.893	-106.346	 24.19212	  6.85088	 12.13085	  1.22599	 18.70146	 -0.55828	 25.67060	711.35999	 20.30	
 11.903	-114.597	 24.16074	  5.57990	 13.50914	  1.56655	 18.14197	 -0.58787	 25.66608	711.34998	 20.30	
 11.897	-122.732	 24.13501	  4.44902	 14.81298	  2.06454	 17.42804	 -0.60744	 25.66567	711.35999	 20.30	
 11.894	-130.867	 24.13269	  3.47962	 16.02589	  2.69964	 16.53250	 -0.60257	 25.68309	711.34003	 20.30	
 11.902	-139.148	 24.11680	  2.58847	 17.12423	  3.53916	 15.37039	 -0.58537	 25.67784	711.32001	 20.40	
 11.909	-147.299	 24.07290	  1.87805	 18.01252	  4.51404	 14.09173	 -0.59805	 25.66663	711.37000	 20.40	
 11.889	-155.445	 24.04515	  1.33841	 18.73902	  5.61475	 12.78444	 -0.63922	 25.67553	711.34998	 20.40	
 11.890	-163.610	 24.00664	  0.87808	 19.26871	  6.80488	 11.41785	 -0.66942	 25.66223	711.37000	 20.40	
 11.899	-171.783	 23.97498	  0.55719	 19.60603	  8.10219	 10.02493	 -0.69509	 25.66963	711.37000	 20.40	
 11.900	180.000	 23.94837	  0.42863	 19.71679	  9.45017	  8.63618	 -0.68290	 25.67964	711.37000	 20.40	
 13.600	180.000	 23.32043	 -1.12305	 20.69499	  8.92152	  8.17284	 -0.85496	 25.66203	711.37000	 20.40	
 13.608	-172.853	 23.36838	 -0.99324	 20.62797	  7.61364	  9.52766	 -0.85206	 25.67290	711.42999	 20.40	
 13.611	-165.583	 23.38360	 -0.73682	 20.33871	  6.29716	 10.94514	 -0.83423	 25.66769	711.45001	 20.40	
 13.601	-158.353	 23.42809	 -0.30148	 19.84342	  5.07898	 12.32137	 -0.78832	 25.67121	711.51001	 20.40	
 13.609	-151.210	 23.44723	  0.20528	 19.17780	  3.96802	 13.66957	 -0.74495	 25.66330	711.47998	 20.40	
 13.611	-143.999	 23.50504	  0.82606	 18.38544	  2.94339	 14.99388	 -0.71247	 25.67323	711.44000	 20.40	
 13.601	-136.825	 23.50673	  1.55313	 17.38810	  2.04228	 16.23227	 -0.70415	 25.65621	711.47998	 20.50	
 13.596	-129.640	 23.55431	  2.41528	 16.29482	  1.33520	 17.29715	 -0.70797	 25.67942	711.38000	 20.50	
 13.611	-122.431	 23.54786	  3.41005	 15.04866	  0.70662	 18.19577	 -0.70129	 25.66930	711.34998	 20.50	
 13.604	-115.211	 23.57555	  4.56090	 13.72723	  0.19602	 18.97471	 -0.67770	 25.66882	711.46002	 20.50	
 13.595	-108.042	 23.59694	  5.77153	 12.36384	 -0.15751	 19.55369	 -0.64525	 25.67324	711.39001	 20.50	
 13.607	-100.793	 23.60381	  7.04861	 10.95516	 -0.39446	 19.94482	 -0.64283	 25.66787	711.46997	 20.50	
 13.601	-93.617	 23.63025	  8.41023	  9.53203	 -0.51354	 20.14114	 -0.64181	 25.67461	711.69000	 20.50	
 13.601	-86.383	 23.64773	  9.79750	  8.14338	 -0.49853	 20.14214	 -0.66786	 25.67276	711.64001	 20.50	
 13.607	-79.207	 23.65554	 11.17098	  6.79963	 -0.38119	 19.94613	 -0.68418	 25.67957	712.03998	 20.50	
 13.595	-71.958	 23.68445	 12.59106	  5.49342	 -0.09224	 19.53225	 -0.69228	 25.67369	711.48999	 20.50	
 13.604	-64.789	 23.68584	 13.94428	  4.30533	  0.32192	 18.93678	 -0.69801	 25.66487	711.51001	 20.50	
 13.611	-57.569	 23.69837	 15.25280	  3.17902	  0.86451	 18.15510	 -0.68338	 25.67244	712.13000	 20.60	
 13.596	-50.360	 23.70245	 16.47157	  2.17718	  1.56575	 17.22478	 -0.69160	 25.67110	711.88000	 20.60	
 13.601	-43.175	 23.68840	 17.55236	  1.34037	  2.35736	 16.15022	 -0.70021	 25.65611	712.21002	 20.60	
 13.611	-36.001	 23.71305	 18.51329	  0.69091	  3.27695	 14.92050	 -0.70255	 25.68511	712.32001	 20.60	
 13.609	-28.790	 23.70012	 19.28799	  0.13034	  4.31893	 13.59089	 -0.68499	 25.66862	711.63000	 20.60	
 13.601	-21.647	 23.70143	 19.89793	 -0.28168	  5.48907	 12.24144	 -0.66099	 25.68488	711.58002	 20.60	
 13.611	-14.417	 23.66812	 20.31314	 -0.60575	  6.71095	 10.88620	 -0.61922	 25.67944	712.03998	 20.60	
 13.608	 -7.147	 23.63043	 20.54222	 -0.81811	  8.03358	  9.48327	 -0.59507	 25.66966	712.25000	 20.60	
 13.600	  0.000	 23.60174	 20.56808	 -0.85232	  9.37191	  8.14094	 -0.59620	 25.67513	712.23999	 20.60	
 13.608	  7.147	 23.57241	 20.42201	 -0.80948	 10.75543	  6.79254	 -0.60814	 25.68868	712.03998	 20.60	
 13.611	 14.417	 23.52417	 20.05584	 -0.67289	 12.17315	  5.44502	 -0.60864	 25.67389	711.41998	 20.60	
 13.601	 21.647	 23.48716	 19.50863	 -0.33317	 13.54215	  4.19031	 -0.57838	 25.66555	711.48999	 20.70	
 13.609	 28.790	 23.45098	 18.77980	  0.12269	 14.86381	  3.02692	 -0.57011	 25.67122	711.78003	 20.70	
 13.611	 36.001	 23.41879	 17.89228	  0.68178	 16.14131	  1.94731	 -0.60547	 25.67882	711.41998	 20.70	
 13.601	 43.175	 23.37875	 16.84493	  1.41018	 17.28857	  1.06636	 -0.66401	 25.66657	711.42999	 20.70	
 13.596	 50.360	 23.36239	 15.69074	  2.24010	 18.30371	  0.31973	 -0.72623	 25.66360	712.06000	 20.70	
 13.611	 57.569	 23.32307	 14.39500	  3.14640	 19.19775	 -0.12854	 -0.76871	 25.65482	711.40002	 20.70	
 13.604	 64.789	 23.33187	 13.04878	  4.24567	 19.94236	 -0.62268	 -0.79343	 25.68336	712.09998	 20.70	
 13.595	 71.958	 23.31198	 11.65207	  5.43851	 20.47073	 -0.96549	 -0.79832	 25.67555	712.15002	 20.70	
 13.607	 79.207	 23.28682	 10.26409	  6.70692	 20.81492	 -1.20126	 -0.82570	 25.66764	711.46002	 20.70	
 13.601	 86.383	 23.27118	  8.89176	  8.01421	 20.97469	 -1.35113	 -0.84605	 25.67592	711.35999	 20.70	
 13.601	 93.617	 23.23300	  7.50436	  9.39928	 20.93587	 -1.36839	 -0.88819	 25.65607	712.13000	 20.70	
 13.607	100.793	 23.20834	  6.18907	 10.83219	 20.73108	 -1.26306	 -0.91728	 25.67487	712.14001	 20.70	
 13.595	108.042	 23.20895	  4.93857	 12.27035	 20.31068	 -0.98954	 -0.91502	 25.67323	711.26001	 20.70	
 13.604	115.211	 23.19412	  3.78655	 13.63843	 19.70276	 -0.57722	 -0.88440	 25.66684	711.62000	 20.80	
 13.611	122.431	 23.17004	  2.70525	 14.95013	 18.91273	 -0.10132	 -0.84727	 25.64338	711.64001	 20.80	
 13.596	129.640	 23.19613	  1.78878	 16.21103	 17.96126	  0.32570	 -0.84620	 25.66636	711.38000	 20.80	
 13.601	136.825	 23.18328	  0.98165	 17.32071	 16.91506	  1.05601	 -0.86974	 25.66573	711.42999	 20.80	
 13.611	143.999	 23.18489	  0.30132	 18.31684	 15.72682	  1.96372	 -0.89678	 25.66572	711.40002	 20.80	
 13.609	151.210	 23.20072	 -0.24628	 19.14922	 14.41671	  3.03085	 -0.90410	 25.65038	711.45001	 20.80	
 13.601	158.353	 23.23948	 -0.67072	 19.81621	 13.09949	  4.21434	 -0.88556	 25.66890	711.71997	 20.80	
 13.611	165.583	 23.24269	 -0.97601	 20.30451	 11.72342	  5.44500	 -0.86795	 25.65262	712.22998	 20.80	
 13.608	172.853	 23.29479	 -1.11680	 20.60801	 10.31235	  6.81148	 -0.85312	 25.67032	712.17999	 20.80	
 15.298	173.587	 22.57781	 -2.73186	 21.50113	  9.72112	  6.25271	 -0.98787	 25.65016	712.04999	 20.80	
 15.291	167.167	 22.54932	 -2.59764	 21.23640	 11.11981	  4.91464	 -1.02241	 25.65418	712.13000	 20.80	
 15.307	160.676	 22.52922	 -2.33960	 20.81887	 12.50554	  3.65473	 -1.05638	 25.65975	712.09003	 20.80	
 15.300	154.261	 22.50638	 -1.97795	 20.22091	 13.86125	  2.48162	 -1.10664	 25.66703	712.10999	 20.90	
 15.288	147.854	 22.47110	 -1.50159	 19.44548	 15.16501	  1.37566	 -1.12060	 25.65408	711.34003	 20.90	
 15.293	141.428	 22.46364	 -0.92659	 18.54084	 16.43158	  0.67175	 -1.09639	 25.65467	711.31000	 20.90	
 15.299	134.985	 22.46900	 -0.17953	 17.50964	 17.58869	 -0.12319	 -1.07361	 25.65493	711.70001	 20.90	
 15.305	128.583	 22.46711	  0.64245	 16.35122	 18.65627	 -0.82528	 -1.05465	 25.67011	712.15002	 20.90	
 15.309	122.142	 22.45680	  1.58376	 15.08992	 19.59642	 -1.42532	 -1.07913	 25.65787	712.09998	 20.90	
 15.304	115.711	 22.46520	  2.62640	 13.75235	 20.38660	 -1.91352	 -1.12068	 25.66063	712.17999	 20.90	
 15.297	109.291	 22.48245	  3.75945	 12.37872	 21.01543	 -2.31560	 -1.15007	 25.66549	712.20001	 20.90	
 15.293	102.897	 22.48927	  4.97105	 11.00163	 21.45089	 -2.55890	 -1.17135	 25.65229	712.14001	 20.90	
 15.293	 96.458	 22.53129	  6.27485	  9.60156	 21.73126	 -2.67812	 -1.15637	 25.65415	712.09003	 20.90	
 15.300	 90.000	 22.56564	  7.59443	  8.14330	 21.86469	 -2.78385	 -1.13127	 25.67356	712.00000	 20.90	
 15.293	 83.542	 22.58298	  8.98512	  6.79203	 21.79762	 -2.67956	 -1.09570	 25.65917	711.51001	 20.90	
 15.293	 77.103	 22.59691	 10.37051	  5.49120	 21.57645	 -2.52851	 -1.08143	 25.66007	712.15002	 20.90	
 15.297	 70.709	 22.60125	 11.68122	  4.29238	 21.19817	 -2.28553	 -1.05729	 25.65851	711.77002	 21.00	
 15.304	 64.289	 22.62354	 13.08819	  3.13646	 20.66098	 -2.06388	 -1.06653	 25.67097	712.12000	 21.00	
 15.309	 57.858	 22.60988	 14.45151	  2.06627	 19.91468	 -1.59366	 -1.05625	 25.64892	711.35999	 21.00	
 15.305	 51.417	 22.65216	 15.77520	  1.12237	 19.04115	 -0.87669	 -0.99076	 25.66675	711.32001	 21.00	
 15.299	 45.015	 22.67734	 16.98276	  0.30389	 18.02385	 -0.16754	 -0.92359	 25.66684	711.40997	 21.00	
 15.293	 38.572	 22.70655	 18.06673	 -0.43533	 16.89562	  0.63075	 -0.86086	 25.66455	711.92999	 21.00	
 15.288	 32.146	 22.74334	 19.03244	 -1.02362	 15.65553	  1.33898	 -0.81972	 25.65840	712.13000	 21.00	
 15.300	 25.739	 22.77021	 19.84362	 -1.53772	 14.34740	  2.41434	 -0.80500	 25.64812	711.41998	 21.00	
 15.307	 19.324	 22.81645	 20.51784	 -1.92762	 12.99923	  3.57867	 -0.82412	 25.66249	711.47998	 21.00	
 15.291	 12.833	 22.86261	 21.01206	 -2.21079	 11.62894	  4.85855	 -0.83530	 25.66012	711.33002	 21.00	
 15.298	  6.413	 22.90096	 21.32842	 -2.30223	 10.23318	  6.18825	 -0.82902	 25.66467	711.47998	 21.00	
 15.300	  0.000	 22.93986	 21.48516	 -2.27796	  8.85414	  7.56664	 -0.80485	 25.66203	711.34003	 21.00	
 15.298	 -6.413	 22.98274	 21.46357	 -2.20583	  7.52135	  8.93201	 -0.78907	 25.66727	712.06000	 21.00	
 15.291	-12.833	 23.00782	 21.24969	 -2.00798	  6.20542	 10.32708	 -0.78748	 25.64785	711.34998	 21.10	
 15.307	-19.324	 23.02246	 20.88457	 -1.69425	  4.94405	 11.66916	 -0.80466	 25.64615	711.48999	 21.00	
 15.300	-25.739	 23.05779	 20.36439	 -1.40395	  3.77852	 13.04506	 -0.81348	 25.66154	711.40002	 21.10	
 15.288	-32.146	 23.05223	 19.64409	 -0.95975	  2.74025	 14.37408	 -0.81599	 25.64702	711.32001	 21.10	
 15.293	-38.572	 23.05295	 18.77370	 -0.37420	  1.79410	 15.66846	 -0.80552	 25.63958	711.38000	 21.10	
 15.299	-45.015	 23.04816	 17.78358	  0.29612	  0.96707	 16.85611	 -0.77517	 25.64584	711.40997	 21.10	
 15.305	-51.417	 23.05114	 16.67559	  1.11784	  0.18888	 17.91083	 -0.74744	 25.65636	711.35999	 21.10	
 15.309	-57.858	 23.02104	 15.44443	  2.06098	 -0.49717	 18.85591	 -0.73578	 25.64992	711.42999	 21.10	
 15.304	-64.289	 23.02313	 14.12833	  3.16916	 -1.01846	 19.65617	 -0.72417	 25.65613	711.38000	 21.10	
 15.297	-70.709	 22.99882	 12.76556	  4.31322	 -1.45239	 20.26431	 -0.72953	 25.64132	711.46002	 21.10	
 15.293	-77.103	 22.99488	 11.39468	  5.56343	 -1.74563	 20.72565	 -0.70515	 25.65396	711.40997	 21.10	
 15.293	-83.542	 22.98418	 10.02508	  6.90280	 -1.93425	 21.00514	 -0.66583	 25.65845	711.38000	 21.10	
 15.300	-90.000	 22.94590	  8.60462	  8.25190	 -1.99679	 21.07850	 -0.64420	 25.63553	711.41998	 21.10	
 15.293	-96.458	 22.92857	  7.22840	  9.69059	 -1.90445	 20.98942	 -0.64094	 25.64403	711.26001	 21.10	
 15.293	-102.897	 22.91541	  5.90697	 11.12248	 -1.75826	 20.73734	 -0.64214	 25.65486	711.35999	 21.10	
 15.297	-109.291	 22.90033	  4.66504	 12.49940	 -1.50587	 20.30970	 -0.65978	 25.65546	711.37000	 21.20	
 15.304	-115.711	 22.88519	  3.48242	 13.85702	 -1.13963	 19.70612	 -0.67295	 25.65119	711.33002	 21.20	
 15.309	-122.142	 22.85792	  2.33822	 15.18847	 -0.68948	 18.92596	 -0.69574	 25.64107	711.34998	 21.20	
 15.305	-128.583	 22.84740	  1.35195	 16.42757	 -0.05701	 17.98950	 -0.71507	 25.64438	711.28003	 21.20	
 15.299	-134.985	 22.84961	  0.52770	 17.59154	  0.64402	 16.97650	 -0.71547	 25.66657	711.31000	 21.20	
 15.293	-141.428	 22.82148	 -0.28398	 18.60839	  1.44303	 15.77670	 -0.73315	 25.64023	711.27002	 21.20	
 15.288	-147.854	 22.79488	 -0.96638	 19.51792	  2.36347	 14.48874	 -0.76423	 25.66260	711.29999	 21.20	
 15.300	-154.261	 22.75351	 -1.55354	 20.27072	  3.41366	 13.13256	 -0.81300	 25.66199	711.34003	 21.20	
 15.307	-160.676	 22.72463	 -2.05133	 20.85239	  4.52490	 11.75724	 -0.88262	 25.65830	711.38000	 21.20	
 15.291	-167.167	 22.67609	 -2.40610	 21.24644	  5.75557	 10.36836	 -0.92297	 25.63971	711.34998	 21.20	
 15.298	-173.587	 22.66034	 -2.61991	 21.51351	  7.06542	  8.95486	 -0.96071	 25.65079	711.32001	 21.20	
 15.300	180.000	 22.62125	 -2.72684	 21.58776	  8.36420	  7.62019	 -0.96028	 25.65483	711.22998	 21.20	
 17.000	180.000	 21.81538	 -4.06487	 22.40462	  7.72793	  6.98108	 -1.02715	 25.64128	711.20001	 21.20	
 16.990	-174.179	 21.87830	 -3.97312	 22.34887	  6.43607	  8.35087	 -0.99938	 25.66228	711.37000	 21.20	
 17.009	-168.383	 21.88762	 -3.79957	 22.11241	  5.13922	  9.75258	 -0.94797	 25.63328	711.29999	 21.20	
 17.000	-162.596	 21.93071	 -3.51639	 21.73964	  3.94139	 11.16006	 -0.90609	 25.63967	711.32001	 21.20	
 16.990	-156.759	 21.97602	 -3.05202	 21.20368	  2.80462	 12.55454	 -0.83346	 25.64534	711.26001	 21.30	
 16.995	-150.919	 22.01292	 -2.58800	 20.52783	  1.72572	 13.94275	 -0.79258	 25.65581	711.34003	 21.30	
 16.988	-145.161	 22.04563	 -2.00528	 19.70042	  0.76927	 15.23570	 -0.74385	 25.64213	711.29999	 21.30	
 17.014	-139.343	 22.07156	 -1.34166	 18.75470	 -0.06859	 16.49455	 -0.69983	 25.65711	711.28998	 21.30	
 17.007	-133.546	 22.09069	 -0.56172	 17.67994	 -0.80242	 17.63930	 -0.65831	 25.65333	711.22998	 21.30	
 17.001	-127.699	 22.10058	  0.32586	 16.49980	 -1.47816	 18.69040	 -0.64212	 25.66788	711.23999	 21.30	
 17.006	-121.937	 22.09454	  1.26093	 15.25383	 -2.02322	 19.58177	 -0.62467	 25.64081	711.28998	 21.30	
 17.002	-116.134	 22.12140	  2.32550	 13.93377	 -2.43335	 20.34588	 -0.60560	 25.64356	711.23999	 21.30	
 17.001	-110.310	 22.14573	  3.49415	 12.56137	 -2.79042	 20.98237	 -0.59408	 25.64504	711.28003	 21.30	
 16.988	-104.517	 22.15450	  4.72837	 11.18110	 -3.06063	 21.44110	 -0.59224	 25.63275	711.25000	 21.30	
 17.008	-98.662	 22.16600	  6.02453	  9.75801	 -3.29250	 21.78357	 -0.58760	 25.64823	711.32001	 21.30	
 16.996	-92.909	 22.18343	  7.36474	  8.36932	 -3.40856	 21.93831	 -0.59642	 25.65077	711.28998	 21.30	
 16.996	-87.091	 22.19871	  8.75200	  6.98861	 -3.41859	 21.92693	 -0.61994	 25.63605	711.32001	 21.30	
 17.012	-81.253	 22.21708	 10.16780	  5.63676	 -3.36043	 21.78596	 -0.62980	 25.65224	711.37000	 21.30	
 16.988	-75.483	 22.23593	 11.50095	  4.36075	 -3.08558	 21.42516	 -0.64773	 25.63670	711.28998	 21.30	
 17.001	-69.690	 22.27060	 12.89178	  3.14337	 -2.76477	 20.96006	 -0.66899	 25.65706	711.34998	 21.30	
 17.002	-63.866	 22.27808	 14.24772	  2.03004	 -2.32239	 20.29496	 -0.68981	 25.64427	711.41998	 21.30	
 17.006	-58.063	 22.28726	 15.55477	  0.98698	 -1.83074	 19.51622	 -0.71462	 25.65308	711.32001	 21.40	
 17.001	-52.301	 22.29257	 16.78480	  0.03454	 -1.20893	 18.57973	 -0.73520	 25.64565	711.29999	 21.40	
 17.007	-46.454	 22.31707	 17.93853	 -0.75491	 -0.45438	 17.53254	 -0.75850	 25.64992	711.40997	 21.40	
 17.014	-40.657	 22.31191	 18.98152	 -1.47814	  0.32880	 16.34861	 -0.80690	 25.63276	711.32001	 21.40	
 16.988	-34.839	 22.32111	 19.89739	 -2.04681	  1.20082	 15.10983	 -0.84632	 25.64003	711.27002	 21.40	
 16.995	-29.081	 22.31929	 20.67721	 -2.53033	  2.16320	 13.79896	 -0.86784	 25.64083	711.29999	 21.40	
 16.990	-23.241	 22.31380	 21.30312	 -2.86134	  3.22302	 12.43813	 -0.87862	 25.63843	711.35999	 21.40	
 17.000	-17.404	 22.31219	 21.80075	 -3.18254	  4.39802	 11.10779	 -0.90337	 25.65200	711.29999	 21.40	
 17.009	-11.617	 22.27084	 22.12672	 -3.42919	  5.62457	  9.71140	 -0.91402	 25.64130	711.31000	 21.40	
 16.990	 -5.821	 22.24269	 22.28382	 -3.60365	  6.93639	  8.32509	 -0.92510	 25.64719	711.33002	 21.40	
 17.000	  0.000	 22.19538	 22.30952	 -3.72637	  8.25027	  6.94275	 -0.96078	 25.65185	711.29999	 21.40	
 16.990	  5.821	 22.16028	 22.16566	 -3.78122	  9.62943	  5.54915	 -1.00073	 25.65459	711.31000	 21.40	
 17.009	 11.617	 22.08735	 21.86090	 -3.71625	 11.00062	  4.20536	 -1.02962	 25.62796	711.28003	 21.40	
 17.000	 17.404	 22.06305	 21.40945	 -3.49728	 12.35373	  3.00027	 -1.03270	 25.63613	711.32001	 21.40	
 16.990	 23.241	 22.01554	 20.80836	 -3.21239	 13.71341	  1.87567	 -1.03902	 25.64207	711.21997	 21.50	
 16.995	 29.081	 21.95834	 20.04146	 -2.78125	 15.06578	  0.93676	 -1.03988	 25.62378	711.27002	 21.50	
 16.988	 34.839	 21.93628	 19.16949	 -2.21904	 16.34091	  0.00993	 -1.05781	 25.64345	711.25000	 21.50	
 17.014	 40.657	 21.89298	 18.13238	 -1.49817	 17.54321	 -1.02719	 -1.11759	 25.63176	711.21997	 21.50	
 17.007	 46.454	 21.88754	 16.99270	 -0.74301	 18.67267	 -1.77721	 -1.19128	 25.65729	711.27002	 21.50	
 17.001	 52.301	 21.84939	 15.74090	  0.06351	 19.66531	 -2.40494	 -1.26289	 25.64201	711.37000	 21.50	
 17.006	 58.063	 21.82598	 14.44049	  0.98167	 20.52425	 -2.94610	 -1.30850	 25.63562	711.37000	 21.50	
 17.002	 63.866	 21.82184	 13.07020	  2.01978	 21.24640	 -3.39184	 -1.32238	 25.63948	711.31000	 21.50	
 17.001	 69.690	 21.80668	 11.68575	  3.13905	 21.81866	 -3.68539	 -1.31467	 25.62917	711.28003	 21.50	
 16.988	 75.483	 21.79430	 10.35231	  4.28306	 22.23047	 -3.89195	 -1.32696	 25.61746	711.41998	 21.50	
 17.012	 81.253	 21.76216	  9.02190	  5.50207	 22.51383	 -4.12943	 -1.36058	 25.62918	711.38000	 21.50	
 16.996	 87.091	 21.74750	  7.59741	  6.84790	 22.63303	 -4.26392	 -1.36640	 25.62927	711.29999	 21.50	
 16.996	 92.909	 21.72762	  6.26426	  8.22907	 22.61263	 -4.27103	 -1.40494	 25.64175	711.21002	 21.50	
 17.008	 98.662	 21.69471	  4.95534	  9.61235	 22.44278	 -4.19950	 -1.42852	 25.64352	711.31000	 21.50	
 16.988	104.517	 21.67323	  3.71938	 11.01468	 22.09402	 -4.02842	 -1.42925	 25.63334	711.31000	 21.50	
 17.001	110.310	 21.67367	  2.57423	 12.40637	 21.61716	 -3.74350	 -1.39325	 25.65008	711.28998	 21.50	
 17.002	116.134	 21.66298	  1.46738	 13.78325	 20.96608	 -3.38438	 -1.33442	 25.64998	711.35999	 21.50	
 17.006	121.937	 21.63966	  0.43214	 15.09799	 20.16865	 -2.93364	 -1.29970	 25.63418	711.41998	 21.50	
 17.001	127.699	 21.64679	 -0.48037	 16.35464	 19.26692	 -2.40672	 -1.26457	 25.64519	711.35999	 21.50	
 17.007	133.546	 21.64338	 -1.32970	 17.56016	 18.21875	 -1.72545	 -1.26254	 25.65008	711.29999	 21.50	
 17.014	139.343	 21.63989	 -2.07141	 18.65858	 17.06743	 -0.97812	 -1.27016	 25.64830	711.33002	 21.60	
 16.988	145.161	 21.64054	 -2.67223	 19.61919	 15.82957	  0.03358	 -1.27688	 25.63201	711.37000	 21.60	
 16.995	150.919	 21.66842	 -3.08359	 20.44941	 14.58273	  0.92172	 -1.27507	 25.65025	711.44000	 21.60	
 16.990	156.759	 21.71660	 -3.37063	 21.13567	 13.23149	  1.79666	 -1.22227	 25.64338	711.42999	 21.60	
 17.000	162.596	 21.72199	 -3.70442	 21.68605	 11.85684	  3.00207	 -1.17234	 25.63799	711.33002	 21.60	
 17.009	168.383	 21.74473	 -3.92377	 22.08384	 10.48824	  4.22414	 -1.10743	 25.63534	711.41998	 21.60	
 16.990	174.179	 21.77830	 -4.03398	 22.31524	  9.10185	  5.56896	 -1.04830	 25.63548	711.33002	 21.60	
 18.709	174.675	 20.89582	 -5.31377	 23.06474	  8.39606	  4.87590	 -1.06288	 25.63392	711.37000	 21.60	
 18.703	169.441	 20.85619	 -5.18261	 22.84217	  9.74243	  3.59744	 -1.13607	 25.62901	711.27002	 21.60	
 18.691	164.085	 20.86123	 -4.95002	 22.48880	 11.12897	  2.37766	 -1.20487	 25.63707	711.34003	 21.60	
 18.706	158.818	 20.80725	 -4.79278	 21.99873	 12.47702	  1.36822	 -1.26599	 25.62972	711.35999	 21.60	
 18.695	153.537	 20.79131	 -4.40418	 21.34455	 13.84517	  0.26247	 -1.33324	 25.62701	711.40002	 21.60	
 18.704	148.255	 20.76442	 -3.99598	 20.57099	 15.14382	 -0.77388	 -1.39070	 25.61309	711.29999	 21.60	
 18.698	142.952	 20.75996	 -3.53049	 19.68069	 16.40217	 -1.59184	 -1.40560	 25.63302	711.31000	 21.60	
 18.699	137.625	 20.74678	 -2.97890	 18.65694	 17.60234	 -2.37293	 -1.41028	 25.61457	711.25000	 21.60	
 18.705	132.343	 20.74437	 -2.36471	 17.53194	 18.72111	 -3.08137	 -1.43691	 25.61575	711.25000	 21.70	
 18.713	127.067	 20.75774	 -1.58670	 16.34025	 19.74518	 -3.66767	 -1.46028	 25.62098	711.28998	 21.70	
 18.700	121.794	 20.77597	 -0.69035	 15.07896	 20.65927	 -4.15629	 -1.50131	 25.62844	711.17999	 21.70	
 18.698	116.504	 20.76873	  0.28593	 13.74412	 21.44639	 -4.60954	 -1.54974	 25.62362	711.37000	 21.70	
 18.707	111.165	 20.77755	  1.33946	 12.34114	 22.12964	 -4.98052	 -1.61772	 25.62089	711.35999	 21.70	
 18.690	105.863	 20.78447	  2.50168	 10.95591	 22.65715	 -5.28772	 -1.62578	 25.61413	711.34003	 21.70	
 18.696	100.583	 20.80446	  3.67025	  9.58434	 23.03807	 -5.46146	 -1.63006	 25.62022	711.33002	 21.70	
 18.700	 95.309	 20.82991	  4.89984	  8.20316	 23.27582	 -5.55702	 -1.62302	 25.62934	711.28003	 21.70	
 18.700	 90.000	 20.84257	  6.20547	  6.81511	 23.36573	 -5.64325	 -1.59693	 25.62652	711.33002	 21.70	
 18.700	 84.691	 20.87300	  7.55680	  5.49778	 23.32653	 -5.57916	 -1.57102	 25.62126	711.28003	 21.70	
 18.696	 79.417	 20.90345	  8.94674	  4.29264	 23.15073	 -5.36275	 -1.56798	 25.62021	712.03998	 21.70	
 18.690	 74.137	 20.93815	 10.26068	  3.11610	 22.84038	 -5.12404	 -1.54774	 25.62264	711.34998	 21.70	
 18.707	 68.835	 20.95393	 11.61989	  1.96050	 22.39441	 -4.86739	 -1.54599	 25.62733	711.25000	 21.70	
 18.698	 63.496	 20.96605	 13.00500	  0.89837	 21.77279	 -4.56624	 -1.56398	 25.62071	711.28003	 21.70	
 18.700	 58.206	 20.98225	 14.36684	 -0.07112	 21.04576	 -4.15570	 -1.53970	 25.62585	711.28003	 21.70	
 18.713	 52.933	 20.99694	 15.67045	 -0.98646	 20.20302	 -3.68507	 -1.49742	 25.63129	711.26001	 21.80	
 18.705	 47.657	 20.99810	 16.90841	 -1.80774	 19.26488	 -3.13610	 -1.43785	 25.62266	711.23999	 21.80	
 18.699	 42.375	 21.02298	 18.08534	 -2.52372	 18.18892	 -2.44097	 -1.34936	 25.62305	711.34003	 21.80	
 18.698	 37.048	 21.05337	 19.16771	 -3.22067	 17.00004	 -1.65484	 -1.28777	 25.61406	711.25000	 21.80	
 18.704	 31.745	 21.09900	 20.14114	 -3.83100	 15.77031	 -0.82148	 -1.25786	 25.62490	711.31000	 21.80	
 18.695	 26.463	 21.15221	 20.95523	 -4.23696	 14.50171	  0.29108	 -1.24883	 25.61514	711.28003	 21.80	
 18.706	 21.182	 21.18821	 21.66538	 -4.58265	 13.15351	  1.36394	 -1.22050	 25.62271	711.27002	 21.80	
 18.691	 15.915	 21.24035	 22.21657	 -4.83643	 11.74493	  2.36353	 -1.20494	 25.62058	711.29999	 21.80	
 18.703	 10.559	 21.28065	 22.63878	 -4.99145	 10.35328	  3.57160	 -1.16676	 25.61787	711.34003	 21.80	
 18.709	  5.325	 21.30929	 22.92109	 -5.15854	  8.97243	  4.86896	 -1.12381	 25.61148	711.17999	 21.80	
 18.700	  0.000	 21.33013	 23.04311	 -5.21354	  7.61092	  6.20358	 -1.05931	 25.60386	711.17999	 21.80	
 18.709	 -5.325	 21.37590	 23.04486	 -5.04076	  6.28886	  7.61973	 -1.02163	 25.61124	711.26001	 21.80	
 18.703	-10.559	 21.42283	 22.89435	 -4.86956	  5.03560	  9.00824	 -0.96906	 25.61399	711.22998	 21.80	
 18.691	-15.915	 21.47181	 22.59139	 -4.62839	  3.79940	 10.42597	 -0.93157	 25.61322	711.15997	 21.80	
 18.706	-21.182	 21.47982	 22.15323	 -4.36724	  2.65059	 11.77117	 -0.90692	 25.60556	711.81000	 21.80	
 18.695	-26.463	 21.49986	 21.56687	 -3.98061	  1.58220	 13.12767	 -0.86056	 25.61447	711.90997	 21.80	
 18.704	-31.745	 21.49177	 20.86406	 -3.62189	  0.61676	 14.43033	 -0.81613	 25.59889	711.28998	 21.80	
 18.698	-37.048	 21.50718	 20.05019	 -3.16006	 -0.24824	 15.69884	 -0.78563	 25.61242	711.17999	 21.80	
 18.699	-42.375	 21.48346	 19.07509	 -2.59775	 -1.05458	 16.92852	 -0.75134	 25.59545	711.15002	 21.80	
 18.705	-47.657	 21.45883	 17.99870	 -1.89091	 -1.80133	 18.06776	 -0.71604	 25.59009	711.28998	 21.90	
 18.713	-52.933	 21.45998	 16.85036	 -1.05374	 -2.48253	 19.10565	 -0.68314	 25.60535	711.28998	 21.90	
 18.700	-58.206	 21.45471	 15.63439	 -0.08489	 -3.04722	 19.99629	 -0.64314	 25.59506	711.28003	 21.90	
 18.698	-63.496	 21.43191	 14.35434	  0.88289	 -3.55123	 20.79220	 -0.62353	 25.58332	711.29999	 21.90	
 18.707	-68.835	 21.41411	 12.98337	  1.96789	 -3.98876	 21.48621	 -0.60342	 25.59929	711.34998	 21.90	
 18.690	-74.137	 21.39660	 11.56864	  3.14424	 -4.31795	 21.99697	 -0.57687	 25.59329	711.70001	 21.90	
 18.696	-79.417	 21.35974	 10.24717	  4.36801	 -4.64686	 22.38306	 -0.55359	 25.59410	711.23999	 21.90	
 18.700	-84.691	 21.31604	  8.83755	  5.64511	 -4.78034	 22.60095	 -0.53513	 25.58337	711.21002	 21.90	
 18.700	-90.000	 21.31042	  7.42789	  7.00775	 -4.81799	 22.69102	 -0.52884	 25.59620	711.23999	 21.90	
 18.700	-95.309	 21.29182	  6.08235	  8.36547	 -4.72869	 22.61514	 -0.52071	 25.59208	711.10999	 21.90	
 18.696	-100.583	 21.27414	  4.76821	  9.80200	 -4.56391	 22.39378	 -0.52670	 25.59785	711.40997	 21.90	
 18.690	-105.863	 21.28023	  3.53368	 11.18557	 -4.34342	 22.03356	 -0.51534	 25.59191	711.29999	 21.90	
 18.707	-111.165	 21.25836	  2.34225	 12.54919	 -4.04422	 21.53086	 -0.52557	 25.59027	711.28003	 21.90	
 18.698	-116.504	 21.26100	  1.22866	 13.92352	 -3.64526	 20.88215	 -0.53865	 25.60039	711.91998	 21.90	
 18.700	-121.794	 21.24857	  0.25012	 15.20171	 -3.29428	 20.11835	 -0.55777	 25.59270	712.06000	 21.90	
 18.713	-127.067	 21.22685	 -0.67812	 16.45030	 -2.82356	 19.22666	 -0.57833	 25.60578	711.21002	 21.90	
 18.705	-132.343	 21.18690	 -1.51522	 17.62315	 -2.24780	 18.19165	 -0.59949	 25.57859	711.27002	 21.90	
 18.699	-137.625	 21.19364	 -2.29792	 18.75100	 -1.54938	 17.07249	 -0.61365	 25.59286	711.16998	 21.90	
 18.698	-142.952	 21.18185	 -2.96803	 19.75378	 -0.73156	 15.83759	 -0.66036	 25.59612	711.78998	 21.90	
 18.704	-148.255	 21.13581	 -3.60524	 20.64218	  0.15343	 14.53625	 -0.71774	 25.58581	711.97998	 21.90	
 18.695	-153.537	 21.12038	 -4.07846	 21.40942	  1.13277	 13.21130	 -0.73791	 25.61415	711.54999	 22.00	
 18.706	-158.818	 21.06109	 -4.48442	 22.01448	  2.17791	 11.79539	 -0.80223	 25.59467	711.33002	 22.00	
 18.691	-164.085	 21.03106	 -4.79217	 22.50412	  3.30324	 10.49105	 -0.86048	 25.59550	711.21997	 22.00	
 18.703	-169.441	 20.97332	 -5.06620	 22.84325	  4.49877	  9.01618	 -0.90328	 25.58517	711.19000	 22.00	
 18.709	-174.675	 20.95115	 -5.24171	 23.05449	  5.76679	  7.61492	 -0.93952	 25.59135	711.76001	 22.00	
 18.700	180.000	 20.90505	 -5.32189	 23.09563	  7.06176	  6.22710	 -1.01616	 25.57972	711.42999	 22.00	
 20.400	180.000	 19.95836	 -6.57091	 23.75180	  6.34563	  5.51451	 -0.94226	 25.58729	711.28003	 22.00	
 20.401	-175.153	 19.99007	 -6.52473	 23.70966	  5.08991	  6.84335	 -0.86573	 25.59669	711.20001	 22.00	
 20.407	-170.264	 20.01671	 -6.38049	 23.52024	  3.82873	  8.25614	 -0.82252	 25.58967	711.25000	 22.00	
 20.410	-165.423	 20.06412	 -6.14649	 23.22066	  2.63985	  9.69943	 -0.78966	 25.60258	711.28003	 22.00	
 20.392	-160.496	 20.11220	 -5.80861	 22.76880	  1.52611	 11.11799	 -0.74194	 25.58750	711.21997	 22.00	
 20.401	-155.705	 20.14970	 -5.38687	 22.20845	  0.47514	 12.45647	 -0.71296	 25.59374	711.34003	 22.00	
 20.405	-150.835	 20.19986	 -4.91187	 21.50253	 -0.50066	 13.83410	 -0.68847	 25.60099	711.21997	 22.00	
 20.397	-145.903	 20.24970	 -4.39301	 20.67832	 -1.40181	 15.15885	 -0.63974	 25.60609	711.65002	 22.00	
 20.392	-141.062	 20.27141	 -3.84918	 19.73967	 -2.20137	 16.40508	 -0.61162	 25.59837	711.28003	 22.00	
 20.396	-136.227	 20.28608	 -3.24317	 18.71218	 -2.93590	 17.59546	 -0.57391	 25.59692	712.07001	 22.00	
 20.408	-131.372	 20.30315	 -2.54067	 17.60348	 -3.54440	 18.68856	 -0.56824	 25.60507	711.94000	 22.00	
 20.410	-126.511	 20.31027	 -1.69020	 16.38119	 -4.05437	 19.69555	 -0.52775	 25.59198	711.98999	 22.00	
 20.400	-121.604	 20.33213	 -0.80003	 15.10821	 -4.51503	 20.61205	 -0.52453	 25.59924	711.31000	 22.10	
 20.403	-116.741	 20.34826	  0.16671	 13.82618	 -4.89403	 21.40306	 -0.51888	 25.60407	711.90997	 22.10	
 20.413	-111.900	 20.36099	  1.20977	 12.49257	 -5.23322	 22.06707	 -0.51185	 25.60590	711.19000	 22.10	
 20.398	-107.004	 20.35951	  2.37557	 11.12998	 -5.56443	 22.57911	 -0.49049	 25.59377	711.27002	 22.10	
 20.394	-102.132	 20.36832	  3.58791	  9.77458	 -5.77592	 22.96469	 -0.48938	 25.59078	711.28998	 22.10	
 20.403	-97.332	 20.37123	  4.82616	  8.40749	 -5.93675	 23.21367	 -0.48828	 25.57973	711.25000	 22.10	
 20.392	-92.440	 20.38975	  6.14862	  6.96747	 -6.07892	 23.35113	 -0.47556	 25.58702	711.32001	 22.10	
 20.392	-87.560	 20.41476	  7.48277	  5.66222	 -6.11856	 23.34880	 -0.49640	 25.58426	711.26001	 22.10	
 20.403	-82.668	 20.42108	  8.87220	  4.35336	 -6.06165	 23.21073	 -0.50246	 25.57798	711.26001	 22.10	
 20.394	-77.868	 20.45282	 10.25432	  3.11813	 -5.88482	 22.94294	 -0.51839	 25.58808	711.25000	 22.10	
 20.398	-72.996	 20.47395	 11.61189	  1.94487	 -5.53503	 22.51854	 -0.52448	 25.57655	711.20001	 22.10	
 20.413	-68.100	 20.48822	 12.99435	  0.77208	 -5.24074	 21.97582	 -0.56060	 25.58099	711.21997	 22.10	
 20.403	-63.259	 20.52055	 14.35061	 -0.30194	 -4.81448	 21.30500	 -0.57452	 25.59005	711.25000	 22.10	
 20.400	-58.396	 20.54446	 15.63941	 -1.24458	 -4.31500	 20.50239	 -0.60075	 25.59400	711.25000	 22.10	
 20.410	-53.489	 20.56335	 16.87739	 -2.10125	 -3.73808	 19.58834	 -0.63955	 25.58253	711.29999	 22.10	
 20.408	-48.628	 20.56488	 18.04597	 -2.91216	 -3.13241	 18.57138	 -0.66689	 25.58809	711.17999	 22.10	
 20.396	-43.773	 20.57222	 19.09802	 -3.61194	 -2.47706	 17.50831	 -0.69876	 25.57203	711.21997	 22.10	
 20.392	-38.938	 20.60821	 20.08367	 -4.19388	 -1.71971	 16.33833	 -0.73195	 25.58686	711.28003	 22.10	
 20.397	-34.097	 20.61788	 20.94465	 -4.60741	 -0.91764	 15.10553	 -0.77026	 25.58710	711.32001	 22.20	
 20.405	-29.165	 20.58520	 21.71113	 -5.05242	 -0.05001	 13.78523	 -0.82267	 25.57313	711.40997	 22.20	
 20.401	-24.295	 20.58903	 22.37581	 -5.47397	  0.95271	 12.42977	 -0.85418	 25.60112	711.21002	 22.20	
 20.392	-19.504	 20.57312	 22.89092	 -5.82531	  2.04159	 11.05735	 -0.90288	 25.59289	711.29999	 22.20	
 20.410	-14.577	 20.53346	 23.30004	 -6.12972	  3.19070	  9.65419	 -0.92557	 25.58711	711.29999	 22.20	
 20.407	 -9.736	 20.50730	 23.56184	 -6.33275	  4.37897	  8.26761	 -0.98353	 25.59209	711.27002	 22.20	
 20.401	 -4.847	 20.46792	 23.68574	 -6.42633	  5.64989	  6.86929	 -1.05123	 25.59098	711.27002	 22.20	
 20.400	  0.000	 20.43084	 23.68013	 -6.44394	  6.94211	  5.52516	 -1.09687	 25.58735	711.38000	 22.20	
 20.401	  4.847	 20.40076	 23.55473	 -6.34786	  8.25531	  4.20436	 -1.17731	 25.58834	711.38000	 22.20	
 20.407	  9.736	 20.34620	 23.29397	 -6.27752	  9.59938	  2.92599	 -1.24463	 25.58076	712.04999	 22.20	
 20.410	 14.577	 20.29976	 22.91753	 -6.10874	 10.95315	  1.73276	 -1.31523	 25.58044	712.14001	 22.20	
 20.392	 19.504	 20.25974	 22.37559	 -5.85304	 12.41456	  0.57425	 -1.34184	 25.57663	711.29999	 22.20	
 20.401	 24.295	 20.17992	 21.73702	 -5.62144	 13.76211	 -0.50448	 -1.37609	 25.58543	711.32001	 22.20	
 20.405	 29.165	 20.15752	 20.96093	 -5.21612	 15.06908	 -1.42157	 -1.42405	 25.58385	711.72998	 22.20	
 20.397	 34.097	 20.11572	 20.03857	 -4.71260	 16.35282	 -2.28877	 -1.46481	 25.57462	711.40002	 22.20	
 20.392	 38.938	 20.08154	 19.03733	 -4.17317	 17.56954	 -3.09792	 -1.52076	 25.58825	711.32001	 22.20	
 20.396	 43.773	 20.06426	 17.94988	 -3.53112	 18.69533	 -3.80749	 -1.57068	 25.59610	711.28998	 22.20	
 20.408	 48.628	 20.03269	 16.75754	 -2.86115	 19.71403	 -4.42300	 -1.62551	 25.58235	711.22998	 22.20	
 20.410	 53.489	 20.01940	 15.49709	 -2.06813	 20.65521	 -4.94916	 -1.69910	 25.58321	711.34998	 22.20	
 20.400	 58.396	 20.01556	 14.17903	 -1.18585	 21.49819	 -5.39838	 -1.71906	 25.59184	711.28998	 22.20	
 20.403	 63.259	 19.98848	 12.83418	 -0.24507	 22.20684	 -5.78853	 -1.72492	 25.58356	711.21997	 22.20	
 20.413	 68.100	 19.97049	 11.46670	  0.78596	 22.81467	 -6.08165	 -1.72731	 25.57787	711.23999	 22.20	
 20.398	 72.996	 19.95578	 10.08393	  1.91088	 23.28561	 -6.36865	 -1.72200	 25.57380	711.17999	 22.30	
 20.394	 77.868	 19.94495	  8.81456	  3.06869	 23.64030	 -6.61048	 -1.72690	 25.58619	711.33002	 22.30	
 20.403	 82.668	 19.90713	  7.46000	  4.20858	 23.85602	 -6.79953	 -1.70438	 25.56917	711.25000	 22.30	
 20.392	 87.560	 19.89256	  6.15107	  5.44265	 23.94811	 -6.93588	 -1.71701	 25.58415	711.31000	 22.30	
 20.392	 92.440	 19.85925	  4.88867	  6.70043	 23.90793	 -7.03216	 -1.75203	 25.57272	711.20001	 22.30	
 20.403	 97.332	 19.84588	  3.60236	  8.10396	 23.77338	 -6.85280	 -1.77521	 25.58315	711.27002	 22.30	
 20.394	102.132	 19.81294	  2.35210	  9.41603	 23.49340	 -6.78490	 -1.81212	 25.57667	711.23999	 22.30	
 20.398	107.004	 19.79346	  1.19653	 10.86246	 23.07867	 -6.56892	 -1.79531	 25.57647	711.33002	 22.30	
 20.413	111.900	 19.75703	  0.09144	 12.24889	 22.52273	 -6.26453	 -1.76010	 25.57446	711.39001	 22.30	
 20.403	116.741	 19.74937	 -0.90114	 13.62465	 21.83929	 -5.89463	 -1.70956	 25.56290	711.28998	 22.30	
 20.400	121.604	 19.76939	 -1.78260	 14.96550	 21.08405	 -5.40736	 -1.65715	 25.57386	711.20001	 22.30	
 20.410	126.511	 19.78263	 -2.52448	 16.26387	 20.18383	 -4.88252	 -1.61671	 25.58249	711.39001	 22.30	
 20.408	131.372	 19.76812	 -3.22855	 17.48168	 19.17803	 -4.34358	 -1.57858	 25.56533	711.29999	 22.30	
 20.396	136.227	 19.76742	 -3.87254	 18.61286	 18.12192	 -3.71481	 -1.54171	 25.58588	711.21002	 22.30	
 20.392	141.062	 19.75570	 -4.47362	 19.64591	 16.96328	 -3.04258	 -1.47873	 25.57608	711.33002	 22.30	
 20.397	145.903	 19.76653	 -5.01760	 20.59120	 15.73927	 -2.27284	 -1.42944	 25.58999	711.29999	 22.30	
 20.405	150.835	 19.77122	 -5.49844	 21.39883	 14.42131	 -1.40006	 -1.36630	 25.58031	711.70001	 22.30	
 20.401	155.705	 19.78609	 -5.84840	 22.11265	 13.08886	 -0.47998	 -1.31509	 25.57334	711.31000	 22.30	
 20.392	160.496	 19.83449	 -6.05718	 22.69224	 11.76828	  0.58294	 -1.24987	 25.57792	711.27002	 22.30	
 20.410	165.423	 19.83458	 -6.36395	 23.16117	 10.38648	  1.77907	 -1.15649	 25.57627	711.28003	 22.30	
 20.407	170.264	 19.88626	 -6.38283	 23.47928	  9.07024	  2.86700	 -1.08275	 25.58080	711.37000	 22.30	
 20.401	175.153	 19.92146	 -6.50511	 23.67709	  7.64832	  4.19488	 -1.02378	 25.59319	711.38000	 22.30	
  0.141	 45.000	 25.62158	 10.77461	 10.82962	 11.47453	 10.12289	  0.61727	 25.59352	711.21997	 22.40	
  4.001	128.691	 25.46491	  8.46439	 12.79023	 13.74886	  7.54016	  0.45421	 25.58507	711.32001	 22.40	
  4.002	 76.995	 25.49865	 11.10945	  9.96566	 14.46529	  7.00309	  0.54348	 25.58659	711.21002	 22.40	
  4.002	 25.892	 25.53347	 13.52655	  7.82963	 12.68058	  8.63201	  0.60248	 25.58538	711.23999	 22.40	
  4.002	-25.892	 25.56023	 13.63661	  7.87453	  9.86792	 11.33369	  0.56579	 25.58093	711.33002	 22.40	
  4.002	-76.995	 25.57154	 11.38500	 10.02307	  8.11643	 13.26424	  0.47490	 25.58219	711.29999	 22.40	
  4.001	-128.691	 25.54901	  8.71187	 12.79681	  8.68553	 12.58247	  0.40492	 25.57516	711.27002	 22.40	
  4.000	180.000	 25.50668	  7.46390	 14.06967	 11.10551	 10.00682	  0.36843	 25.57168	711.37000	 22.40	
  8.000	180.000	 24.94149	  3.99029	 17.07003	 10.44524	  9.42580	 -0.12275	 25.58969	711.26001	 22.40	
  7.991	-152.370	 25.02069	  4.80370	 16.26182	  7.51839	 12.51269	 -0.10409	 25.58027	711.31000	 22.40	
  7.997	-124.550	 25.08866	  6.70676	 14.02174	  5.42247	 15.15572	 -0.08066	 25.58691	712.08002	 22.40	
  8.006	-96.837	 25.11756	  9.46171	 10.97054	  4.53460	 16.41114	 -0.03294	 25.58021	711.77002	 22.40	
  7.988	-69.228	 25.14824	 12.59773	  7.93665	  4.93138	 15.96443	  0.02809	 25.57869	712.06000	 22.40	
  7.997	-41.563	 25.14404	 15.31976	  5.53345	  6.56705	 13.88685	  0.10671	 25.58704	711.34998	 22.40	
  8.008	-13.821	 25.09190	 16.78959	  4.21349	  9.17744	 10.92739	  0.19819	 25.57810	711.32001	 22.40	
  8.008	 13.821	 25.03397	 16.65561	  4.24893	 12.30322	  7.90446	  0.20060	 25.58806	711.35999	 22.40	
  7.997	 41.563	 24.97999	 14.91475	  5.51322	 15.18259	  5.36690	  0.15192	 25.59807	711.29999	 22.40	
  7.988	 69.228	 24.92762	 12.04077	  7.87268	 17.03798	  3.87130	  0.06156	 25.59248	711.26001	 22.40	
  8.006	 96.837	 24.86984	  8.94515	 10.87180	 17.38693	  3.44324	 -0.02121	 25.58258	711.34003	 22.40	
  7.997	124.550	 24.83379	  6.19837	 13.94321	 16.12915	  4.36689	  0.01354	 25.57731	711.35999	 22.40	
  7.991	152.370	 24.86383	  4.44965	 16.22367	 13.56594	  6.47103	 -0.10519	 25.58186	711.38000	 22.40	
 12.009	161.059	 23.74828	  0.65470	 19.09565	 12.67703	  5.44490	 -0.65827	 25.57508	711.35999	 22.40	
 12.013	142.081	 23.69429	  1.70724	 17.37982	 15.71144	  2.79405	 -0.64530	 25.57424	711.40997	 22.40	
 12.006	123.113	 23.69055	  3.70397	 14.74708	 18.14840	  0.92083	 -0.60955	 25.57223	712.03998	 22.40	
 12.007	104.200	 23.72265	  6.35919	 11.62561	 19.62920	  0.00412	 -0.65765	 25.56706	712.00000	 22.40	
 11.989	 85.301	 23.78083	  9.47217	  8.35147	 19.99222	 -0.21214	 -0.57153	 25.57200	711.95001	 22.40	
 12.013	 66.294	 23.81713	 12.70955	  5.37725	 19.21519	  0.45225	 -0.54626	 25.57994	712.09003	 22.50	
 12.012	 47.388	 23.83940	 15.71138	  3.01369	 17.35758	  1.79323	 -0.44617	 25.56281	711.33002	 22.50	
 11.990	 28.440	 23.92696	 18.01350	  1.42741	 14.62203	  4.05501	 -0.32570	 25.57558	711.62000	 22.50	
 11.991	  9.464	 24.01674	 19.32998	  0.61931	 11.46072	  6.94767	 -0.35333	 25.56611	711.98999	 22.50	
 11.991	 -9.464	 24.09826	 19.48805	  0.57697	  8.25738	 10.08033	 -0.35982	 25.57512	711.42999	 22.50	
 11.990	-28.440	 24.16719	 18.47809	  1.41412	  5.42377	 13.24637	 -0.45984	 25.58051	711.65002	 22.50	
 12.012	-47.388	 24.15969	 16.39782	  2.96833	  3.06090	 16.15747	 -0.49578	 25.57004	711.65002	 22.50	
 12.013	-66.294	 24.16064	 13.54391	  5.45116	  1.60037	 18.12242	 -0.54617	 25.56477	711.27002	 22.50	
 11.989	-85.301	 24.13774	 10.28307	  8.46864	  0.97823	 19.03389	 -0.55145	 25.57163	712.02002	 22.50	
 12.007	-104.200	 24.10081	  7.12501	 11.72412	  1.09256	 18.77074	 -0.54149	 25.58162	712.08002	 22.50	
 12.006	-123.113	 24.03804	  4.33917	 14.83900	  2.02364	 17.33006	 -0.58720	 25.57257	711.96997	 22.50	
 12.013	-142.081	 23.99056	  2.24761	 17.45394	  3.84288	 14.83470	 -0.57056	 25.57521	711.35999	 22.50	
 12.009	-161.059	 23.91290	  0.93119	 19.12473	  6.39895	 11.74450	 -0.65019	 25.56526	711.29999	 22.50	
 16.000	180.000	 22.24733	 -3.27507	 21.88350	  8.11031	  7.30764	 -0.98158	 25.58000	711.21997	 22.50	
 15.990	-165.604	 22.32703	 -2.85435	 21.43677	  5.09855	 10.55503	 -0.91216	 25.57293	711.28998	 22.50	
 16.002	-151.165	 22.41092	 -1.84163	 20.13476	  2.44582	 13.78108	 -0.78021	 25.56845	711.40002	 22.50	
 16.002	-136.836	 22.46608	 -0.22325	 18.02599	  0.37792	 16.72020	 -0.67859	 25.56013	711.53003	 22.50	
 15.995	-122.439	 22.48824	  1.83785	 15.25155	 -1.19182	 19.05612	 -0.65679	 25.55369	711.40997	 22.50	
 15.993	-107.966	 22.55390	  4.53738	 12.12915	 -2.09697	 20.66374	 -0.61951	 25.57147	712.07001	 22.50	
 16.005	-93.629	 22.57247	  7.53606	  8.85709	 -2.52231	 21.33494	 -0.61628	 25.55696	711.34003	 22.60	
 15.992	-79.234	 22.61604	 10.76604	  5.65047	 -2.37797	 21.08716	 -0.64998	 25.54253	711.33002	 22.60	
 16.009	-64.774	 22.65746	 14.01110	  2.79808	 -1.61293	 19.93207	 -0.68226	 25.56518	711.85999	 22.60	
 15.997	-50.364	 22.70015	 16.97286	  0.47291	 -0.19541	 17.88374	 -0.73395	 25.56858	711.33002	 22.60	
 15.997	-36.045	 22.70213	 19.34838	 -1.16394	  1.68558	 15.19801	 -0.80380	 25.56962	711.45001	 22.60	
 16.000	-21.597	 22.69441	 20.98922	 -2.15288	  4.16173	 12.04640	 -0.80944	 25.56408	712.09003	 22.60	
 16.003	 -7.169	 22.62321	 21.73925	 -2.75004	  7.06269	  8.85239	 -0.82805	 25.56304	711.34003	 22.60	
 16.003	  7.169	 22.52083	 21.59081	 -2.91987	 10.19690	  5.65973	 -0.88487	 25.57180	712.04999	 22.60	
 16.000	 21.597	 22.41477	 20.54582	 -2.45974	 13.39961	  2.71053	 -0.87539	 25.57368	712.03003	 22.60	
 15.997	 36.045	 22.31548	 18.63436	 -1.28771	 16.45526	  0.45201	 -0.90656	 25.56265	712.09003	 22.60	
 15.997	 50.364	 22.25873	 16.02352	  0.46910	 19.03376	 -1.38297	 -1.07892	 25.56528	712.13000	 22.60	
 16.009	 64.774	 22.21930	 12.89275	  2.77926	 20.93716	 -2.80278	 -1.17238	 25.56140	711.32001	 22.60	
 15.992	 79.234	 22.19819	  9.73169	  5.54357	 21.93273	 -3.28647	 -1.16853	 25.55013	711.96997	 22.60	
 16.005	 93.629	 22.14145	  6.52056	  8.70549	 22.10567	 -3.36606	 -1.23235	 25.56828	711.27002	 22.60	
 15.993	107.966	 22.07326	  3.59491	 11.93969	 21.36697	 -2.99682	 -1.25047	 25.55677	711.26001	 22.60	
 15.995	122.439	 22.04740	  1.05919	 15.11782	 19.74865	 -1.99784	 -1.14839	 25.55915	712.01001	 22.60	
 16.002	136.836	 22.05000	 -0.96474	 17.91175	 17.36850	 -0.46882	 -1.12871	 25.54825	711.91998	 22.60	
 16.002	151.165	 22.07331	 -2.31514	 20.04699	 14.47478	  1.39611	 -1.14986	 25.54371	712.09003	 22.60	
 15.990	165.604	 22.14724	 -3.05928	 21.38486	 11.32541	  4.17082	 -1.06410	 25.54072	712.09003	 22.60	
 20.003	168.362	 20.09756	 -6.03506	 23.21233	  9.62356	  2.62042	 -1.13026	 25.55824	711.87000	 22.60	
 20.008	156.764	 20.01681	 -5.55151	 22.10918	 12.86500	 -0.00365	 -1.29980	 25.55333	712.08002	 22.60	
 20.000	145.147	 19.97414	 -4.63298	 20.29061	 15.93580	 -2.13943	 -1.41572	 25.55721	711.97998	 22.60	
 19.995	133.545	 19.97775	 -3.27599	 17.93635	 18.66838	 -3.81896	 -1.51678	 25.54981	712.03998	 22.60	
 20.009	121.926	 19.98114	 -1.58505	 15.07145	 20.88106	 -5.07308	 -1.60754	 25.54276	712.04999	 22.60	
 20.005	110.327	 19.99988	  0.70914	 11.90195	 22.58652	 -6.02479	 -1.72726	 25.56168	712.10999	 22.60	
 19.989	 98.733	 20.05344	  3.44522	  8.64466	 23.54442	 -6.51031	 -1.74176	 25.55482	712.06000	 22.60	
 19.999	 87.075	 20.08391	  6.40859	  5.48972	 23.76768	 -6.62328	 -1.67937	 25.54222	712.09003	 22.60	
 19.992	 75.457	 20.17051	  9.55913	  2.71554	 23.34035	 -6.16919	 -1.68429	 25.55741	712.00000	 22.70	
 20.009	 63.844	 20.19653	 12.71623	  0.12918	 22.17576	 -5.53179	 -1.68202	 25.56532	712.06000	 22.70	
 19.989	 52.269	 20.24290	 15.80533	 -1.96009	 20.32923	 -4.53096	 -1.63177	 25.55351	712.03003	 22.70	
 19.999	 40.602	 20.26652	 18.60058	 -3.70600	 17.90412	 -3.08902	 -1.49722	 25.55658	712.04999	 22.70	
 20.004	 29.051	 20.35621	 20.85931	 -4.93205	 15.05726	 -1.18721	 -1.37589	 25.55297	712.09003	 22.70	
 20.005	 17.433	 20.46421	 22.48159	 -5.70528	 11.92157	  1.30014	 -1.29138	 25.55410	712.06000	 22.70	
 20.006	  5.780	 20.58954	 23.35826	 -6.05774	  8.64955	  4.12669	 -1.16246	 25.57229	712.03998	 22.70	
 20.006	 -5.780	 20.66058	 23.49380	 -6.10207	  5.58691	  7.25543	 -1.01684	 25.54934	712.07001	 22.70	
 20.005	-17.433	 20.75351	 22.92692	 -5.62976	  2.74207	 10.52694	 -0.89816	 25.55858	712.09998	 22.70	
 20.004	-29.051	 20.78179	 21.59089	 -4.74821	  0.24293	 13.74335	 -0.80109	 25.54206	711.96997	 22.70	
 19.999	-40.602	 20.77933	 19.62520	 -3.71132	 -1.70234	 16.66947	 -0.70053	 25.53903	712.03003	 22.70	
 19.989	-52.269	 20.78658	 17.13186	 -1.98619	 -3.27783	 19.25055	 -0.64692	 25.56091	712.03003	 22.70	
 20.009	-63.844	 20.70942	 14.19362	  0.09985	 -4.56072	 21.21598	 -0.57913	 25.55181	712.00000	 22.70	
 19.992	-75.457	 20.66247	 10.97890	  2.75322	 -5.44021	 22.57311	 -0.50809	 25.55856	712.09003	 22.70	
 19.999	-87.075	 20.59864	  7.75797	  5.68888	 -5.80069	 23.15114	 -0.47661	 25.55655	712.03003	 22.70	
 19.989	-98.733	 20.57313	  4.63196	  8.93124	 -5.58410	 22.97466	 -0.47109	 25.56317	711.95001	 22.70	
 20.005	-110.327	 20.54119	  1.79615	 12.11142	 -5.05626	 22.06717	 -0.47958	 25.55991	712.01001	 22.70	
 20.009	-121.926	 20.51734	 -0.59396	 15.18286	 -4.20080	 20.42191	 -0.51582	 25.55485	711.96002	 22.70	
 19.995	-133.545	 20.48093	 -2.55371	 18.01596	 -3.04603	 18.15095	 -0.56218	 25.56257	712.03998	 22.70	
 20.000	-145.147	 20.43614	 -4.12467	 20.42075	 -1.23590	 15.31427	 -0.64349	 25.55532	712.03003	 22.70	
 20.008	-156.764	 20.32424	 -5.16769	 22.17657	  0.94725	 12.18997	 -0.73338	 25.53190	712.07001	 22.70	
 20.003	-168.362	 20.23786	 -5.99094	 23.24472	  3.56029	  8.93901	 -0.81931	 25.54996	711.59998	 22.70	
 20.000	180.000	 20.16203	 -6.28044	 23.57857	  6.51493	  5.66908	 -0.95347	 25.55738	712.19000	 22.70	
