FileType=PCF
NHL=14
Date=03/11/19	11:58:31
Facility=APL
Serial=16071-5
Customer=NASA
NP=6
Mach=0.450000
Calibration=1:1
CalPts=490
TstPts=95
PortNumbering=AP Standard
Units=Torr C m/s kg/m^3 deg mm 
Theta[deg]	Phi[deg]	P1[Torr]	P2[Torr]	P3[Torr]	P4[Torr]	P5[Torr]	P6[Torr]	Pt[Torr]	Ps[Abs,Torr]	Ts[C]	
  0.000	  0.000	 92.20973	 39.64427	 40.64962	 43.78481	 36.49463	  1.85367	 92.02497	711.39001	 36.30	
  1.691	128.401	 92.15241	 36.36118	 43.56158	 47.45300	 33.24164	  1.72343	 92.06033	711.58002	 36.40	
  1.692	 77.194	 92.18537	 40.35841	 39.44993	 48.55053	 32.43971	  1.85283	 92.07147	711.46997	 36.40	
  1.699	 26.182	 92.24348	 43.97829	 36.23148	 45.99053	 34.26189	  1.94999	 92.08938	711.59998	 36.40	
  1.699	-26.182	 92.29924	 44.24636	 36.34262	 41.73833	 38.54856	  1.88978	 92.11790	711.58002	 36.50	
  1.692	-77.194	 92.31651	 40.94438	 39.67962	 39.16229	 41.45760	  1.78146	 92.12766	711.56000	 36.50	
  1.691	-128.401	 92.28656	 36.84634	 43.81744	 39.93583	 40.35518	  1.69161	 92.09704	711.56000	 36.50	
  1.700	180.000	 92.20953	 34.70407	 45.59756	 43.45684	 36.42556	  1.63810	 92.06297	711.65997	 36.60	
  3.400	180.000	 92.01643	 29.47689	 50.41597	 42.93101	 36.13862	  1.28559	 92.08969	711.56000	 36.60	
  3.388	-152.325	 92.18544	 30.92620	 49.35204	 38.65453	 40.85249	  1.32289	 92.15212	711.56000	 36.60	
  3.397	-124.529	 92.21814	 34.21749	 46.13769	 35.06773	 44.98822	  1.36673	 92.11391	711.58002	 36.70	
  3.399	-96.763	 92.26525	 38.66195	 41.65457	 33.62510	 46.76719	  1.45204	 92.11039	711.53998	 36.70	
  3.394	-69.283	 92.30632	 43.37911	 37.09312	 34.35186	 46.07831	  1.57309	 92.14244	711.54999	 36.80	
  3.400	-41.398	 92.28643	 47.31889	 33.16633	 37.07715	 42.99615	  1.67964	 92.13461	711.58002	 36.80	
  3.401	-14.021	 92.23238	 49.39046	 30.94228	 41.34687	 38.33130	  1.78541	 92.11542	711.59003	 36.90	
  3.401	 14.021	 92.11617	 49.08553	 30.84898	 45.94376	 34.30190	  1.81516	 92.12769	711.48999	 36.90	
  3.400	 41.398	 92.03331	 46.55171	 32.90558	 50.18599	 30.32144	  1.77232	 92.15115	711.59998	 36.90	
  3.394	 69.283	 91.91969	 42.24266	 36.64710	 52.68078	 27.76554	  1.65996	 92.11259	711.45001	 37.00	
  3.399	 96.763	 91.87177	 37.55641	 41.22503	 53.12630	 27.25515	  1.51826	 92.12993	711.51001	 37.00	
  3.397	124.529	 91.93978	 33.34296	 45.79170	 51.36250	 28.93781	  1.41002	 92.18472	711.56000	 37.00	
  3.388	152.325	 91.95737	 30.40659	 49.11961	 47.60093	 32.34364	  1.31137	 92.11645	711.53998	 37.00	
  5.099	161.165	 91.46188	 25.75485	 54.10300	 47.05540	 31.73310	  0.80223	 92.19916	711.59003	 37.10	
  5.109	142.013	 91.35992	 27.65269	 51.61352	 51.58734	 27.54869	  0.87123	 92.20840	711.53003	 37.10	
  5.095	123.033	 91.26775	 30.01039	 47.73940	 54.93561	 24.34982	  0.96314	 92.19615	711.53003	 37.20	
  5.105	104.191	 91.24111	 34.30996	 43.07375	 57.04817	 22.32475	  1.04972	 92.18859	711.52002	 37.20	
  5.093	 85.207	 91.31321	 39.12749	 38.24419	 57.56928	 21.90454	  1.19517	 92.19274	711.56000	 37.20	
  5.104	 66.290	 91.37584	 43.97035	 33.62389	 56.57990	 22.85684	  1.30431	 92.19254	711.51001	 37.20	
  5.094	 47.331	 91.49617	 48.46766	 29.46535	 53.97517	 25.51845	  1.41580	 92.20441	710.87000	 37.30	
  5.089	 28.397	 91.59776	 51.89569	 26.75866	 50.15805	 29.28792	  1.53676	 92.16513	711.53003	 37.30	
  5.096	  9.576	 91.75970	 54.08121	 25.47971	 45.56436	 33.78977	  1.56431	 92.17557	711.45001	 37.30	
  5.096	 -9.576	 91.88892	 54.40881	 25.65579	 40.82941	 37.78994	  1.51500	 92.15468	711.48999	 37.30	
  5.089	-28.397	 92.02193	 52.96241	 27.34176	 36.14692	 42.79606	  1.42579	 92.17091	711.51001	 37.40	
  5.094	-47.331	 92.10061	 49.84827	 30.12865	 32.39180	 47.22636	  1.32420	 92.19262	711.53003	 37.40	
  5.104	-66.290	 92.12310	 45.66743	 34.15804	 29.74446	 50.18120	  1.20784	 92.18307	711.63000	 37.40	
  5.093	-85.207	 92.14032	 40.81487	 38.82469	 28.60218	 51.48199	  1.09558	 92.17540	711.58002	 37.50	
  5.105	-104.191	 92.09904	 35.99283	 43.80054	 28.75238	 51.14108	  0.98281	 92.20170	711.45001	 37.50	
  5.095	-123.033	 92.01617	 31.49384	 48.25645	 30.40983	 49.06485	  0.91873	 92.17790	711.57001	 37.50	
  5.109	-142.013	 91.90813	 28.64277	 52.16158	 33.41893	 45.56400	  0.84500	 92.17736	711.59998	 37.50	
  5.099	-161.165	 91.73026	 26.23769	 54.53711	 37.55024	 40.57378	  0.80535	 92.15740	711.54999	 37.60	
  5.100	180.000	 91.63490	 24.15299	 55.04014	 42.28381	 35.73555	  0.81767	 92.22137	711.56000	 37.60	
  6.800	180.000	 90.80238	 18.99051	 59.35573	 41.35540	 34.95562	  0.17672	 92.21597	711.58002	 37.60	
  6.796	-166.229	 90.95007	 19.73014	 58.93343	 36.65939	 39.70869	  0.16803	 92.18588	711.57001	 37.60	
  6.808	-152.311	 91.13942	 21.49068	 57.39605	 32.39474	 44.78236	  0.17392	 92.21977	711.57001	 37.70	
  6.795	-138.383	 91.24155	 24.24900	 54.55375	 28.76009	 49.06225	  0.22537	 92.14679	711.58002	 37.70	
  6.792	-124.591	 91.44538	 28.78485	 50.87560	 26.07241	 52.41847	  0.27874	 92.22996	711.67999	 37.70	
  6.787	-110.754	 91.54469	 32.15134	 46.44380	 24.18382	 54.80084	  0.34844	 92.22140	711.56000	 37.70	
  6.800	-96.985	 91.62888	 36.75858	 41.73551	 23.27730	 56.07065	  0.40679	 92.23337	711.52002	 37.80	
  6.800	-83.015	 91.67625	 41.51957	 36.98128	 23.37836	 56.03884	  0.50716	 92.24686	711.53003	 37.80	
  6.787	-69.246	 91.65794	 46.22322	 32.46942	 24.48623	 54.74376	  0.60855	 92.22011	711.59998	 37.80	
  6.792	-55.409	 91.64474	 50.58249	 28.39791	 26.62924	 52.22848	  0.73193	 92.22932	711.56000	 37.90	
  6.795	-41.617	 91.59373	 54.42578	 24.91744	 29.59116	 48.81258	  0.80335	 92.25234	711.58002	 37.90	
  6.808	-27.689	 91.50219	 57.25657	 22.21281	 33.43945	 44.23874	  0.93092	 92.23943	711.51001	 37.90	
  6.796	-13.771	 91.32316	 58.60899	 20.56375	 37.79186	 39.29917	  1.01581	 92.19984	711.53003	 37.90	
  6.800	  0.000	 91.14893	 58.91351	 19.90097	 42.49697	 35.35561	  1.05907	 92.20036	711.59998	 38.00	
  6.796	 13.771	 90.97397	 58.05341	 20.42822	 47.19662	 30.72262	  1.08624	 92.20493	711.60999	 38.00	
  6.808	 27.689	 90.86158	 56.05832	 21.88967	 51.72111	 26.37181	  1.07534	 92.29300	711.66998	 38.00	
  6.795	 41.617	 90.68175	 52.52968	 24.20870	 55.57674	 22.47809	  0.97322	 92.26097	711.46002	 38.00	
  6.792	 55.409	 90.55985	 48.55893	 27.35895	 58.64795	 19.34691	  0.87394	 92.26722	711.62000	 38.10	
  6.787	 69.246	 90.47021	 43.97788	 31.72431	 60.85780	 17.37802	  0.79310	 92.26830	711.60999	 38.10	
  6.800	 83.015	 90.39035	 39.23454	 36.22281	 61.95702	 16.31005	  0.65859	 92.26353	711.53998	 38.10	
  6.800	 96.985	 90.36398	 34.47910	 40.99033	 61.83307	 16.39429	  0.52425	 92.29992	711.26001	 38.10	
  6.787	110.754	 90.38924	 30.84124	 45.72076	 60.49498	 17.54692	  0.44909	 92.33228	711.53998	 38.10	
  6.792	124.591	 90.38656	 26.97622	 50.14624	 58.00949	 19.81455	  0.38253	 92.28130	711.62000	 38.10	
  6.795	138.383	 90.38366	 22.80232	 53.88357	 54.75519	 22.90756	  0.28890	 92.22720	711.50000	 38.20	
  6.808	152.311	 90.53656	 20.54838	 56.85156	 50.72455	 26.75329	  0.23048	 92.24800	711.53003	 38.20	
  6.796	166.229	 90.75269	 19.32162	 58.74739	 46.06838	 31.18867	  0.21726	 92.30904	711.59998	 38.20	
  8.491	168.704	 89.49945	 14.53563	 62.99667	 44.93206	 29.95935	 -0.85591	 92.25369	711.65002	 38.20	
  8.502	157.493	 89.36069	 15.37564	 61.43920	 49.75045	 25.41186	 -0.49448	 92.29597	710.90002	 38.20	
  8.494	146.194	 89.21318	 16.82122	 58.87102	 54.13438	 21.16600	 -0.42627	 92.25324	711.58002	 38.20	
  8.495	135.039	 89.21039	 19.37860	 55.61927	 57.99801	 17.74077	 -0.37716	 92.35995	711.62000	 38.20	
  8.487	123.723	 89.11904	 22.65080	 51.53642	 61.29415	 15.19156	 -0.31638	 92.28989	710.85999	 38.20	
  8.492	112.575	 89.02004	 27.31997	 47.15242	 63.80548	 13.17476	 -0.25550	 92.26065	711.28003	 38.30	
  8.510	101.220	 89.00915	 31.67643	 42.26270	 65.47797	 11.80679	 -0.18318	 92.26318	711.00000	 38.30	
  8.500	 90.000	 89.06575	 35.57537	 37.46450	 66.12728	 11.32347	 -0.10551	 92.26602	711.01001	 38.30	
  8.510	 78.780	 89.14407	 40.44314	 32.75841	 65.78394	 11.58637	  0.01563	 92.28481	711.70001	 38.30	
  8.492	 67.425	 89.24609	 45.35875	 28.01575	 64.39039	 12.80652	  0.14966	 92.29122	711.06000	 38.30	
  8.487	 56.277	 89.30798	 49.84589	 24.16280	 62.07218	 14.67312	  0.27877	 92.25365	710.88000	 38.30	
  8.495	 44.961	 89.45175	 54.11218	 20.93317	 58.98929	 17.36999	  0.36391	 92.26555	710.90002	 38.30	
  8.494	 33.806	 89.63303	 57.95696	 18.24701	 55.35497	 20.91177	  0.46406	 92.30692	711.73999	 38.30	
  8.502	 22.507	 89.74581	 60.57572	 16.20255	 51.08674	 25.08896	  0.51855	 92.26029	710.96997	 38.30	
  8.491	 11.296	 90.02663	 62.32497	 14.98320	 46.39869	 29.69504	  0.53239	 92.34506	710.96997	 38.30	
  8.500	  0.000	 90.20899	 63.14196	 14.49911	 41.64219	 34.42445	  0.49646	 92.32034	711.58002	 38.40	
  8.491	-11.296	 90.41254	 62.93657	 15.04965	 36.79594	 38.39544	  0.43553	 92.32338	710.90002	 38.40	
  8.502	-22.507	 90.54152	 61.74312	 16.32739	 32.27950	 43.25151	  0.30297	 92.27038	711.01001	 38.40	
  8.494	-33.806	 90.62134	 59.60976	 18.47287	 28.14297	 48.21222	  0.16651	 92.22422	711.00000	 38.40	
  8.495	-44.961	 90.76743	 56.59313	 21.32972	 24.70329	 52.33091	  0.06562	 92.27753	710.96997	 38.40	
  8.487	-56.277	 90.76478	 52.41901	 24.89764	 21.66005	 55.81302	 -0.02711	 92.22359	711.50000	 38.40	
  8.492	-67.425	 90.74357	 48.00368	 29.09338	 19.36994	 58.40094	 -0.13648	 92.18188	711.63000	 38.50	
  8.510	-78.780	 90.77036	 43.21936	 33.59449	 18.03548	 60.07482	 -0.25507	 92.22945	710.90002	 38.50	
  8.500	-90.000	 90.71548	 38.39552	 38.38682	 17.59739	 60.63273	 -0.29837	 92.20443	710.95001	 38.50	
  8.510	-101.220	 90.65659	 33.60592	 43.16685	 17.83565	 60.12807	 -0.36180	 92.20448	711.59998	 38.50	
  8.492	-112.575	 90.63149	 29.83268	 47.99106	 18.92733	 58.53929	 -0.44668	 92.26075	710.94000	 38.50	
  8.487	-123.723	 90.48396	 25.68657	 52.45220	 20.78396	 56.04927	 -0.49005	 92.22387	710.95001	 38.60	
  8.495	-135.039	 90.36285	 21.15107	 56.34823	 23.78884	 52.61150	 -0.49042	 92.21116	710.90002	 38.60	
  8.494	-146.194	 90.23115	 18.19715	 59.45517	 27.04937	 48.68394	 -0.57157	 92.27129	711.63000	 38.60	
  8.502	-157.493	 90.01037	 15.87979	 61.86757	 30.96109	 43.72550	 -0.63156	 92.24078	711.60999	 38.60	
  8.491	-168.704	 89.80701	 14.88627	 63.23985	 35.38518	 38.76569	 -0.63520	 92.21580	711.70001	 38.60	
  8.500	180.000	 89.62554	 14.30031	 63.60306	 40.12551	 34.61630	 -0.64933	 92.21287	710.98999	 38.60	
 10.200	180.000	 88.13390	  9.14052	 67.60195	 38.65160	 33.46119	 -1.49276	 92.21317	710.95001	 38.60	
 10.191	-170.497	 88.37408	  9.75382	 67.32018	 34.01532	 37.58384	 -1.45835	 92.25136	710.90997	 38.70	
 10.210	-161.034	 88.51993	 10.93706	 66.11754	 29.44047	 42.60597	 -1.54000	 92.23903	710.88000	 38.70	
 10.194	-151.526	 88.73776	 12.94828	 64.05242	 25.42465	 47.57988	 -1.52416	 92.25774	710.91998	 38.70	
 10.190	-142.105	 88.92625	 15.10797	 61.22529	 21.41339	 52.00411	 -1.55933	 92.20974	710.92999	 38.70	
 10.215	-132.646	 89.10329	 18.05407	 57.84902	 18.18402	 56.13317	 -1.56111	 92.26129	711.03998	 38.70	
 10.203	-123.092	 89.14781	 22.01174	 53.68448	 15.74333	 59.50770	 -1.45241	 92.18747	710.94000	 38.70	
 10.192	-113.678	 89.31566	 26.60394	 49.22208	 13.96282	 62.17915	 -1.21141	 92.22451	710.96997	 38.70	
 10.208	-104.249	 89.36934	 31.03464	 44.53222	 12.80339	 63.92815	 -1.17934	 92.19360	710.95001	 38.80	
 10.210	-94.801	 89.46037	 35.02365	 39.67159	 12.34011	 64.68871	 -1.08949	 92.20644	710.90002	 38.80	
 10.210	-85.199	 89.55265	 39.97243	 34.72215	 12.44938	 64.66609	 -1.06757	 92.25689	710.90997	 38.80	
 10.208	-75.751	 89.57050	 44.78000	 30.04169	 13.11665	 63.82792	 -1.04748	 92.25143	710.84998	 38.80	
 10.192	-66.322	 89.55964	 49.56151	 25.36349	 14.51797	 61.96563	 -1.01565	 92.22964	710.92999	 38.80	
 10.203	-56.908	 89.59545	 54.07588	 21.36371	 16.54440	 59.34150	 -0.85307	 92.28932	710.87000	 38.80	
 10.215	-47.354	 89.49147	 58.33532	 17.72888	 19.16550	 55.81400	 -0.87437	 92.22544	710.88000	 38.80	
 10.190	-37.895	 89.49104	 61.61657	 14.82975	 22.66922	 51.72424	 -0.96286	 92.26260	710.91998	 38.80	
 10.194	-28.474	 89.37981	 64.14456	 12.44648	 26.66472	 47.05153	 -0.58162	 92.25971	711.00000	 38.90	
 10.210	-18.966	 89.25246	 66.08014	 10.67545	 30.90517	 42.19543	 -0.47067	 92.29597	710.84003	 38.90	
 10.191	 -9.503	 89.02815	 66.88102	  9.73943	 35.58295	 37.10960	 -0.36431	 92.24514	710.95001	 38.90	
 10.200	  0.000	 88.76387	 66.86861	  9.14225	 40.37106	 33.11861	 -0.25852	 92.23465	710.90002	 38.90	
 10.191	  9.503	 88.63661	 66.43859	  9.55712	 45.17106	 28.20712	 -0.21983	 92.31171	710.94000	 38.90	
 10.210	 18.966	 88.37494	 64.82178	 10.49206	 49.98090	 23.46517	 -0.21197	 92.28629	710.97998	 38.90	
 10.194	 28.474	 88.18999	 62.36532	 12.22744	 54.49062	 19.24459	 -0.28433	 92.26847	710.90002	 39.00	
 10.190	 37.895	 87.97624	 59.30436	 14.40576	 58.50404	 15.52450	 -0.35908	 92.24894	710.92999	 39.00	
 10.215	 47.354	 87.84345	 55.32364	 17.13712	 62.28827	 12.32120	 -0.43227	 92.30232	710.95001	 39.00	
 10.203	 56.908	 87.74324	 50.83398	 20.62543	 65.33891	  9.86791	 -0.85695	 92.31575	710.85999	 39.00	
 10.192	 66.322	 87.61501	 46.29125	 24.50163	 67.58359	  8.00311	 -0.88006	 92.27299	710.96002	 39.00	
 10.208	 75.751	 87.55253	 41.47710	 28.74901	 69.23058	  6.66316	 -0.90204	 92.28651	710.88000	 39.00	
 10.210	 85.199	 87.46144	 36.57133	 33.55634	 69.96847	  6.01423	 -0.98223	 92.25091	710.92999	 39.00	
 10.210	 94.801	 87.38829	 32.38962	 38.51067	 69.80405	  6.15239	 -1.03686	 92.25508	710.98999	 39.00	
 10.208	104.249	 87.36347	 27.83786	 43.39170	 68.80553	  6.91097	 -1.14125	 92.28584	710.89001	 39.00	
 10.192	113.678	 87.33527	 23.47614	 48.23935	 66.89175	  8.39023	 -1.55452	 92.22538	710.83002	 39.00	
 10.203	123.092	 87.40675	 19.06576	 52.73419	 64.39128	 10.41455	 -1.22864	 92.24855	710.89001	 39.00	
 10.215	132.646	 87.43576	 15.85441	 56.96722	 61.09617	 12.96085	 -1.46870	 92.25025	710.90002	 39.00	
 10.190	142.105	 87.55507	 13.68733	 60.48948	 57.21614	 16.07425	 -1.32485	 92.25660	710.84998	 39.00	
 10.194	151.526	 87.67841	 11.59362	 63.41915	 53.05174	 19.44727	 -1.83820	 92.29095	710.82001	 39.00	
 10.210	161.034	 87.81415	 10.05714	 65.71202	 48.43373	 23.94636	 -2.03307	 92.28648	710.83002	 39.00	
 10.191	170.497	 87.96875	  9.32146	 67.01884	 43.58649	 28.65366	 -1.98975	 92.25033	710.71002	 39.10	
 11.899	171.783	 86.19840	  4.59531	 70.81874	 42.08862	 26.97317	 -2.74688	 92.27243	710.78003	 39.10	
 11.890	163.610	 86.00697	  5.24119	 69.55885	 46.80569	 22.25903	 -2.84984	 92.25994	710.77002	 39.10	
 11.889	155.445	 85.81945	  6.46635	 67.58231	 51.49760	 18.13330	 -2.93021	 92.23274	710.84998	 39.10	
 11.909	147.299	 85.67955	  8.13299	 64.98121	 55.93559	 14.49648	 -2.93788	 92.21909	710.94000	 39.10	
 11.902	139.148	 85.60027	 10.07090	 61.75030	 60.05405	 11.10077	 -2.86616	 92.25034	710.90997	 39.20	
 11.894	130.867	 85.54895	 12.74768	 58.04333	 63.86916	  8.12964	 -2.80272	 92.26514	710.91998	 39.20	
 11.897	122.732	 85.54189	 15.63799	 53.74437	 67.07463	  5.66459	 -2.66079	 92.23989	710.78003	 39.20	
 11.903	114.597	 85.43417	 19.77195	 49.19071	 69.66838	  3.62750	 -2.64829	 92.21553	711.03003	 39.20	
 11.893	106.346	 85.39243	 24.17986	 44.17012	 71.62164	  2.07075	 -2.79254	 92.18391	710.90002	 39.20	
 11.892	 98.155	 85.46000	 28.43599	 39.23690	 72.89447	  1.09835	 -2.92153	 92.22523	710.90997	 39.20	
 11.900	 90.000	 85.45332	 33.08965	 34.37271	 73.39571	  0.70271	 -2.03448	 92.17114	710.82001	 39.20	
 11.892	 81.845	 85.60654	 37.20903	 29.55371	 73.18279	  1.04127	 -2.44492	 92.21918	710.84003	 39.20	
 11.893	 73.654	 85.64317	 42.15695	 25.03667	 72.16998	  1.92092	 -2.57635	 92.17798	710.87000	 39.20	
 11.903	 65.403	 85.74529	 47.02035	 20.83048	 70.51138	  3.28101	 -2.52822	 92.23908	710.95001	 39.20	
 11.897	 57.268	 85.80421	 51.55667	 17.24532	 68.12358	  5.15810	 -2.55083	 92.20547	710.85999	 39.20	
 11.894	 49.133	 85.94988	 56.13083	 13.95889	 65.18826	  7.55900	 -1.47078	 92.26244	710.97998	 39.20	
 11.902	 40.852	 86.10900	 60.35460	 10.83143	 61.54953	 10.54138	 -1.49828	 92.26472	710.79999	 39.20	
 11.909	 32.701	 86.28214	 63.70884	  8.44399	 57.57339	 13.95903	 -1.62383	 92.24914	710.96002	 39.30	
 11.889	 24.555	 86.51253	 66.45999	  6.61764	 53.31068	 17.75913	 -1.44727	 92.25391	710.94000	 39.30	
 11.890	 16.390	 86.68592	 68.29282	  5.17148	 48.64573	 21.91611	 -1.41408	 92.24538	711.02002	 39.30	
 11.899	  8.217	 86.91000	 69.82213	  4.21272	 43.80480	 26.62647	 -1.04593	 92.26038	711.00000	 39.30	
 11.900	  0.000	 87.11772	 70.52162	  3.93433	 38.88855	 31.53034	 -1.19181	 92.23538	711.01001	 39.30	
 11.899	 -8.217	 87.34467	 70.48796	  4.24898	 34.14865	 36.62399	 -1.16908	 92.23750	710.94000	 39.30	
 11.890	-16.390	 87.56554	 69.61990	  5.32727	 29.46884	 40.82760	 -1.25927	 92.22839	710.90002	 39.30	
 11.889	-24.555	 87.80590	 68.13756	  6.80915	 24.97387	 45.73489	 -1.34253	 92.30586	710.98999	 39.30	
 11.909	-32.701	 87.85371	 66.14037	  8.83776	 20.79891	 50.49258	 -1.81935	 92.24051	710.88000	 39.30	
 11.902	-40.852	 87.94475	 63.34015	 11.28203	 17.29771	 54.95035	 -1.92497	 92.27558	710.84998	 39.30	
 11.894	-49.133	 87.98344	 59.73185	 14.41129	 14.29742	 58.99730	 -1.87250	 92.25410	710.82001	 39.40	
 11.897	-57.268	 88.09086	 55.52977	 17.88057	 11.86044	 62.32652	 -1.91400	 92.26745	710.83002	 39.40	
 11.903	-65.403	 88.06985	 50.95198	 21.83356	  9.85096	 65.04894	 -1.98126	 92.22157	710.89001	 39.40	
 11.893	-73.654	 88.05840	 46.20938	 26.16285	  8.42210	 66.92783	 -2.02513	 92.23438	710.89001	 39.40	
 11.892	-81.845	 88.02827	 41.31866	 30.96158	  7.36804	 68.13825	 -1.88772	 92.23341	710.90002	 39.40	
 11.900	-90.000	 87.93311	 36.35699	 35.80149	  6.93269	 68.42014	 -1.78360	 92.20669	710.89001	 39.40	
 11.892	-98.155	 87.90214	 31.48394	 40.73781	  7.14773	 68.19965	 -1.94343	 92.24915	710.79999	 39.40	
 11.893	-106.346	 87.83506	 27.68088	 45.56758	  7.86810	 67.14187	 -1.91118	 92.24152	710.87000	 39.40	
 11.903	-114.597	 87.67883	 23.34465	 50.24976	  9.14149	 65.26122	 -1.99228	 92.18893	710.92999	 39.40	
 11.897	-122.732	 87.59209	 19.32436	 54.81468	 10.97106	 62.68169	 -2.20691	 92.22192	710.81000	 39.40	
 11.894	-130.867	 87.44637	 15.41428	 58.96670	 13.17873	 59.41137	 -2.20485	 92.22356	710.88000	 39.40	
 11.902	-139.148	 87.34065	 12.19649	 62.62994	 16.04971	 55.35028	 -2.23258	 92.20664	710.83002	 39.40	
 11.909	-147.299	 87.11956	  9.66751	 65.69893	 19.36396	 50.97591	 -2.34011	 92.17757	710.88000	 39.50	
 11.889	-155.445	 86.93352	  7.68774	 68.17989	 23.50358	 46.26527	 -2.49293	 92.18925	710.91998	 39.50	
 11.890	-163.610	 86.72688	  6.03176	 70.01009	 27.85171	 41.33578	 -2.68850	 92.19157	710.78998	 39.50	
 11.899	-171.783	 86.52669	  4.94361	 71.09741	 32.37053	 36.93682	 -2.62534	 92.21612	710.89001	 39.50	
 11.900	180.000	 86.29202	  4.37167	 71.34556	 37.00126	 32.07306	 -2.62619	 92.19181	710.94000	 39.50	
 13.600	180.000	 84.18352	 -0.79573	 74.84804	 35.20360	 30.26788	 -3.22634	 92.24316	710.90997	 39.50	
 13.608	-172.853	 84.35823	 -0.45890	 74.63364	 30.61470	 35.16530	 -3.21847	 92.20771	710.96002	 39.50	
 13.611	-165.583	 84.57518	  0.53690	 73.71867	 25.94087	 39.69379	 -3.17245	 92.24538	710.78998	 39.50	
 13.601	-158.353	 84.82764	  2.17305	 72.10415	 21.32965	 44.71426	 -3.07835	 92.23888	710.90997	 39.50	
 13.609	-151.210	 85.01643	  4.08296	 69.88669	 17.48406	 49.40971	 -2.86751	 92.22047	710.91998	 39.50	
 13.611	-143.999	 85.24352	  6.38191	 67.02560	 14.01437	 54.16478	 -2.71003	 92.21882	710.91998	 39.50	
 13.601	-136.825	 85.37286	  8.97515	 63.64246	 10.98804	 58.50684	 -2.60773	 92.17762	710.90997	 39.50	
 13.596	-129.640	 85.55611	 11.92666	 59.92827	  8.31059	 62.29929	 -2.61242	 92.24198	710.90002	 39.50	
 13.611	-122.431	 85.67854	 15.67866	 55.67337	  5.89197	 65.62623	 -2.66459	 92.26833	710.87000	 39.50	
 13.604	-115.211	 85.74595	 19.88903	 50.96207	  3.98442	 68.17633	 -2.60838	 92.23151	710.90002	 39.50	
 13.595	-108.042	 85.83658	 24.19938	 46.23517	  2.70504	 69.80559	 -2.53000	 92.22466	710.91998	 39.50	
 13.607	-100.793	 85.88344	 28.60309	 41.40350	  1.84320	 71.24329	 -2.43110	 92.21404	710.77002	 39.50	
 13.601	-93.617	 85.98742	 33.36633	 36.49075	  1.43318	 71.92216	 -2.39167	 92.26354	710.83002	 39.50	
 13.601	-86.383	 85.99087	 37.41514	 31.41554	  1.53710	 71.85056	 -2.43889	 92.19481	710.81000	 39.50	
 13.607	-79.207	 86.06245	 42.35419	 26.77877	  2.06387	 71.15742	 -2.57986	 92.22694	710.78998	 39.50	
 13.595	-71.958	 86.12382	 47.25765	 22.30035	  3.26579	 69.63521	 -2.62419	 92.20615	710.90997	 39.50	
 13.604	-64.789	 86.15660	 51.92677	 18.12631	  4.73589	 68.00506	 -2.59381	 92.22946	710.84003	 39.50	
 13.611	-57.569	 86.14955	 56.63094	 14.45471	  6.66933	 65.38194	 -2.51232	 92.22867	710.85999	 39.60	
 13.596	-50.360	 86.19824	 60.94659	 10.95638	  9.22792	 61.97981	 -2.50834	 92.29652	710.79999	 39.60	
 13.601	-43.175	 86.10003	 64.59904	  7.73220	 12.09201	 58.12313	 -2.55844	 92.26959	710.94000	 39.60	
 13.611	-36.001	 86.03294	 67.63326	  5.02810	 15.37914	 53.70959	 -2.58242	 92.24026	710.78998	 39.60	
 13.609	-28.790	 85.95094	 69.98901	  2.72248	 19.16497	 48.80130	 -2.41751	 92.21370	710.81000	 39.60	
 13.601	-21.647	 85.82035	 71.91930	  0.71826	 23.21712	 44.07296	 -2.51024	 92.20705	710.83002	 39.60	
 13.611	-14.417	 85.64851	 73.29022	 -0.74841	 28.02597	 39.09099	 -2.39164	 92.23654	710.75000	 39.60	
 13.608	 -7.147	 85.36600	 74.00837	 -1.63619	 32.61204	 34.72095	 -2.33266	 92.22723	710.84998	 39.60	
 13.600	  0.000	 85.15189	 73.99304	 -1.96279	 37.22417	 29.85167	 -2.59059	 92.22501	710.88000	 39.60	
 13.608	  7.147	 84.83554	 73.37922	 -1.90834	 42.10684	 25.00473	 -2.67637	 92.19089	710.90997	 39.60	
 13.611	 14.417	 84.66425	 72.09357	 -1.33477	 46.96457	 20.31018	 -2.69706	 92.23096	710.84998	 39.60	
 13.601	 21.647	 84.42307	 70.03416	 -0.22774	 51.76203	 16.13159	 -2.60762	 92.20381	710.78998	 39.60	
 13.609	 28.790	 84.19207	 67.69161	  1.48604	 56.24529	 12.14586	 -2.60718	 92.20138	710.89001	 39.60	
 13.611	 36.001	 83.98772	 64.61945	  4.24439	 60.39643	  8.56383	 -2.70803	 92.22824	710.84003	 39.70	
 13.601	 43.175	 83.83456	 61.04316	  6.98019	 64.30352	  5.42028	 -2.96434	 92.24811	710.84998	 39.70	
 13.596	 50.360	 83.70146	 56.73325	 10.09035	 67.76623	  2.75193	 -3.25600	 92.23698	710.84998	 39.70	
 13.611	 57.569	 83.56606	 52.06376	 13.60652	 70.77418	  0.48767	 -3.40060	 92.17753	710.84003	 39.70	
 13.604	 64.789	 83.50709	 47.43848	 17.37425	 73.17768	 -1.28614	 -3.40359	 92.21568	710.91998	 39.70	
 13.595	 71.958	 83.44016	 42.63394	 21.28499	 74.94879	 -2.65674	 -3.40860	 92.17603	710.92999	 39.70	
 13.607	 79.207	 83.41261	 37.70055	 25.52806	 76.15545	 -3.60444	 -3.49132	 92.23845	710.79999	 39.70	
 13.601	 86.383	 83.26746	 33.62018	 30.01470	 76.66364	 -4.17438	 -3.57373	 92.17953	710.91998	 39.70	
 13.601	 93.617	 83.20303	 28.79004	 34.91364	 76.52764	 -4.38624	 -3.65819	 92.19153	710.90997	 39.70	
 13.607	100.793	 83.12598	 24.45378	 39.84791	 75.75784	 -3.85764	 -3.77422	 92.19925	710.90997	 39.70	
 13.595	108.042	 83.15582	 19.96403	 44.87256	 74.25662	 -2.74991	 -3.74102	 92.21384	710.87000	 39.70	
 13.604	115.211	 83.15823	 15.71456	 49.75852	 72.25654	 -1.30071	 -3.66163	 92.20924	710.82001	 39.70	
 13.611	122.431	 83.21996	 12.03281	 54.39251	 69.59135	  0.61998	 -3.60534	 92.21531	710.96997	 39.70	
 13.596	129.640	 83.27453	  8.97657	 58.84861	 66.31286	  3.12449	 -3.59427	 92.21746	710.92999	 39.70	
 13.601	136.825	 83.26998	  6.49780	 62.63200	 62.63332	  5.86135	 -3.68978	 92.18911	710.92999	 39.70	
 13.611	143.999	 83.31519	  4.16707	 66.08857	 58.62304	  8.99688	 -3.81398	 92.17221	710.87000	 39.80	
 13.609	151.210	 83.43063	  2.23059	 69.10786	 54.28093	 12.66848	 -3.80264	 92.17362	710.81000	 39.80	
 13.601	158.353	 83.60394	  0.77684	 71.48029	 49.64679	 16.55280	 -3.68285	 92.22476	710.78998	 39.70	
 13.611	165.583	 83.73003	 -0.25258	 73.21637	 44.95631	 20.58721	 -3.54508	 92.18429	710.85999	 39.70	
 13.608	172.853	 83.91746	 -0.78282	 74.34891	 39.91889	 25.28731	 -3.40123	 92.18930	710.88000	 39.80	
 15.298	173.587	 81.52412	 -6.08748	 77.41373	 37.79835	 23.49866	 -3.82599	 92.18950	710.97998	 39.80	
 15.291	167.167	 81.36526	 -5.76140	 76.46917	 42.66728	 19.07149	 -4.03027	 92.20675	710.88000	 39.80	
 15.307	160.676	 81.14822	 -4.96061	 74.98681	 47.44213	 14.86715	 -4.26443	 92.17844	710.92999	 39.90	
 15.300	154.261	 81.01360	 -3.74334	 72.88808	 52.20057	 10.84802	 -4.44526	 92.19644	710.84998	 39.90	
 15.288	147.854	 80.91936	 -1.97388	 70.12437	 56.77684	  7.19448	 -4.51493	 92.20566	710.85999	 39.90	
 15.293	141.428	 80.86063	  0.18623	 66.85741	 60.96350	  3.90927	 -4.43722	 92.19588	710.77002	 39.90	
 15.299	134.985	 80.79272	  2.58693	 63.20126	 64.90745	  0.95234	 -4.35471	 92.13772	710.84003	 39.90	
 15.305	128.583	 80.74408	  5.25584	 59.25826	 68.58603	 -1.72792	 -4.34232	 92.19217	710.84998	 39.90	
 15.309	122.142	 80.63288	  8.04769	 54.76857	 71.77884	 -4.10972	 -4.39843	 92.15242	710.91998	 39.90	
 15.304	115.711	 80.60847	 11.67063	 50.10034	 74.42764	 -5.93984	 -4.47458	 92.16180	710.90997	 39.90	
 15.297	109.291	 80.68895	 15.67325	 45.23857	 76.61165	 -7.28850	 -4.57708	 92.22592	710.94000	 39.90	
 15.293	102.897	 80.67522	 20.03738	 40.30701	 78.14044	 -8.44746	 -4.61440	 92.18038	710.85999	 39.90	
 15.293	 96.458	 80.73521	 24.73947	 35.21889	 79.15051	 -9.09487	 -4.61244	 92.17699	710.90002	 39.90	
 15.300	 90.000	 80.81175	 29.37063	 30.28614	 79.59476	 -9.04955	 -4.52716	 92.18966	710.94000	 39.90	
 15.293	 83.542	 80.89314	 33.89260	 25.99246	 79.41211	 -8.64419	 -4.44132	 92.19424	710.96002	 39.90	
 15.293	 77.103	 80.95625	 38.68425	 21.73733	 78.67244	 -8.11487	 -4.38419	 92.19630	710.87000	 39.90	
 15.297	 70.709	 80.98421	 42.80180	 17.55256	 77.35737	 -7.05044	 -4.35266	 92.17760	710.87000	 39.90	
 15.304	 64.289	 81.04867	 47.59557	 13.54378	 75.54168	 -5.75348	 -4.31020	 92.20145	710.91998	 39.90	
 15.309	 57.858	 81.07536	 52.32851	  9.62537	 73.09206	 -4.07963	 -4.28288	 92.16027	710.91998	 39.90	
 15.305	 51.417	 81.14233	 56.88218	  6.06815	 70.10161	 -1.93616	 -4.09739	 92.13599	710.87000	 39.90	
 15.299	 45.015	 81.36377	 61.47333	  2.63227	 66.72676	  0.59143	 -3.80855	 92.22818	711.00000	 39.90	
 15.293	 38.572	 81.43464	 65.15399	 -0.51463	 62.91394	  3.39326	 -3.62687	 92.15026	710.89001	 39.90	
 15.288	 32.146	 81.65912	 68.37760	 -2.96148	 58.91183	  6.64868	 -3.41918	 92.20759	710.90997	 39.90	
 15.300	 25.739	 81.86602	 71.18294	 -4.74498	 54.54492	 10.35794	 -3.35954	 92.16438	710.95001	 39.90	
 15.307	 19.324	 82.08503	 73.59937	 -6.10896	 49.83756	 14.38152	 -3.41051	 92.18205	710.88000	 39.90	
 15.291	 12.833	 82.30659	 75.33562	 -6.98130	 45.17044	 18.61925	 -3.46676	 92.14854	710.98999	 39.90	
 15.298	  6.413	 82.57667	 76.51507	 -7.45795	 39.98433	 23.15489	 -3.45853	 92.13995	710.85999	 39.90	
 15.300	  0.000	 82.86534	 77.12157	 -7.40275	 35.22995	 28.00270	 -3.26938	 92.20184	710.91998	 39.90	
 15.298	 -6.413	 83.10501	 77.15454	 -7.00441	 30.91100	 32.71260	 -3.04990	 92.20161	710.84003	 39.90	
 15.291	-12.833	 83.31802	 76.56462	 -6.63867	 25.95572	 37.73328	 -2.95562	 92.17105	710.96997	 39.90	
 15.307	-19.324	 83.52676	 75.46165	 -5.44022	 21.48941	 42.10710	 -2.96735	 92.16676	710.94000	 39.90	
 15.300	-25.739	 83.69830	 73.71384	 -3.87626	 17.46440	 47.04821	 -2.98134	 92.15919	710.90002	 40.00	
 15.288	-32.146	 83.79973	 71.39521	 -1.93987	 13.67550	 51.78953	 -3.03020	 92.18376	710.85999	 40.00	
 15.293	-38.572	 83.83938	 68.70538	  0.60267	 10.23323	 56.45607	 -2.97718	 92.15787	710.84998	 40.00	
 15.299	-45.015	 83.90755	 65.53291	  3.80273	  7.17900	 60.72643	 -2.88395	 92.18839	710.94000	 40.00	
 15.305	-51.417	 83.88879	 61.75981	  7.03660	  4.28555	 64.47276	 -2.80869	 92.17094	710.92999	 40.00	
 15.309	-57.858	 83.86848	 57.37145	 10.64435	  1.71351	 67.83230	 -2.76731	 92.13283	710.92999	 40.00	
 15.304	-64.289	 83.90610	 52.62303	 14.49513	 -0.28855	 70.48759	 -2.80690	 92.18180	710.94000	 40.00	
 15.297	-70.709	 83.88949	 47.96268	 18.40402	 -1.78861	 72.38432	 -2.79328	 92.17097	711.00000	 40.00	
 15.293	-77.103	 83.82777	 43.15327	 22.75494	 -2.98840	 73.94684	 -2.78472	 92.15013	710.88000	 40.00	
 15.293	-83.542	 83.75896	 38.19321	 27.31429	 -3.83122	 74.83749	 -2.66069	 92.12526	710.82001	 40.00	
 15.300	-90.000	 83.67632	 33.79851	 31.91021	 -3.74265	 75.19334	 -2.56293	 92.12606	710.90997	 40.00	
 15.293	-96.458	 83.59475	 29.38041	 36.95667	 -3.71977	 74.89331	 -2.53120	 92.11988	710.90002	 40.10	
 15.293	-102.897	 83.60656	 24.88443	 41.92085	 -3.21091	 74.09698	 -2.57321	 92.20615	710.97998	 40.10	
 15.297	-109.291	 83.46065	 20.39066	 46.64403	 -2.43011	 72.58647	 -2.63288	 92.13634	710.95001	 40.10	
 15.304	-115.711	 83.40318	 15.97657	 51.48396	 -1.00307	 70.48867	 -2.70333	 92.20585	711.02002	 40.10	
 15.309	-122.142	 83.27895	 11.92893	 56.14472	  0.79475	 68.16901	 -2.75552	 92.17004	710.98999	 40.10	
 15.305	-128.583	 83.15444	  8.41741	 60.45819	  3.09466	 64.87276	 -2.72566	 92.13921	710.89001	 40.10	
 15.299	-134.985	 83.08566	  5.45247	 64.39768	  5.79563	 61.22731	 -2.75633	 92.19009	711.01001	 40.10	
 15.293	-141.428	 82.92847	  2.70984	 67.86191	  8.78062	 56.95876	 -2.84886	 92.13757	710.97998	 40.10	
 15.288	-147.854	 82.69300	  0.24233	 71.01064	 12.10411	 52.37339	 -2.97809	 92.15974	710.90002	 40.10	
 15.300	-154.261	 82.50176	 -1.84270	 73.56999	 15.45971	 47.46885	 -3.12345	 92.15224	711.01001	 40.10	
 15.307	-160.676	 82.25834	 -3.58965	 75.49302	 19.31247	 42.61993	 -3.29387	 92.13632	710.94000	 40.10	
 15.291	-167.167	 82.07015	 -4.99344	 76.85471	 23.93446	 38.29425	 -3.39510	 92.13765	710.90002	 40.10	
 15.298	-173.587	 81.85810	 -5.80879	 77.64091	 28.66571	 33.12928	 -3.47757	 92.13666	710.83002	 40.10	
 15.300	180.000	 81.66032	 -6.10608	 77.79040	 33.19822	 28.20968	 -3.60651	 92.14848	710.87000	 40.10	
 17.000	180.000	 78.92472	-11.69140	 80.60375	 31.05078	 25.92365	 -3.65693	 92.11662	710.90002	 40.10	
 16.990	-174.179	 79.14052	-11.38761	 80.50783	 26.43036	 30.84458	 -3.41743	 92.13518	710.84998	 40.10	
 17.009	-168.383	 79.31983	-10.71604	 79.88577	 21.95263	 35.95718	 -3.30627	 92.17594	710.90002	 40.10	
 17.000	-162.596	 79.51970	 -9.46356	 78.64099	 17.82076	 41.14053	 -3.21442	 92.14027	710.89001	 40.10	
 16.990	-156.759	 79.76766	 -7.73215	 76.85305	 13.84188	 45.32708	 -3.12069	 92.15824	710.96002	 40.10	
 16.995	-150.919	 79.91805	 -5.87536	 74.52362	  9.98750	 50.19521	 -3.00119	 92.09380	711.01001	 40.10	
 16.988	-145.161	 80.15226	 -3.67895	 71.77461	  6.49799	 55.00668	 -2.82558	 92.13258	711.02002	 40.10	
 17.014	-139.343	 80.30876	 -1.17522	 68.50494	  3.27621	 59.49517	 -2.73687	 92.12086	710.96997	 40.10	
 17.007	-133.546	 80.42196	  1.68888	 64.78468	  0.29165	 63.60316	 -2.68161	 92.07702	710.85999	 40.10	
 17.001	-127.699	 80.56248	  4.88397	 60.74255	 -2.46492	 67.44247	 -2.62658	 92.11887	710.95001	 40.10	
 17.006	-121.937	 80.63680	  8.18999	 56.38279	 -4.75269	 70.45336	 -2.59270	 92.12103	710.85999	 40.10	
 17.002	-116.134	 80.78999	 12.14904	 51.77863	 -6.39751	 72.89127	 -2.53405	 92.13931	710.89001	 40.10	
 17.001	-110.310	 80.84315	 16.40438	 46.90934	 -7.83842	 75.07580	 -2.50909	 92.17067	710.89001	 40.10	
 16.988	-104.517	 80.92222	 20.95409	 42.15020	 -9.28374	 76.62482	 -2.48901	 92.15152	711.02002	 40.10	
 17.008	-98.662	 80.90611	 25.56470	 36.94180	 -9.99918	 77.69868	 -2.52609	 92.10776	711.03003	 40.10	
 16.996	-92.909	 81.04652	 29.88148	 32.27991	 -9.74962	 78.14061	 -2.51737	 92.11590	710.91998	 40.10	
 16.996	-87.091	 81.10450	 34.61039	 27.68888	-10.00761	 78.20623	 -2.57727	 92.11995	710.98999	 40.10	
 17.012	-81.253	 81.21572	 39.45093	 23.05318	 -9.80763	 77.68739	 -2.60186	 92.16374	710.96997	 40.20	
 16.988	-75.483	 81.29669	 43.65718	 18.78630	 -8.84265	 76.53067	 -2.70014	 92.13945	710.94000	 40.20	
 17.001	-69.690	 81.32638	 48.48175	 14.45996	 -7.63527	 74.88809	 -2.72387	 92.15863	710.98999	 40.10	
 17.002	-63.866	 81.26198	 53.07840	 10.26443	 -5.47873	 72.59003	 -2.74425	 92.08118	711.04999	 40.20	
 17.006	-58.063	 81.24583	 57.74309	  6.25506	 -3.56674	 70.18768	 -2.79591	 92.09785	711.03003	 40.20	
 17.001	-52.301	 81.29818	 62.18813	  2.63120	 -1.25693	 66.99778	 -2.86451	 92.12893	710.97998	 40.10	
 17.007	-46.454	 81.27133	 66.04005	 -0.47957	  1.54281	 63.27058	 -2.93125	 92.08901	710.94000	 40.10	
 17.014	-40.657	 81.25484	 69.50857	 -3.45992	  4.63981	 58.94524	 -3.03552	 92.10493	710.96002	 40.10	
 16.988	-34.839	 81.27178	 72.38795	 -6.01257	  8.05885	 54.46505	 -3.07806	 92.15044	710.96997	 40.20	
 16.995	-29.081	 81.21669	 74.93398	 -8.11764	 11.80371	 49.79240	 -3.12452	 92.11942	710.96002	 40.20	
 16.990	-23.241	 81.14893	 77.00218	 -9.82464	 15.84033	 44.82336	 -3.17383	 92.12083	711.07001	 40.20	
 17.000	-17.404	 80.97490	 78.51952	-11.25871	 19.86884	 40.42943	 -3.23406	 92.12782	711.03998	 40.20	
 17.009	-11.617	 80.70857	 79.53220	-12.42044	 24.08986	 35.26887	 -3.28446	 92.12233	710.96002	 40.20	
 16.990	 -5.821	 80.52417	 80.05922	-13.08212	 28.97839	 30.14317	 -3.44746	 92.16245	711.02002	 40.20	
 17.000	  0.000	 80.25841	 79.99292	-13.13613	 33.19651	 25.80033	 -3.81800	 92.13561	710.92999	 40.20	
 16.990	  5.821	 79.96128	 79.29046	-13.21738	 37.81035	 21.19821	 -4.00892	 92.09360	710.98999	 40.20	
 17.009	 11.617	 79.75574	 78.37552	-12.83793	 42.75151	 16.82744	 -4.10374	 92.16450	710.98999	 40.20	
 17.000	 17.404	 79.48364	 76.71027	-12.01631	 47.61491	 12.58249	 -4.06662	 92.13490	711.02002	 40.20	
 16.990	 23.241	 79.23648	 74.52010	-10.82734	 52.32170	  8.45769	 -4.06997	 92.11633	711.06000	 40.20	
 16.995	 29.081	 79.05386	 71.80835	 -9.24441	 56.92030	  4.60646	 -4.12526	 92.10274	710.98999	 40.20	
 16.988	 34.839	 78.86533	 68.81584	 -7.12184	 61.07953	  1.30230	 -4.27114	 92.13967	711.09003	 40.20	
 17.014	 40.657	 78.64951	 65.51256	 -4.75093	 65.12664	 -1.89300	 -4.48344	 92.16403	711.12000	 40.30	
 17.007	 46.454	 78.49207	 61.52086	 -1.48717	 68.86418	 -4.65135	 -4.69619	 92.14873	711.03003	 40.30	
 17.001	 52.301	 78.40624	 56.79634	  1.79817	 72.29176	 -7.02919	 -4.88923	 92.14301	711.03003	 40.30	
 17.006	 58.063	 78.39004	 52.34549	  5.46639	 75.10812	 -9.02484	 -5.13139	 92.19595	711.06000	 40.30	
 17.002	 63.866	 78.31949	 47.59952	  9.39065	 77.52117	-10.65112	 -5.21704	 92.16518	711.01001	 40.30	
 17.001	 69.690	 78.22785	 42.72576	 13.41426	 79.47392	-11.93737	 -5.30068	 92.14477	711.06000	 40.30	
 16.988	 75.483	 78.20204	 37.81478	 17.65686	 80.88116	-12.87738	 -5.33898	 92.17319	711.03998	 40.30	
 17.012	 81.253	 77.99728	 33.60212	 21.88293	 81.73277	-13.73866	 -5.32524	 92.07581	711.17999	 40.30	
 16.996	 87.091	 78.01348	 29.53171	 25.82534	 82.16525	-14.03271	 -5.48254	 92.14410	711.12000	 40.30	
 16.996	 92.909	 77.89317	 24.83204	 30.30017	 81.97820	-14.23872	 -5.47640	 92.08334	711.09003	 40.30	
 17.008	 98.662	 77.83662	 20.05485	 35.13871	 81.45555	-13.96539	 -5.43415	 92.11092	711.07001	 40.30	
 16.988	104.517	 77.87994	 15.50670	 40.41698	 80.26319	-13.13295	 -5.37584	 92.13435	710.98999	 40.30	
 17.001	110.310	 77.79432	 11.37761	 45.31644	 78.57050	-11.89504	 -5.29721	 92.10604	711.01001	 40.30	
 17.002	116.134	 77.80026	  7.51411	 50.22115	 76.38606	-10.59948	 -5.16298	 92.13990	710.94000	 40.30	
 17.006	121.937	 77.80367	  3.95331	 54.87737	 73.73589	 -8.86177	 -5.07471	 92.15852	711.03003	 40.30	
 17.001	127.699	 77.83344	  0.80410	 59.27993	 70.60104	 -6.69154	 -4.98508	 92.09511	710.97998	 40.30	
 17.007	133.546	 77.89301	 -1.75429	 63.47693	 66.97722	 -4.12789	 -4.97089	 92.12294	711.02002	 40.30	
 17.014	139.343	 77.92265	 -4.16025	 67.29417	 63.00285	 -1.25353	 -4.97203	 92.14535	710.91998	 40.30	
 16.988	145.161	 77.99938	 -6.30185	 70.69956	 58.90038	  1.90628	 -4.97962	 92.14460	710.90997	 40.30	
 16.995	150.919	 78.02394	 -8.24793	 73.61654	 54.52851	  5.15522	 -4.94728	 92.11536	710.91998	 40.30	
 16.990	156.759	 78.18398	 -9.67663	 76.06939	 49.75790	  8.95856	 -4.78925	 92.09906	710.97998	 40.30	
 17.000	162.596	 78.36279	-10.83639	 78.06799	 45.01509	 13.02168	 -4.58302	 92.12752	710.90002	 40.30	
 17.009	168.383	 78.59052	-11.54953	 79.43878	 40.17604	 17.25640	 -4.30985	 92.17617	711.03003	 40.30	
 16.990	174.179	 78.76863	-11.64359	 80.26704	 35.46760	 21.62353	 -4.06181	 92.13026	710.96002	 40.30	
 18.709	174.675	 75.84869	-17.14168	 82.88797	 32.95802	 19.55065	 -3.94184	 92.14331	711.03998	 40.30	
 18.703	169.441	 75.68760	-17.15312	 82.13802	 37.39582	 15.26703	 -4.28153	 92.13581	710.97998	 40.40	
 18.691	164.085	 75.58483	-16.50403	 80.86525	 42.22984	 10.94560	 -4.55715	 92.15259	711.02002	 40.30	
 18.706	158.818	 75.39404	-15.55682	 79.09901	 47.11953	  6.85931	 -4.80720	 92.15777	711.07001	 40.40	
 18.695	153.537	 75.23946	-14.26420	 76.80370	 51.79088	  2.99766	 -4.97614	 92.15237	711.06000	 40.40	
 18.704	148.255	 74.98029	-12.72631	 74.09728	 56.38135	 -0.52830	 -5.10884	 92.11996	711.14001	 40.40	
 18.698	142.952	 75.01631	-11.15838	 70.92844	 60.73581	 -3.84156	 -5.14490	 92.07976	710.98999	 40.40	
 18.699	137.625	 74.93581	 -9.27243	 67.30655	 64.88506	 -6.93893	 -5.19329	 92.09444	711.10999	 40.40	
 18.705	132.343	 74.90460	 -6.73472	 63.41917	 68.76478	 -9.65664	 -5.25633	 92.11117	711.14001	 40.40	
 18.713	127.067	 74.95691	 -3.80194	 59.20727	 72.31271	-11.98824	 -5.35824	 92.13025	711.06000	 40.40	
 18.700	121.794	 74.92594	 -0.56314	 54.71874	 75.27556	-13.96522	 -5.46935	 92.06999	711.13000	 40.40	
 18.698	116.504	 74.89890	  2.99190	 50.07378	 77.96524	-15.67111	 -5.61945	 92.06727	711.07001	 40.40	
 18.707	111.165	 74.69605	  6.98737	 45.17045	 80.31701	-17.16099	 -5.79090	 92.10307	710.98999	 40.40	
 18.690	105.863	 74.73843	 11.09151	 40.24000	 82.07283	-18.21129	 -5.84604	 92.08762	710.96997	 40.40	
 18.696	100.583	 74.69097	 15.32419	 35.06821	 83.37180	-19.09381	 -5.95659	 92.01826	711.04999	 40.40	
 18.700	 95.309	 74.94604	 19.90120	 30.24082	 84.27182	-19.58005	 -6.09301	 92.10650	710.98999	 40.40	
 18.700	 90.000	 74.82859	 24.74920	 25.55708	 84.54042	-19.71398	 -6.23720	 92.05006	711.02002	 40.40	
 18.700	 84.691	 74.86697	 29.23503	 21.30387	 84.44965	-19.33706	 -6.20356	 92.08929	710.98999	 40.40	
 18.696	 79.417	 74.92624	 33.42602	 17.50602	 83.87549	-18.99517	 -5.99730	 92.10187	711.06000	 40.40	
 18.690	 74.137	 75.07119	 38.29097	 13.17593	 82.86289	-18.31996	 -5.98581	 92.12996	711.15997	 40.40	
 18.707	 68.835	 75.20776	 42.44296	  8.85117	 81.26514	-17.18238	 -5.88425	 92.07966	711.03003	 40.40	
 18.698	 63.496	 75.35133	 47.42060	  4.73075	 79.25411	-15.85614	 -5.80601	 92.08533	711.04999	 40.40	
 18.700	 58.206	 75.44128	 52.17456	  1.15059	 76.76955	-14.15034	 -5.67272	 92.10004	711.19000	 40.40	
 18.713	 52.933	 75.51244	 56.63301	 -2.32220	 73.96014	-12.26467	 -5.47494	 92.09750	711.15997	 40.40	
 18.705	 47.657	 75.55717	 61.26019	 -5.96371	 70.71427	-10.15243	 -5.24949	 92.07529	711.09998	 40.40	
 18.699	 42.375	 75.77125	 65.49839	 -8.88860	 67.08208	 -7.54960	 -5.06350	 92.12593	711.03998	 40.40	
 18.698	 37.048	 75.96206	 69.01349	-11.32185	 63.02299	 -4.58134	 -4.88774	 92.06017	711.09998	 40.40	
 18.704	 31.745	 76.19967	 72.15238	-13.38608	 59.00031	 -1.35618	 -4.72102	 92.14760	711.13000	 40.40	
 18.695	 26.463	 76.39295	 75.05001	-14.96733	 54.64333	  2.28239	 -4.62157	 92.12291	711.15002	 40.40	
 18.706	 21.182	 76.46187	 77.51844	-16.32452	 49.88266	  6.33595	 -4.50506	 92.09719	711.13000	 40.40	
 18.691	 15.915	 76.55362	 79.51253	-17.50049	 45.15981	 10.49530	 -4.42677	 92.09899	711.09998	 40.40	
 18.703	 10.559	 76.74255	 81.07456	-18.36634	 40.19413	 14.81123	 -4.35785	 92.09609	711.21002	 40.40	
 18.709	  5.325	 77.06284	 82.17685	-18.72247	 35.33354	 19.27278	 -4.22264	 92.08513	711.06000	 40.40	
 18.700	  0.000	 77.27698	 82.71516	-18.69268	 30.65186	 23.69878	 -4.06306	 92.07027	711.16998	 40.40	
 18.709	 -5.325	 77.50134	 82.80449	-18.51456	 26.59852	 27.55286	 -3.53498	 92.08003	711.14001	 40.40	
 18.703	-10.559	 77.79370	 82.37825	-17.85678	 22.18531	 32.75267	 -3.38482	 92.08525	711.06000	 40.40	
 18.691	-15.915	 78.09203	 81.43730	-16.79630	 18.04034	 37.97120	 -3.22821	 92.08529	711.03003	 40.40	
 18.706	-21.182	 78.30983	 79.97502	-15.49825	 13.94994	 43.03075	 -3.09493	 92.10989	711.20001	 40.50	
 18.695	-26.463	 78.44975	 78.14885	-13.93708	  9.88974	 47.35064	 -3.00224	 92.13010	711.21002	 40.50	
 18.704	-31.745	 78.53534	 75.89107	-12.23371	  6.06457	 52.05908	 -2.97516	 92.12484	711.17999	 40.50	
 18.698	-37.048	 78.60521	 73.13577	-10.20829	  2.51000	 56.62057	 -2.86740	 92.12988	711.19000	 40.40	
 18.699	-42.375	 78.60593	 69.91441	 -7.51029	 -0.88185	 61.16379	 -2.81370	 92.11085	711.20001	 40.40	
 18.705	-47.657	 78.57737	 66.50610	 -4.26346	 -3.86398	 65.28700	 -2.68276	 92.07655	711.23999	 40.40	
 18.713	-52.933	 78.58054	 62.55254	 -1.11627	 -6.47792	 68.96619	 -2.62816	 92.08540	711.14001	 40.50	
 18.700	-58.206	 78.60199	 57.96511	  2.34241	 -8.59205	 71.99612	 -2.57672	 92.06886	711.16998	 40.50	
 18.698	-63.496	 78.58131	 53.45794	  6.05287	-10.72924	 74.56305	 -2.48501	 92.06283	711.13000	 40.50	
 18.707	-68.835	 78.54732	 48.75032	 10.25210	-12.66230	 76.91053	 -2.40184	 92.08526	711.09998	 40.50	
 18.690	-74.137	 78.46058	 43.88420	 14.53064	-13.97557	 78.64949	 -2.39892	 92.05625	711.16998	 40.50	
 18.696	-79.417	 78.37768	 38.91444	 19.01135	-14.91910	 79.89124	 -2.32149	 92.06866	711.09998	 40.50	
 18.700	-84.691	 78.32090	 34.81346	 23.56379	-15.47258	 80.80087	 -2.29969	 92.09622	711.09998	 40.50	
 18.700	-90.000	 78.29416	 30.33163	 27.85045	-15.22424	 81.06831	 -2.26062	 92.05657	711.16998	 40.50	
 18.700	-95.309	 78.10947	 25.97169	 32.23463	-15.32058	 80.79401	 -2.18533	 92.02966	711.17999	 40.50	
 18.696	-100.583	 78.09840	 21.31950	 36.93666	-15.00553	 80.00947	 -2.22335	 92.04030	711.12000	 40.50	
 18.690	-105.863	 78.12094	 16.76099	 42.06592	-14.31287	 78.86124	 -2.19188	 92.07803	711.08002	 40.50	
 18.707	-111.165	 77.97308	 12.40038	 46.92160	-13.28745	 77.16487	 -2.19495	 92.06342	711.15002	 40.50	
 18.698	-116.504	 77.95262	  8.31635	 51.83620	-11.54201	 74.94961	 -2.28166	 92.10542	711.12000	 40.50	
 18.700	-121.794	 77.83806	  4.48871	 56.40934	 -9.74385	 72.17075	 -2.32392	 92.07153	710.97998	 40.50	
 18.713	-127.067	 77.67068	  0.86939	 60.77699	 -7.74550	 69.42986	 -2.32905	 92.03869	711.07001	 40.50	
 18.705	-132.343	 77.56724	 -2.71119	 64.80989	 -5.38906	 65.83586	 -2.40766	 92.05372	711.16998	 40.50	
 18.699	-137.625	 77.45349	 -5.75090	 68.61411	 -2.66419	 61.81979	 -2.43622	 92.04128	711.09003	 40.50	
 18.698	-142.952	 77.32215	 -7.49682	 72.05910	  0.45565	 57.26870	 -2.51070	 92.02837	711.07001	 40.50	
 18.704	-148.255	 77.03420	 -9.85991	 75.10004	  3.95939	 52.56445	 -2.60749	 92.03368	711.08002	 40.50	
 18.695	-153.537	 76.87256	-11.81223	 77.66595	  7.70425	 47.58795	 -2.71374	 92.05546	711.04999	 40.50	
 18.706	-158.818	 76.61635	-13.65374	 79.76468	 11.53940	 42.60644	 -2.85470	 92.02350	711.09003	 40.50	
 18.691	-164.085	 76.44569	-15.17755	 81.36535	 15.55215	 38.27982	 -2.94731	 92.04901	711.12000	 40.60	
 18.703	-169.441	 76.38295	-16.38066	 82.46484	 19.76241	 33.31517	 -3.09584	 92.07827	711.13000	 40.60	
 18.709	-174.675	 76.14073	-17.05325	 83.04165	 24.07431	 28.13878	 -3.33205	 92.05012	711.15002	 40.60	
 18.700	180.000	 75.95332	-17.27429	 83.11617	 28.59456	 23.48500	 -3.53571	 92.02480	711.23999	 40.60	
 20.400	180.000	 72.66579	-23.73775	 85.39699	 26.13913	 20.94269	 -3.29736	 92.04088	711.12000	 40.60	
 20.401	-175.153	 72.91619	-23.40910	 85.30658	 21.72089	 25.59903	 -3.14823	 92.05496	711.08002	 40.60	
 20.407	-170.264	 73.10254	-22.70566	 84.73035	 17.39366	 30.50532	 -2.96803	 92.00806	711.07001	 40.60	
 20.410	-165.423	 73.30947	-21.80363	 83.81061	 13.20627	 35.72645	 -2.79385	 92.04947	711.04999	 40.50	
 20.392	-160.496	 73.52800	-20.49713	 82.32913	  9.09413	 40.73955	 -2.71863	 91.99660	711.23999	 40.50	
 20.401	-155.705	 73.73817	-18.99496	 80.46648	  5.11475	 45.13290	 -2.59429	 92.02670	711.08002	 40.50	
 20.405	-150.835	 73.77675	-17.02390	 78.06005	  1.29085	 49.94987	 -2.46313	 91.98503	711.15002	 40.60	
 20.397	-145.903	 74.03490	-14.70218	 75.20799	 -2.15396	 54.75759	 -2.39112	 91.97361	711.13000	 40.60	
 20.392	-141.062	 74.29668	-12.31079	 72.02110	 -5.27797	 59.44207	 -2.28399	 92.00068	711.04999	 40.60	
 20.396	-136.227	 74.48360	 -9.71416	 68.43648	 -8.11887	 63.82700	 -2.21952	 91.95960	711.13000	 40.60	
 20.408	-131.372	 74.59970	 -6.78785	 64.64871	-10.65564	 67.63394	 -2.19579	 91.97167	711.15997	 40.60	
 20.410	-126.511	 74.77111	 -3.38102	 60.54706	-12.85868	 71.20175	 -2.16154	 92.01865	711.16998	 40.60	
 20.400	-121.604	 74.81323	  0.19319	 55.98503	-15.31647	 74.04858	 -2.09285	 91.97593	711.15002	 40.60	
 20.403	-116.741	 74.91724	  3.99414	 51.43116	-17.09153	 76.79723	 -2.02946	 92.00776	711.09998	 40.60	
 20.413	-111.900	 74.94167	  8.13849	 46.65411	-18.59792	 79.04021	 -1.97827	 91.98716	711.10999	 40.60	
 20.398	-107.004	 75.05849	 12.47829	 41.75803	-19.66654	 80.81412	 -1.95919	 92.03118	711.01001	 40.60	
 20.394	-102.132	 75.11282	 16.86296	 36.55595	-20.40542	 82.21841	 -1.97284	 91.97157	711.15002	 40.60	
 20.403	-97.332	 75.16345	 21.37490	 31.98646	-21.01991	 83.12918	 -1.95035	 91.98042	711.09998	 40.60	
 20.392	-92.440	 75.28564	 26.15334	 27.34535	-20.98478	 83.55763	 -2.03351	 92.00652	711.15997	 40.60	
 20.392	-87.560	 75.31764	 30.30514	 23.47504	-20.71172	 83.52782	 -2.11591	 91.99258	711.15997	 40.60	
 20.403	-82.668	 75.32465	 34.68781	 18.91910	-20.80682	 83.08117	 -2.08527	 92.02076	711.14001	 40.60	
 20.394	-77.868	 75.36064	 39.71132	 14.37103	-20.11989	 82.04536	 -2.12592	 91.98157	711.15002	 40.70	
 20.398	-72.996	 75.46899	 43.79839	  9.98506	-19.05827	 80.59716	 -2.13575	 92.03156	711.09003	 40.70	
 20.413	-68.100	 75.45815	 48.66010	  5.76133	-17.81708	 78.70763	 -2.23659	 91.97203	711.08002	 40.70	
 20.403	-63.259	 75.53779	 53.34554	  1.88632	-16.11949	 76.41622	 -2.29056	 92.02336	711.10999	 40.70	
 20.400	-58.396	 75.56399	 57.77795	 -1.79765	-13.81848	 73.61859	 -2.35594	 92.00287	711.14001	 40.70	
 20.410	-53.489	 75.58326	 62.47713	 -5.61242	-11.62653	 70.68849	 -2.42960	 92.04180	711.07001	 40.70	
 20.408	-48.628	 75.54530	 66.57068	 -8.26291	 -9.18368	 67.12119	 -2.50970	 92.02370	711.13000	 40.70	
 20.396	-43.773	 75.55826	 70.07784	-10.78169	 -6.47174	 63.18139	 -2.54835	 92.07603	711.15002	 40.60	
 20.392	-38.938	 75.53836	 73.29841	-13.20543	 -3.45350	 58.73570	 -2.65631	 92.03327	711.08002	 40.60	
 20.397	-34.097	 75.51958	 76.23368	-15.36350	 -0.20244	 54.22516	 -2.77315	 92.01355	711.00000	 40.60	
 20.405	-29.165	 75.31448	 78.86724	-17.33681	  3.61564	 49.46413	 -2.84031	 92.05830	711.06000	 40.70	
 20.401	-24.295	 75.16901	 80.87476	-18.97486	  7.61733	 44.75448	 -2.90767	 92.00974	711.10999	 40.70	
 20.392	-19.504	 75.08567	 82.70798	-20.34381	 11.68143	 40.16228	 -3.03589	 92.04542	711.09003	 40.70	
 20.410	-14.577	 74.83040	 83.98135	-21.52453	 15.84932	 35.01432	 -3.21663	 92.03209	711.29999	 40.70	
 20.407	 -9.736	 74.62061	 84.66399	-22.30181	 20.07906	 29.83625	 -3.39206	 92.00218	711.19000	 40.70	
 20.401	 -4.847	 74.36426	 84.99886	-22.83779	 24.47898	 24.82819	 -3.59045	 91.99436	711.15002	 40.70	
 20.400	  0.000	 74.11773	 84.93299	-23.03640	 28.10824	 21.14672	 -4.04416	 92.00174	711.17999	 40.70	
 20.401	  4.847	 73.78076	 84.43272	-23.06251	 32.59185	 17.05851	 -4.30265	 91.96262	711.15002	 40.70	
 20.407	  9.736	 73.56496	 83.51839	-22.62117	 37.49745	 12.49029	 -4.34168	 92.00441	711.23999	 40.70	
 20.410	 14.577	 73.29198	 82.05834	-21.97310	 42.23751	  8.06063	 -4.54757	 91.99458	711.13000	 40.70	
 20.392	 19.504	 73.13576	 80.05917	-20.96231	 47.22425	  3.76715	 -4.79538	 92.02888	711.16998	 40.70	
 20.401	 24.295	 72.94745	 77.86459	-19.92026	 51.77592	 -0.32851	 -4.94104	 92.02462	711.27002	 40.70	
 20.405	 29.165	 72.94402	 75.15073	-18.46488	 56.31744	 -4.27707	 -5.04519	 92.01267	711.14001	 40.80	
 20.397	 34.097	 72.78716	 71.89345	-16.58570	 60.68939	 -7.99560	 -5.19786	 92.00919	711.10999	 40.80	
 20.392	 38.938	 72.56995	 68.65706	-14.50842	 64.72019	-11.04086	 -5.35126	 92.00036	711.15002	 40.80	
 20.396	 43.773	 72.33932	 65.02805	-12.15636	 68.52589	-13.64019	 -5.52353	 91.98543	711.21997	 40.80	
 20.408	 48.628	 72.18822	 60.77233	 -9.52014	 72.12938	-15.78604	 -5.69527	 92.00700	711.09998	 40.80	
 20.410	 53.489	 72.14131	 56.12337	 -6.44026	 75.40844	-17.90771	 -5.81802	 92.01746	711.12000	 40.80	
 20.400	 58.396	 72.05575	 51.53628	 -3.26677	 78.27716	-19.76416	 -6.02284	 92.01535	711.10999	 40.80	
 20.403	 63.259	 71.94999	 46.76936	  0.28719	 80.73546	-21.52598	 -6.19715	 92.00011	711.08002	 40.80	
 20.413	 68.100	 71.81003	 41.83450	  4.25142	 82.74295	-22.85206	 -6.40567	 91.98618	711.03998	 40.80	
 20.398	 72.996	 71.66267	 37.43781	  8.33177	 84.38814	-23.96236	 -6.54826	 91.99785	711.03998	 40.80	
 20.394	 77.868	 71.62126	 32.86227	 12.74650	 85.50067	-24.72238	 -6.58638	 91.96075	710.98999	 40.80	
 20.403	 82.668	 71.56713	 28.05988	 17.17813	 86.24440	-25.07923	 -6.66660	 91.98109	711.09998	 40.80	
 20.392	 87.560	 71.54323	 24.17650	 20.76838	 86.49032	-25.24062	 -6.89248	 91.98552	711.07001	 40.80	
 20.392	 92.440	 71.57627	 19.58730	 25.25442	 86.40066	-25.00832	 -6.75247	 91.96709	711.06000	 40.80	
 20.403	 97.332	 71.54021	 14.98705	 30.02154	 85.95660	-25.11975	 -6.53799	 91.99794	711.15002	 40.80	
 20.394	102.132	 71.34550	 10.62353	 34.79198	 84.94558	-24.49749	 -6.31843	 91.95284	711.16998	 40.80	
 20.398	107.004	 71.37776	  6.31035	 39.61130	 83.48820	-23.62306	 -6.19735	 91.96861	711.15002	 40.80	
 20.413	111.900	 71.37151	  2.17803	 44.74783	 81.63098	-22.69360	 -6.03604	 91.93889	711.15002	 40.80	
 20.403	116.741	 71.45348	 -1.49350	 49.61340	 79.34357	-21.15518	 -5.91829	 91.95621	711.08002	 40.80	
 20.400	121.604	 71.51669	 -4.92296	 54.30478	 76.69747	-19.60633	 -5.75522	 91.98596	711.01001	 40.80	
 20.410	126.511	 71.51073	 -8.08982	 58.84204	 73.60889	-17.77303	 -5.60282	 91.97944	711.04999	 40.80	
 20.408	131.372	 71.50996	-10.95693	 63.22245	 70.11217	-15.58806	 -5.48217	 92.00127	711.06000	 40.80	
 20.396	136.227	 71.46485	-13.49948	 67.07693	 66.36854	-13.14097	 -5.30415	 91.95360	711.09998	 40.80	
 20.392	141.062	 71.47682	-15.71749	 70.70888	 62.37300	-10.37661	 -5.15731	 91.97785	711.17999	 40.80	
 20.397	145.903	 71.67050	-17.69130	 74.03525	 58.12015	 -7.12012	 -5.01296	 91.96581	711.15997	 40.80	
 20.405	150.835	 71.72150	-19.49295	 76.98772	 53.45705	 -3.39449	 -4.81622	 91.94483	711.01001	 40.80	
 20.401	155.705	 71.85892	-20.91301	 79.41993	 48.93353	  0.39219	 -4.64855	 91.99872	711.06000	 40.80	
 20.392	160.496	 72.04492	-22.05050	 81.53432	 44.14066	  4.46032	 -4.41824	 92.00394	711.04999	 40.80	
 20.410	165.423	 72.21298	-22.97955	 83.25722	 39.23275	  8.73784	 -4.20713	 92.00594	711.03003	 40.80	
 20.407	170.264	 72.25574	-23.74206	 84.35985	 34.49658	 12.94806	 -3.96965	 91.94608	711.04999	 40.80	
 20.401	175.153	 72.40949	-23.77638	 85.03493	 30.50261	 16.61718	 -3.58481	 91.96761	711.13000	 40.80	
  0.141	 45.000	 92.29989	 39.93393	 40.45829	 44.15451	 36.30994	  1.86292	 92.04893	711.15002	 40.80	
  4.001	128.691	 91.55921	 31.10264	 47.48648	 51.98113	 27.88399	  1.21376	 91.97776	711.17999	 40.80	
  4.002	 76.995	 91.59042	 40.81358	 37.41526	 54.44199	 25.67992	  1.50539	 91.97635	711.15997	 40.80	
  4.002	 25.892	 91.76839	 49.55700	 29.75074	 48.45050	 31.53013	  1.70896	 91.96974	711.13000	 40.80	
  4.002	-25.892	 92.11080	 50.22222	 29.97915	 38.58518	 40.87773	  1.64543	 92.03979	711.03998	 40.80	
  4.002	-76.995	 92.07898	 42.31096	 37.70225	 32.13388	 48.07784	  1.41057	 91.95255	711.06000	 40.80	
  4.001	-128.691	 92.05362	 32.29892	 47.80445	 33.85492	 45.83424	  1.19256	 92.01704	711.15002	 40.80	
  4.000	180.000	 91.78983	 27.43238	 52.15971	 42.66072	 35.98313	  1.09865	 92.00436	711.12000	 40.80	
  8.000	180.000	 89.75099	 15.32726	 62.30819	 40.42553	 34.84513	 -0.37796	 91.98685	711.10999	 40.90	
  7.991	-152.370	 90.22358	 18.02625	 59.71582	 30.01029	 45.60535	 -0.36213	 92.02517	711.07001	 40.90	
  7.997	-124.550	 90.58176	 26.36728	 52.11289	 22.64868	 54.75696	 -0.24442	 92.00529	711.19000	 40.90	
  8.006	-96.837	 90.79532	 35.80310	 41.30062	 19.18774	 59.01482	 -0.08057	 91.99934	711.03998	 40.90	
  7.988	-69.228	 90.84258	 46.88403	 30.43412	 20.71971	 57.42139	  0.10130	 91.96957	711.23999	 40.90	
  7.997	-41.563	 90.74751	 56.56253	 21.63276	 26.87126	 50.27734	  0.29385	 91.96657	711.15997	 40.90	
  8.008	-13.821	 90.42760	 61.29982	 16.77907	 36.24471	 39.34980	  0.55571	 91.95681	711.16998	 40.90	
  8.008	 13.821	 89.96764	 60.68795	 16.54455	 47.23680	 29.13176	  0.66258	 91.95805	711.13000	 40.90	
  7.997	 41.563	 89.57636	 54.49210	 21.12089	 57.08979	 19.40717	  0.49548	 92.00429	711.02002	 40.90	
  7.988	 69.228	 89.34303	 44.24984	 29.56843	 63.40318	 13.86284	  0.28121	 92.02705	711.14001	 40.90	
  8.006	 96.837	 89.12612	 33.07647	 40.38797	 64.52061	 12.88106	 -0.00244	 91.99122	711.14001	 40.90	
  7.997	124.550	 89.18019	 23.50815	 51.19675	 60.02572	 16.35354	 -0.13931	 91.96777	711.09003	 40.90	
  7.991	152.370	 89.42522	 17.10998	 59.10165	 51.37534	 24.47339	 -0.33969	 91.98850	711.10999	 40.90	
 12.009	161.059	 85.57414	  5.25057	 69.00861	 48.17666	 20.69451	 -2.89532	 91.97622	711.07001	 40.90	
 12.013	142.081	 85.24454	  8.92996	 62.94286	 58.51575	 11.99020	 -2.91320	 91.97878	711.21002	 40.90	
 12.006	123.113	 85.14403	 15.23114	 53.82349	 66.90051	  5.43072	 -2.45001	 91.97025	711.09998	 40.90	
 12.007	104.200	 85.07788	 25.08654	 42.73079	 72.08643	  1.49888	 -2.94172	 92.01582	711.20001	 40.90	
 11.989	 85.301	 85.22470	 35.65982	 31.43767	 73.35741	  0.60311	 -2.35815	 91.95797	711.13000	 40.90	
 12.013	 66.294	 85.39819	 46.42689	 21.04219	 70.78410	  2.87952	 -2.53143	 92.01742	711.17999	 40.90	
 12.012	 47.388	 85.62565	 57.09534	 12.91813	 64.48040	  7.81628	 -2.38790	 92.04109	711.21997	 40.90	
 11.990	 28.440	 86.04250	 65.22153	  7.00336	 55.29955	 15.67633	 -1.51894	 92.00724	711.17999	 40.90	
 11.991	  9.464	 86.53350	 69.66509	  4.00955	 44.38021	 25.69485	 -1.08670	 92.00530	711.15997	 40.90	
 11.991	 -9.464	 87.05876	 70.43186	  4.10962	 33.21885	 37.22034	 -1.20355	 92.00679	711.09003	 40.90	
 11.990	-28.440	 87.47471	 67.31622	  7.42774	 22.70605	 47.76819	 -1.41650	 91.98027	711.17999	 40.90	
 12.012	-47.388	 87.69401	 60.54961	 13.37942	 14.63866	 58.18788	 -1.86562	 92.05341	711.22998	 40.90	
 12.013	-66.294	 87.78232	 50.37022	 22.05792	  9.40755	 65.28344	 -2.00755	 91.99404	711.10999	 40.90	
 11.989	-85.301	 87.71792	 39.03136	 32.83387	  6.84298	 68.38657	 -1.77870	 92.02184	711.21002	 40.90	
 12.007	-104.200	 87.50653	 28.67106	 44.12479	  7.26500	 67.54859	 -1.85253	 91.98131	711.31000	 40.90	
 12.006	-123.113	 87.23393	 18.77098	 54.93428	 10.74680	 62.52134	 -2.23044	 91.96017	711.28003	 40.90	
 12.013	-142.081	 86.92351	 10.85598	 63.81408	 16.84527	 53.78449	 -2.25063	 91.98627	711.20001	 40.90	
 12.009	-161.059	 86.43143	  6.12218	 69.57448	 26.17798	 42.85524	 -2.64339	 91.96716	711.14001	 40.90	
 16.000	180.000	 80.47634	 -8.42344	 78.87251	 32.32190	 27.17202	 -3.56539	 91.98872	711.25000	 40.90	
 15.990	-165.604	 80.90083	 -6.89403	 77.58035	 21.55534	 39.06210	 -3.30608	 91.96711	711.21997	 40.90	
 16.002	-151.165	 81.35032	 -2.96951	 73.24097	 12.39416	 49.83847	 -2.97167	 91.96136	711.23999	 40.80	
 16.002	-136.836	 81.84512	  2.78749	 65.91772	  4.75837	 60.51319	 -2.69363	 91.96006	711.15997	 40.90	
 15.995	-122.439	 82.06351	 10.20629	 56.43929	 -1.14012	 68.84168	 -2.60392	 91.94238	711.15997	 40.90	
 15.993	-107.966	 82.40712	 20.08933	 45.35069	 -4.70990	 74.03273	 -2.53134	 92.00027	711.07001	 40.90	
 16.005	-93.629	 82.52811	 30.60704	 33.87633	 -6.01381	 76.25710	 -2.44516	 91.98686	711.08002	 40.90	
 15.992	-79.234	 82.71875	 41.12198	 23.09866	 -6.06396	 75.43137	 -2.62903	 91.95853	711.09003	 40.90	
 16.009	-64.774	 82.70679	 52.21602	 13.26045	 -2.56769	 71.40591	 -2.69662	 91.97162	711.17999	 40.90	
 15.997	-50.364	 82.73106	 62.80780	  4.58305	  2.78630	 64.60548	 -2.77697	 91.96326	711.15997	 40.90	
 15.997	-36.045	 82.65505	 70.43987	 -2.49818	  9.82557	 54.97526	 -3.02008	 91.97641	711.19000	 40.90	
 16.000	-21.597	 82.44861	 75.87109	 -7.12769	 18.73915	 43.57325	 -3.03435	 91.96763	711.25000	 40.90	
 16.003	 -7.169	 81.92281	 78.11221	 -9.18900	 29.28009	 32.49313	 -3.16607	 91.94014	711.26001	 40.90	
 16.003	  7.169	 81.28586	 77.46637	 -9.72443	 39.84025	 21.56871	 -3.64400	 91.93419	711.15002	 40.90	
 16.000	 21.597	 80.76449	 73.74107	 -7.97970	 51.21674	 11.62935	 -3.57666	 91.98204	711.14001	 40.90	
 15.997	 36.045	 80.22337	 67.09003	 -3.83561	 61.52301	  2.94900	 -3.83052	 91.95628	711.15002	 40.90	
 15.997	 50.364	 79.87417	 57.97073	  3.38707	 70.15177	 -3.60794	 -4.33768	 91.96036	711.19000	 40.90	
 16.009	 64.774	 79.77127	 47.03130	 12.20473	 76.47671	 -7.99809	 -4.64057	 91.99821	711.14001	 40.90	
 15.992	 79.234	 79.61074	 36.41154	 22.03556	 79.83318	-10.33201	 -4.69838	 91.92952	711.21002	 40.90	
 16.005	 93.629	 79.43221	 25.69966	 32.00835	 80.32556	-11.14592	 -4.90661	 91.94076	711.21997	 40.90	
 15.993	107.966	 79.33813	 15.09455	 43.72519	 77.77778	 -9.38735	 -4.82890	 91.90832	711.12000	 40.90	
 15.995	122.439	 79.35492	  6.21031	 54.95776	 72.35325	 -5.84336	 -4.59496	 91.96685	711.17999	 41.00	
 16.002	136.836	 79.45897	 -0.20713	 64.68301	 64.09508	 -0.03882	 -4.56307	 91.91442	711.12000	 40.90	
 16.002	151.165	 79.60057	 -5.17049	 72.38022	 54.31987	  7.46798	 -4.59762	 91.94592	711.21002	 40.90	
 15.990	165.604	 80.06213	 -7.83455	 77.07865	 43.29176	 16.88968	 -4.22512	 91.95535	711.17999	 41.00	
 20.003	168.362	 73.04607	-21.54731	 83.47799	 36.83661	 12.00573	 -4.09527	 91.95447	711.10999	 41.00	
 20.008	156.764	 72.62731	-19.98857	 79.50007	 48.04700	  2.23125	 -4.61834	 91.93304	711.16998	 41.00	
 20.000	145.147	 72.35251	-16.22507	 73.21844	 58.80326	 -6.18583	 -5.08397	 91.92773	711.19000	 41.00	
 19.995	133.545	 72.25718	-10.95282	 64.83872	 68.34061	-12.95652	 -5.34958	 91.98471	711.28998	 41.00	
 20.009	121.926	 72.28629	 -4.10195	 54.69893	 76.18226	-17.85820	 -5.71357	 91.95959	711.21002	 41.00	
 20.005	110.327	 72.03198	  4.48786	 43.51416	 81.83027	-21.55656	 -6.05267	 91.93959	711.20001	 41.00	
 19.989	 98.733	 72.26065	 14.42822	 31.91613	 85.20691	-23.61665	 -6.45885	 91.96771	711.28998	 41.00	
 19.999	 87.075	 72.27875	 25.42563	 20.81319	 85.97950	-23.83592	 -6.82089	 91.92052	711.21997	 41.00	
 19.992	 75.457	 72.42501	 35.58927	 11.50778	 84.54364	-22.93831	 -6.46223	 91.94415	711.15997	 41.00	
 20.009	 63.844	 72.69872	 46.36681	  1.95196	 80.58813	-20.49617	 -6.17650	 91.94828	711.20001	 41.00	
 19.989	 52.269	 73.00367	 57.20835	 -6.35233	 74.35815	-16.28487	 -5.72743	 91.98322	711.13000	 41.00	
 19.999	 40.602	 73.27220	 67.25907	-13.30612	 66.03322	-10.72304	 -5.34251	 91.95608	711.17999	 41.00	
 20.004	 29.051	 73.68547	 74.81316	-18.23811	 56.33360	 -2.92717	 -4.98640	 91.94535	711.21997	 41.00	
 20.005	 17.433	 73.95935	 80.47150	-21.20120	 45.49318	  6.40243	 -4.59724	 91.99010	711.31000	 41.00	
 20.006	  5.780	 74.53853	 83.75584	-22.74999	 34.10850	 16.94108	 -4.33423	 91.95975	711.19000	 41.00	
 20.006	 -5.780	 75.04421	 84.36774	-22.40712	 24.19747	 26.30884	 -3.59864	 91.88668	711.21002	 41.00	
 20.005	-17.433	 75.61459	 82.67114	-20.21844	 14.29689	 38.32230	 -3.14692	 91.90741	711.17999	 41.00	
 20.004	-29.051	 76.01045	 78.39452	-16.20535	  4.81538	 49.37371	 -2.87673	 91.95632	711.20001	 41.00	
 19.999	-40.602	 76.24635	 71.76138	-12.18487	 -3.37715	 60.07055	 -2.66585	 91.94453	711.28003	 41.00	
 19.989	-52.269	 76.32507	 63.44835	 -4.85795	 -9.67791	 69.33424	 -2.51673	 91.95713	711.33002	 41.00	
 20.009	-63.844	 76.25207	 52.86405	  3.35736	-14.99252	 76.15962	 -2.31798	 91.90778	711.15002	 41.00	
 19.992	-75.457	 76.13120	 41.66856	 13.11769	-18.21839	 80.63049	 -2.18267	 91.93275	711.17999	 41.00	
 19.999	-87.075	 76.02248	 31.16171	 23.77432	-19.39073	 82.87667	 -2.16920	 91.92571	711.17999	 41.00	
 19.989	-98.733	 75.85127	 20.74413	 33.82804	-19.48938	 82.25376	 -2.04289	 91.88410	711.21997	 41.00	
 20.005	-110.327	 75.70653	 10.44645	 45.32132	-17.55782	 79.09717	 -2.08745	 91.91295	711.34998	 41.00	
 20.009	-121.926	 75.52301	  0.90192	 56.35189	-13.94873	 73.40095	 -2.15506	 91.93665	711.34003	 41.00	
 19.995	-133.545	 75.25195	 -7.07110	 66.17207	 -8.53948	 65.75195	 -2.28494	 91.91737	711.37000	 41.00	
 20.000	-145.147	 74.94176	-13.25305	 74.37800	 -1.70296	 55.56356	 -2.43558	 91.96233	711.34003	 41.00	
 20.008	-156.764	 74.37820	-17.98045	 80.37598	  7.02288	 44.22527	 -2.64717	 91.89821	711.21997	 41.00	
 20.003	-168.362	 73.94516	-21.04145	 83.86292	 16.50808	 33.16376	 -2.91436	 91.94270	711.25000	 41.00	
 20.000	180.000	 73.38818	-22.17030	 84.81111	 26.70354	 21.58014	 -3.34414	 91.93479	711.23999	 41.00	
