FileType=PCF
NHL=14
Date=03/11/19	10:47:26
Facility=APL
Serial=16071-5
Customer=NASA
NP=6
Mach=0.300000
Calibration=1:1
CalPts=490
TstPts=95
PortNumbering=AP Standard
Units=Torr C m/s kg/m^3 deg mm 
Theta[deg]	Phi[deg]	P1[Torr]	P2[Torr]	P3[Torr]	P4[Torr]	P5[Torr]	P6[Torr]	Pt[Torr]	Ps[Abs,Torr]	Ts[C]	
  0.000	  0.000	 42.68930	 18.11259	 18.40582	 19.28392	 17.60224	  0.98855	 42.61878	712.09998	 23.30	
  1.691	128.401	 42.66563	 16.61796	 19.80324	 21.01346	 15.83750	  0.93229	 42.63577	712.08002	 23.30	
  1.692	 77.194	 42.68502	 18.48555	 17.83791	 21.50006	 15.40049	  1.00224	 42.63575	712.03003	 23.40	
  1.699	 26.182	 42.71090	 20.19975	 16.26122	 20.28459	 16.58890	  1.03551	 42.65118	712.12000	 23.40	
  1.699	-26.182	 42.71175	 20.28983	 16.24681	 18.25277	 18.14192	  1.00775	 42.64342	711.92999	 23.40	
  1.692	-77.194	 42.70670	 18.70491	 17.88126	 17.01086	 19.40879	  0.94382	 42.63120	712.03998	 23.40	
  1.691	-128.401	 42.70520	 16.67905	 19.87720	 17.40100	 18.92439	  0.89744	 42.64734	712.07001	 23.50	
  1.700	180.000	 42.70197	 15.83926	 20.74383	 19.17943	 17.59334	  0.88494	 42.66126	712.03003	 23.50	
  3.400	180.000	 42.59597	 13.57695	 23.00798	 18.95143	 17.42322	  0.72082	 42.65354	712.09003	 23.50	
  3.388	-152.325	 42.65418	 14.19880	 22.50581	 16.85152	 19.12306	  0.71937	 42.65590	711.97998	 23.50	
  3.397	-124.529	 42.66014	 15.58108	 20.98678	 15.23636	 20.95155	  0.74856	 42.63931	712.10999	 23.60	
  3.399	-96.763	 42.70425	 17.57097	 18.85283	 14.50896	 21.83766	  0.77692	 42.66672	712.04999	 23.60	
  3.394	-69.283	 42.68229	 19.79134	 16.60809	 14.80799	 21.52512	  0.84575	 42.63920	712.03998	 23.60	
  3.400	-41.398	 42.68047	 21.66979	 14.68767	 16.06081	 20.10355	  0.90028	 42.63354	712.08002	 23.60	
  3.401	-14.021	 42.70226	 22.68656	 13.65887	 18.03380	 18.45572	  0.97502	 42.67926	712.06000	 23.70	
  3.401	 14.021	 42.66147	 22.57702	 13.60086	 20.26067	 16.30704	  1.00282	 42.66880	712.08002	 23.70	
  3.400	 41.398	 42.63278	 21.39791	 14.65987	 22.21310	 14.39059	  0.99972	 42.67005	712.04999	 23.70	
  3.394	 69.283	 42.61012	 19.39635	 16.54145	 23.48230	 13.08335	  0.95314	 42.67746	712.12000	 23.70	
  3.399	 96.763	 42.58819	 17.11138	 18.72087	 23.72518	 12.81644	  0.88889	 42.67289	712.13000	 23.80	
  3.397	124.529	 42.58617	 15.30817	 20.85843	 22.88723	 13.61949	  0.80930	 42.69185	712.15997	 23.80	
  3.388	152.325	 42.57422	 13.99513	 22.42985	 21.16231	 15.34427	  0.75669	 42.66690	712.17999	 23.80	
  5.099	161.165	 42.32747	 11.40648	 24.73664	 20.91137	 14.94169	  0.45847	 42.66579	712.13000	 23.80	
  5.109	142.013	 42.26738	 12.31376	 23.53155	 22.99342	 12.78971	  0.54189	 42.65555	711.96997	 23.80	
  5.095	123.033	 42.25408	 13.86545	 21.74217	 24.63822	 11.40867	  0.60307	 42.65061	712.02002	 23.90	
  5.105	104.191	 42.29125	 15.76304	 19.55535	 25.66940	 10.56656	  0.66263	 42.67031	711.95001	 23.90	
  5.093	 85.207	 42.30212	 17.80639	 17.26216	 25.88054	 10.42932	  0.73578	 42.65396	711.98999	 23.90	
  5.104	 66.290	 42.35236	 20.19116	 15.01616	 25.36355	 10.91039	  0.80366	 42.67849	711.84998	 24.00	
  5.094	 47.331	 42.39143	 22.27708	 13.14253	 24.04666	 12.07915	  0.86169	 42.67995	712.04999	 24.00	
  5.089	 28.397	 42.41781	 23.79787	 11.80976	 22.18091	 13.80684	  0.88751	 42.65811	712.08002	 24.00	
  5.096	  9.576	 42.46700	 24.69163	 11.09542	 20.03190	 16.01189	  0.88372	 42.67559	712.04999	 24.00	
  5.096	 -9.576	 42.53093	 24.80187	 11.17097	 17.75403	 18.22513	  0.86592	 42.68703	712.08002	 24.00	
  5.089	-28.397	 42.57273	 24.15183	 11.85947	 15.59621	 20.07592	  0.79506	 42.69840	712.10999	 24.00	
  5.094	-47.331	 42.58101	 22.76723	 13.23870	 13.80879	 22.07205	  0.71726	 42.70275	712.08002	 24.10	
  5.104	-66.290	 42.58034	 20.80057	 15.16034	 12.58539	 23.47815	  0.65977	 42.68767	712.20001	 24.10	
  5.093	-85.207	 42.57948	 18.52296	 17.44822	 12.04475	 24.07035	  0.59393	 42.68482	712.04999	 24.10	
  5.105	-104.191	 42.57222	 16.26365	 19.79799	 12.16023	 23.90010	  0.54941	 42.70309	712.10999	 24.10	
  5.095	-123.033	 42.52417	 14.37447	 21.95554	 12.98987	 22.87520	  0.50930	 42.67422	711.32001	 24.20	
  5.109	-142.013	 42.50217	 12.72293	 23.72480	 14.42812	 21.16775	  0.48488	 42.68050	712.09998	 24.20	
  5.099	-161.165	 42.44950	 11.62725	 24.82975	 16.38724	 18.89918	  0.46427	 42.68940	712.09998	 24.20	
  5.100	180.000	 42.41719	 11.18881	 25.17601	 18.60682	 17.18242	  0.47973	 42.70120	712.16998	 24.20	
  6.800	180.000	 41.99733	  8.69589	 27.24397	 18.10938	 16.76708	  0.14677	 42.68996	712.09998	 24.20	
  6.796	-166.229	 42.04966	  9.06221	 26.96271	 15.96383	 18.87820	  0.14673	 42.67216	712.04999	 24.30	
  6.808	-152.311	 42.12759	  9.88147	 26.16687	 13.90736	 20.76602	  0.16513	 42.70090	712.09998	 24.30	
  6.795	-138.383	 42.17484	 11.14277	 24.81601	 12.19527	 22.78270	  0.13769	 42.69366	712.08002	 24.30	
  6.792	-124.591	 42.20042	 12.75023	 23.09090	 10.91918	 24.34046	  0.16743	 42.68309	712.03003	 24.30	
  6.787	-110.754	 42.25996	 14.63561	 21.05590	  9.98979	 25.46909	  0.22018	 42.70000	712.07001	 24.30	
  6.800	-96.985	 42.29078	 16.56495	 18.81748	  9.52555	 26.02505	  0.26575	 42.70693	712.03998	 24.40	
  6.800	-83.015	 42.29873	 18.78712	 16.48383	  9.52512	 26.10207	  0.29549	 42.69534	712.21002	 24.40	
  6.787	-69.246	 42.30648	 21.00284	 14.30069	 10.09127	 25.49453	  0.35023	 42.69047	712.06000	 24.40	
  6.792	-55.409	 42.28561	 23.04120	 12.32740	 11.07983	 24.33671	  0.42979	 42.67729	712.07001	 24.40	
  6.795	-41.617	 42.31029	 24.73825	 10.77159	 12.50820	 22.76235	  0.44085	 42.71387	712.16998	 24.40	
  6.808	-27.689	 42.25191	 25.98367	  9.57722	 14.29673	 20.70341	  0.53420	 42.67464	712.08002	 24.50	
  6.796	-13.771	 42.21827	 26.75482	  8.86398	 16.37601	 18.84698	  0.61303	 42.67013	712.09998	 24.50	
  6.800	  0.000	 42.20033	 26.95787	  8.66717	 18.57132	 16.73584	  0.63331	 42.71730	712.01001	 24.50	
  6.796	 13.771	 42.12804	 26.54310	  8.88951	 20.76661	 14.45917	  0.67999	 42.69648	712.00000	 24.50	
  6.808	 27.689	 42.08859	 25.59149	  9.61396	 22.87335	 12.47458	  0.68083	 42.70730	711.97998	 24.50	
  6.795	 41.617	 42.04810	 24.16674	 10.74520	 24.77168	 10.76665	  0.60158	 42.71214	712.02002	 24.50	
  6.792	 55.409	 42.01650	 22.34572	 12.24434	 26.29760	  9.42012	  0.61086	 42.71558	711.96002	 24.50	
  6.787	 69.246	 41.97832	 20.18432	 14.17148	 27.37854	  8.50964	  0.55305	 42.70545	712.07001	 24.60	
  6.800	 83.015	 41.93248	 17.85328	 16.31426	 27.94110	  7.98884	  0.50165	 42.70946	711.83002	 24.60	
  6.800	 96.985	 41.89553	 15.83103	 18.59863	 27.88034	  7.94883	  0.41580	 42.70010	712.02002	 24.60	
  6.787	110.754	 41.85626	 13.86140	 20.83544	 27.23385	  8.46935	  0.34605	 42.68955	712.03003	 24.60	
  6.792	124.591	 41.85799	 12.04830	 22.93630	 26.08138	  9.39571	  0.32313	 42.70418	711.52002	 24.60	
  6.795	138.383	 41.86991	 10.55926	 24.64395	 24.52804	 10.69447	  0.26572	 42.71458	712.06000	 24.60	
  6.808	152.311	 41.90076	  9.46217	 26.03417	 22.54909	 12.41765	  0.14487	 42.69505	711.59998	 24.70	
  6.796	166.229	 41.96882	  8.86008	 26.97040	 20.40312	 14.45762	  0.05667	 42.72206	712.06000	 24.70	
  8.491	168.704	 41.40511	  6.28012	 28.97570	 19.86805	 13.85679	 -0.33765	 42.70227	712.01001	 24.70	
  8.502	157.493	 41.32048	  6.70029	 28.24368	 22.02536	 11.83376	 -0.34614	 42.70592	712.01001	 24.70	
  8.494	146.194	 41.31553	  7.63042	 27.02858	 24.15337	  9.96358	 -0.30943	 42.71766	712.03998	 24.70	
  8.495	135.039	 41.26806	  8.86369	 25.45317	 26.06082	  8.34152	 -0.18355	 42.69562	712.03998	 24.70	
  8.487	123.723	 41.26604	 10.38861	 23.61215	 27.66863	  7.00538	  0.00862	 42.71397	711.98999	 24.70	
  8.492	112.575	 41.26337	 12.17811	 21.54465	 28.82675	  6.05821	 -0.19682	 42.70406	712.01001	 24.80	
  8.510	101.220	 41.28353	 14.21765	 19.25358	 29.63123	  5.44840	 -0.19307	 42.70148	712.00000	 24.80	
  8.500	 90.000	 41.34305	 16.31536	 16.93493	 29.91827	  5.30513	  0.12023	 42.71036	712.12000	 24.80	
  8.510	 78.780	 41.36106	 18.36446	 14.64519	 29.73469	  5.52130	  0.13104	 42.70033	712.09998	 24.80	
  8.492	 67.425	 41.39913	 20.76769	 12.51132	 29.03963	  6.14919	 -0.02110	 42.70431	712.01001	 24.80	
  8.487	 56.277	 41.45161	 22.93590	 10.71120	 27.95535	  7.06364	  0.10196	 42.71837	711.71997	 24.80	
  8.495	 44.961	 41.48305	 24.85161	  9.21807	 26.45892	  8.34754	  0.19411	 42.71322	712.01001	 24.80	
  8.494	 33.806	 41.51936	 26.44038	  7.94301	 24.65610	  9.91964	  0.40834	 42.71443	711.98999	 24.90	
  8.502	 22.507	 41.57250	 27.71405	  6.98717	 22.60287	 11.79239	  0.22658	 42.70061	712.02002	 24.90	
  8.491	 11.296	 41.65557	 28.49759	  6.42852	 20.43005	 13.84467	  0.40167	 42.71971	711.97998	 24.90	
  8.500	  0.000	 41.70599	 28.82894	  6.22293	 18.13396	 16.15315	  0.24552	 42.71225	712.02002	 24.90	
  8.491	-11.296	 41.76165	 28.69439	  6.36945	 15.89629	 18.41173	  0.23282	 42.70850	711.98999	 24.90	
  8.502	-22.507	 41.82951	 28.15829	  6.94546	 13.74203	 20.24723	  0.26838	 42.71442	712.02002	 24.90	
  8.494	-33.806	 41.84102	 27.07993	  7.92336	 11.80436	 22.49047	  0.09190	 42.70359	712.03003	 24.90	
  8.495	-44.961	 41.87649	 25.64060	  9.18834	 10.19480	 24.38176	  0.03237	 42.71713	712.09998	 25.00	
  8.487	-56.277	 41.87630	 23.84916	 10.79513	  8.81671	 25.93904	 -0.01430	 42.70670	712.09003	 25.00	
  8.492	-67.425	 41.87131	 21.82468	 12.67237	  7.79217	 27.10689	 -0.08260	 42.71894	712.04999	 25.00	
  8.510	-78.780	 41.87577	 19.51270	 14.85897	  7.14062	 27.86037	 -0.09079	 42.72958	712.03003	 25.00	
  8.500	-90.000	 41.86016	 17.29542	 17.18524	  7.03304	 28.06873	 -0.12056	 42.72114	711.98999	 25.00	
  8.510	-101.220	 41.84383	 15.25916	 19.52074	  7.23063	 27.74990	 -0.15474	 42.70935	712.07001	 25.00	
  8.492	-112.575	 41.78106	 13.17955	 21.78334	  7.68359	 27.06369	 -0.13463	 42.70389	711.96997	 25.00	
  8.487	-123.723	 41.76472	 11.31806	 23.82881	  8.62630	 25.94307	 -0.24152	 42.72535	711.95001	 25.00	
  8.495	-135.039	 41.72583	  9.63575	 25.66200	  9.89307	 24.38231	 -0.26039	 42.71820	711.95001	 25.00	
  8.494	-146.194	 41.65770	  8.24157	 27.15814	 11.40573	 22.52958	 -0.28448	 42.71213	712.10999	 25.00	
  8.502	-157.493	 41.58428	  7.13988	 28.33127	 13.24698	 20.29190	 -0.31555	 42.70848	711.97998	 25.10	
  8.491	-168.704	 41.51542	  6.46411	 29.03355	 15.38770	 18.40435	 -0.35651	 42.68927	712.09003	 25.10	
  8.500	180.000	 41.44706	  6.14219	 29.26171	 17.59959	 16.19609	 -0.35325	 42.69728	711.92999	 25.10	
 10.200	180.000	 40.73830	  3.53782	 31.11327	 16.93095	 15.43012	 -0.77711	 42.70730	711.89001	 25.10	
 10.191	-170.497	 40.82047	  3.80193	 30.94092	 14.69226	 17.85138	 -0.78715	 42.71467	712.03003	 25.10	
 10.210	-161.034	 40.84633	  4.38512	 30.33797	 12.48787	 19.74443	 -0.75410	 42.68578	712.09003	 25.10	
 10.194	-151.526	 40.95829	  5.29959	 29.35263	 10.56204	 22.05404	 -0.69809	 42.73708	712.03998	 25.10	
 10.190	-142.105	 41.00797	  6.50104	 28.01375	  8.85326	 24.10682	 -0.63963	 42.70906	711.97998	 25.10	
 10.215	-132.646	 41.04293	  7.97284	 26.34719	  7.35227	 25.97034	 -0.64818	 42.70068	712.08002	 25.20	
 10.203	-123.092	 41.08015	  9.71273	 24.41669	  6.18600	 27.49574	 -0.66856	 42.69736	711.91998	 25.20	
 10.192	-113.678	 41.12873	 11.61491	 22.32412	  5.35587	 28.68186	 -0.63474	 42.70346	711.96997	 25.20	
 10.208	-104.249	 41.15866	 13.66143	 20.06836	  4.80798	 29.43817	 -0.50147	 42.68763	711.90002	 25.20	
 10.210	-94.801	 41.21084	 15.78896	 17.72692	  4.57177	 29.82964	 -0.56379	 42.71528	712.00000	 25.20	
 10.210	-85.199	 41.23413	 17.84504	 15.37063	  4.63218	 29.82263	 -0.57710	 42.70942	712.01001	 25.20	
 10.208	-75.751	 41.25735	 20.25681	 13.06601	  4.91868	 29.42380	 -0.56064	 42.71970	711.94000	 25.20	
 10.192	-66.322	 41.26264	 22.54646	 10.98935	  5.58641	 28.63434	 -0.51008	 42.71047	711.95001	 25.20	
 10.203	-56.908	 41.27561	 24.61899	  9.15026	  6.52948	 27.45178	 -0.45700	 42.71904	712.01001	 25.30	
 10.215	-47.354	 41.24734	 26.44511	  7.55031	  7.74519	 25.92737	 -0.42281	 42.69748	711.90002	 25.30	
 10.190	-37.895	 41.23539	 28.02366	  6.19276	  9.28115	 24.07339	 -0.38863	 42.70026	711.95001	 25.30	
 10.194	-28.474	 41.21035	 29.25776	  5.09005	 11.02854	 21.99775	 -0.32654	 42.71408	711.96997	 25.30	
 10.210	-18.966	 41.16875	 30.19659	  4.26993	 13.08173	 20.07488	 -0.25375	 42.71082	711.85999	 25.30	
 10.191	 -9.503	 41.08849	 30.66036	  3.78063	 15.28773	 17.82860	 -0.18145	 42.68478	711.90997	 25.30	
 10.200	  0.000	 41.04736	 30.82302	  3.64770	 17.58496	 15.36254	 -0.16442	 42.71095	711.94000	 25.30	
 10.191	  9.503	 41.00616	 30.43912	  3.86902	 19.90844	 13.20642	 -0.16419	 42.72557	711.95001	 25.30	
 10.210	 18.966	 40.90293	 29.70418	  4.28051	 22.12547	 11.05993	 -0.18022	 42.70313	711.90997	 25.30	
 10.194	 28.474	 40.84781	 28.58413	  5.09364	 24.24371	  9.13920	 -0.16801	 42.71020	712.01001	 25.40	
 10.190	 37.895	 40.78027	 27.15751	  6.14987	 26.23049	  7.38778	 -0.22593	 42.68734	711.90002	 25.40	
 10.215	 47.354	 40.71873	 25.44809	  7.43665	 28.03167	  5.76248	 -0.36041	 42.69676	711.96002	 25.40	
 10.203	 56.908	 40.69960	 23.45446	  9.07093	 29.54071	  4.46379	 -0.46398	 42.71277	711.92999	 25.40	
 10.192	 66.322	 40.66132	 21.26204	 10.86896	 30.64884	  3.54274	 -0.48371	 42.71280	711.91998	 25.40	
 10.208	 75.751	 40.61737	 18.88305	 12.87949	 31.37086	  2.89348	 -0.47267	 42.69252	711.90997	 25.40	
 10.210	 85.199	 40.60522	 16.72358	 15.10534	 31.75149	  2.55171	 -0.52076	 42.70624	711.81000	 25.40	
 10.210	 94.801	 40.55143	 14.52911	 17.47460	 31.70091	  2.47210	 -0.61432	 42.70951	712.01001	 25.40	
 10.208	104.249	 40.49693	 12.39223	 19.81808	 31.22330	  2.76106	 -0.64993	 42.69948	712.13000	 25.50	
 10.192	113.678	 40.48061	 10.42508	 22.07623	 30.40347	  3.42822	 -0.64620	 42.69567	712.02002	 25.50	
 10.203	123.092	 40.45642	  8.62560	 24.15210	 29.17693	  4.35883	 -0.61601	 42.68787	712.08002	 25.50	
 10.215	132.646	 40.48211	  7.00610	 26.13415	 27.60255	  5.65712	 -0.63513	 42.69352	711.87000	 25.50	
 10.190	142.105	 40.52158	  5.67521	 27.84008	 25.70074	  7.28760	 -0.68537	 42.72238	711.90997	 25.50	
 10.194	151.526	 40.52187	  4.64872	 29.18978	 23.60538	  9.10827	 -0.74434	 42.67445	711.96997	 25.50	
 10.210	161.034	 40.58497	  3.91292	 30.24358	 21.48055	 11.07507	 -0.74645	 42.68148	711.97998	 25.50	
 10.191	170.497	 40.67258	  3.62086	 30.87446	 19.24972	 13.24840	 -0.72988	 42.70058	711.95001	 25.50	
 11.899	171.783	 39.79119	  0.69597	 32.63114	 18.46271	 12.50927	 -1.11280	 42.69679	711.84998	 25.50	
 11.890	163.610	 39.73219	  1.08419	 32.05587	 20.75373	 10.32712	 -1.11373	 42.70079	711.87000	 25.50	
 11.889	155.445	 39.66972	  1.74340	 31.18307	 22.85692	  8.29973	 -1.12601	 42.68805	711.96997	 25.60	
 11.909	147.299	 39.62586	  2.58960	 29.98741	 25.02283	  6.32506	 -1.13052	 42.70469	711.89001	 25.60	
 11.902	139.148	 39.58875	  3.71579	 28.45854	 27.06354	  4.56041	 -1.08232	 42.69157	711.92999	 25.60	
 11.894	130.867	 39.55849	  5.14223	 26.62963	 28.91214	  3.04333	 -1.02670	 42.68208	711.95001	 25.60	
 11.897	122.732	 39.58499	  6.79036	 24.65378	 30.46180	  1.93474	 -1.01276	 42.69555	712.02002	 25.60	
 11.903	114.597	 39.58836	  8.56336	 22.53562	 31.67876	  1.06272	 -1.08134	 42.70505	712.03998	 25.60	
 11.893	106.346	 39.59536	 10.55607	 20.22750	 32.60358	  0.41156	 -1.09462	 42.68652	712.06000	 25.60	
 11.892	 98.155	 39.62783	 12.68763	 17.87673	 33.18332	  0.02456	 -1.04426	 42.68515	712.06000	 25.60	
 11.900	 90.000	 39.66972	 14.86151	 15.52070	 33.41648	 -0.10059	 -0.98081	 42.68056	712.03998	 25.60	
 11.892	 81.845	 39.72734	 17.04591	 13.26113	 33.28768	  0.08951	 -0.91772	 42.69029	712.04999	 25.60	
 11.893	 73.654	 39.74563	 19.23055	 11.09864	 32.80364	  0.49569	 -0.87956	 42.67764	712.03003	 25.60	
 11.903	 65.403	 39.77887	 21.63424	  9.10059	 31.99457	  1.14107	 -0.90828	 42.69740	711.96997	 25.70	
 11.897	 57.268	 39.82327	 23.84591	  7.31512	 30.90244	  1.99012	 -0.89237	 42.71397	712.01001	 25.70	
 11.894	 49.133	 39.84085	 25.85323	  5.68094	 29.45744	  3.10423	 -0.80328	 42.69371	711.70001	 25.70	
 11.902	 40.852	 39.90340	 27.73537	  4.24868	 27.71592	  4.63655	 -0.64725	 42.70947	711.88000	 25.70	
 11.909	 32.701	 39.94978	 29.25338	  3.18834	 25.73642	  6.37589	 -0.54941	 42.68705	712.03003	 25.70	
 11.889	 24.555	 40.03326	 30.55065	  2.38121	 23.62741	  8.32137	 -0.55265	 42.68065	712.07001	 25.70	
 11.890	 16.390	 40.12589	 31.62832	  1.71117	 21.49916	 10.32412	 -0.58851	 42.72058	712.03998	 25.70	
 11.899	  8.217	 40.17499	 32.33041	  1.28941	 19.21339	 12.44861	 -0.60180	 42.71018	711.98999	 25.70	
 11.900	  0.000	 40.22300	 32.62513	  1.12225	 16.88064	 14.67046	 -0.57504	 42.67073	712.03003	 25.70	
 11.899	 -8.217	 40.31375	 32.57071	  1.21883	 14.59094	 16.93194	 -0.57466	 42.69672	711.96997	 25.70	
 11.890	-16.390	 40.36803	 32.12413	  1.65285	 12.37825	 19.42491	 -0.62742	 42.68348	711.95001	 25.70	
 11.889	-24.555	 40.41038	 31.25645	  2.32755	 10.24936	 21.28239	 -0.71186	 42.67384	711.89001	 25.70	
 11.909	-32.701	 40.43395	 30.15568	  3.23809	  8.38435	 23.52552	 -0.79175	 42.68689	712.00000	 25.70	
 11.902	-40.852	 40.43456	 28.70219	  4.43928	  6.73799	 25.55153	 -0.81748	 42.65490	711.96002	 25.70	
 11.894	-49.133	 40.47592	 27.06132	  5.87925	  5.34872	 27.35717	 -0.81507	 42.68935	711.89001	 25.70	
 11.897	-57.268	 40.49377	 25.19470	  7.49735	  4.22094	 28.81489	 -0.82694	 42.68866	711.87000	 25.70	
 11.903	-65.403	 40.47192	 23.13165	  9.28432	  3.33219	 29.97764	 -0.88273	 42.67578	711.79999	 25.70	
 11.893	-73.654	 40.46746	 20.85221	 11.29836	  2.66722	 30.91479	 -0.92134	 42.68591	711.97998	 25.70	
 11.892	-81.845	 40.44498	 18.41282	 13.54084	  2.25383	 31.59920	 -0.90639	 42.68536	711.84003	 25.80	
 11.900	-90.000	 40.42277	 16.32309	 15.83697	  2.06181	 31.84190	 -0.87145	 42.70533	711.84998	 25.80	
 11.892	-98.155	 40.36871	 14.17618	 18.15820	  2.15226	 31.62732	 -0.86309	 42.67421	711.92999	 25.80	
 11.893	-106.346	 40.35860	 12.00883	 20.51454	  2.43581	 31.00674	 -0.88944	 42.68101	711.96997	 25.80	
 11.903	-114.597	 40.28986	  9.92374	 22.77028	  2.98779	 30.08592	 -0.94744	 42.67073	711.90997	 25.80	
 11.897	-122.732	 40.23312	  8.02805	 24.87691	  3.81820	 28.91457	 -0.97035	 42.66412	711.89001	 25.80	
 11.894	-130.867	 40.21809	  6.30428	 26.88153	  4.90710	 27.42546	 -0.97165	 42.68270	711.97998	 25.80	
 11.902	-139.148	 40.17302	  4.74349	 28.68394	  6.25514	 25.65175	 -0.94020	 42.68212	712.01001	 25.80	
 11.909	-147.299	 40.10715	  3.48167	 30.17345	  7.87898	 23.63003	 -0.96973	 42.68087	712.04999	 25.80	
 11.889	-155.445	 40.06480	  2.46813	 31.34957	  9.68458	 21.42731	 -1.02920	 42.70136	711.95001	 25.80	
 11.890	-163.610	 39.98587	  1.66437	 32.15908	 11.69424	 19.45791	 -1.10166	 42.68806	711.81000	 25.80	
 11.899	-171.783	 39.89801	  1.06041	 32.68122	 13.87433	 17.11453	 -1.12798	 42.65995	711.81000	 25.80	
 11.900	180.000	 39.84586	  0.70544	 32.84021	 16.11775	 14.76253	 -1.11519	 42.68266	711.94000	 25.90	
 13.600	180.000	 38.82059	 -1.83562	 34.48621	 15.23749	 13.98330	 -1.37216	 42.67084	711.96997	 25.90	
 13.608	-172.853	 38.86502	 -1.65902	 34.33237	 13.01330	 16.17941	 -1.36877	 42.66041	711.98999	 25.90	
 13.611	-165.583	 38.95528	 -1.18582	 33.88113	 10.81842	 18.70152	 -1.33021	 42.68214	711.90997	 25.90	
 13.601	-158.353	 39.02122	 -0.49972	 33.06839	  8.80870	 20.85106	 -1.28107	 42.67083	711.89001	 25.90	
 13.609	-151.210	 39.09216	  0.32152	 32.05850	  6.95031	 22.91963	 -1.18962	 42.67662	712.00000	 25.90	
 13.611	-143.999	 39.14820	  1.58756	 30.72861	  5.26592	 25.08918	 -1.14567	 42.65887	711.91998	 25.90	
 13.601	-136.825	 39.22100	  2.97016	 29.13883	  3.78140	 27.03652	 -1.12300	 42.69129	711.83002	 25.90	
 13.596	-129.640	 39.25389	  4.52523	 27.30930	  2.55674	 28.70118	 -1.14828	 42.66985	711.89001	 25.90	
 13.611	-122.431	 39.29580	  6.25558	 25.29652	  1.49379	 30.19686	 -1.13440	 42.68391	711.87000	 25.90	
 13.604	-115.211	 39.33158	  8.18516	 23.11708	  0.65887	 31.50168	 -1.11212	 42.67889	711.87000	 25.90	
 13.595	-108.042	 39.35115	 10.21538	 20.85128	  0.09956	 32.51802	 -1.05730	 42.66148	711.85999	 25.90	
 13.607	-100.793	 39.38758	 12.35255	 18.54986	 -0.25470	 33.21259	 -1.01347	 42.66934	711.83002	 25.90	
 13.601	-93.617	 39.43259	 14.57154	 16.16682	 -0.45652	 33.56307	 -1.03053	 42.69234	711.90002	 26.00	
 13.601	-86.383	 39.43124	 16.75212	 13.84511	 -0.43924	 33.54347	 -1.05760	 42.65744	712.00000	 26.00	
 13.607	-79.207	 39.45874	 18.81947	 11.58790	 -0.15924	 33.18066	 -1.10864	 42.65392	711.96002	 26.00	
 13.595	-71.958	 39.50758	 21.29523	  9.45707	  0.32868	 32.45017	 -1.12201	 42.66013	711.90002	 26.00	
 13.604	-64.789	 39.53440	 23.56332	  7.50825	  0.95736	 31.38615	 -1.11902	 42.67379	711.90002	 26.00	
 13.611	-57.569	 39.55611	 25.66976	  5.71347	  1.86297	 30.08276	 -1.08899	 42.68061	711.90002	 26.00	
 13.596	-50.360	 39.55629	 27.59226	  4.06326	  2.95669	 28.61365	 -1.08478	 42.68268	711.95001	 26.00	
 13.601	-43.175	 39.53532	 29.28640	  2.63829	  4.26849	 26.92916	 -1.10819	 42.67673	711.89001	 26.00	
 13.611	-36.001	 39.52639	 30.84914	  1.42832	  5.78493	 24.96790	 -1.11547	 42.66756	711.90997	 26.00	
 13.609	-28.790	 39.51082	 32.17874	  0.35954	  7.50707	 22.79153	 -1.09423	 42.67657	711.90997	 26.00	
 13.601	-21.647	 39.47089	 33.18788	 -0.41607	  9.39831	 20.84252	 -1.01855	 42.67905	711.87000	 26.00	
 13.611	-14.417	 39.39942	 33.87984	 -0.97503	 11.52720	 18.55943	 -0.96222	 42.66522	711.90002	 26.00	
 13.608	 -7.147	 39.32324	 34.23829	 -1.33176	 13.76666	 16.09985	 -0.94227	 42.66003	711.84003	 26.00	
 13.600	  0.000	 39.27350	 34.29141	 -1.42778	 16.03680	 13.88188	 -0.96188	 42.67892	711.91998	 26.00	
 13.608	  7.147	 39.17417	 33.98198	 -1.28079	 18.32369	 11.65594	 -0.99654	 42.65435	711.90997	 26.10	
 13.611	 14.417	 39.11983	 33.40587	 -0.93874	 20.68774	  9.45445	 -1.00963	 42.67904	711.84998	 26.10	
 13.601	 21.647	 39.05061	 32.48654	 -0.35060	 22.89071	  7.38022	 -0.96120	 42.67402	711.77002	 26.10	
 13.609	 28.790	 38.98319	 31.23535	  0.36596	 25.03133	  5.41147	 -0.92497	 42.68649	711.89001	 26.10	
 13.611	 36.001	 38.88706	 29.71147	  1.26682	 27.11605	  3.53226	 -0.95824	 42.65608	711.79999	 26.10	
 13.601	 43.175	 38.83973	 28.07027	  2.41887	 29.00422	  2.04020	 -1.09177	 42.66153	711.81000	 26.10	
 13.596	 50.360	 38.80070	 26.17780	  3.85723	 30.62984	  0.78362	 -1.21982	 42.66708	711.89001	 26.10	
 13.611	 57.569	 38.75318	 24.09153	  5.48370	 32.11573	 -0.33746	 -1.32132	 42.66084	711.95001	 26.10	
 13.604	 64.789	 38.71611	 21.84289	  7.29619	 33.28867	 -1.26056	 -1.32374	 42.66423	711.96997	 26.10	
 13.595	 71.958	 38.70433	 19.45502	  9.22825	 34.15839	 -1.86669	 -1.28939	 42.66007	711.89001	 26.10	
 13.607	 79.207	 38.66842	 17.29066	 11.30254	 34.74242	 -2.32086	 -1.34855	 42.65817	711.84003	 26.10	
 13.601	 86.383	 38.62647	 15.09228	 13.49522	 34.99470	 -2.59853	 -1.37674	 42.65907	711.95001	 26.10	
 13.601	 93.617	 38.59126	 12.87972	 15.78432	 34.96414	 -2.66525	 -1.43971	 42.68308	711.90997	 26.10	
 13.607	100.793	 38.52498	 10.67941	 18.15646	 34.61075	 -2.44303	 -1.52270	 42.66936	711.85999	 26.10	
 13.595	108.042	 38.50037	  8.59364	 20.53255	 33.89997	 -1.91500	 -1.51948	 42.64886	711.84003	 26.10	
 13.604	115.211	 38.49261	  6.65422	 22.80633	 32.90215	 -1.24665	 -1.46999	 42.65966	711.95001	 26.10	
 13.611	122.431	 38.48354	  4.85026	 24.97882	 31.61113	 -0.36556	 -1.40818	 42.65056	711.94000	 26.10	
 13.596	129.640	 38.48422	  3.21285	 27.01114	 30.02836	  0.74371	 -1.38669	 42.64426	711.84998	 26.20	
 13.601	136.825	 38.49750	  1.63559	 28.85912	 28.31490	  2.04405	 -1.45364	 42.65630	711.92999	 26.20	
 13.611	143.999	 38.53180	  0.46469	 30.51284	 26.35470	  3.51471	 -1.50010	 42.67801	711.84998	 26.20	
 13.609	151.210	 38.56695	 -0.42080	 31.87568	 24.20273	  5.38682	 -1.49923	 42.65695	711.83002	 26.20	
 13.601	158.353	 38.60902	 -1.04928	 32.95979	 21.99939	  7.38865	 -1.45632	 42.63989	711.94000	 26.20	
 13.611	165.583	 38.63817	 -1.54643	 33.76953	 19.85293	  9.45994	 -1.41652	 42.62908	711.76001	 26.20	
 13.608	172.853	 38.72501	 -1.79431	 34.28071	 17.51351	 11.70673	 -1.38589	 42.64304	711.82001	 26.20	
 15.298	173.587	 37.56931	 -4.20225	 35.79749	 16.51678	 10.77806	 -1.57003	 42.65242	711.81000	 26.20	
 15.291	167.167	 37.49754	 -4.00419	 35.33445	 18.83309	  8.55564	 -1.64619	 42.65038	711.71997	 26.20	
 15.307	160.676	 37.43522	 -3.69561	 34.63960	 21.04182	  6.39758	 -1.71769	 42.65633	711.89001	 26.20	
 15.300	154.261	 37.38377	 -3.15430	 33.64185	 23.21271	  4.33195	 -1.81579	 42.65861	711.79999	 26.20	
 15.288	147.854	 37.33461	 -2.40164	 32.36300	 25.39020	  2.58888	 -1.86195	 42.65059	711.71002	 26.20	
 15.293	141.428	 37.32230	 -1.39586	 30.85456	 27.48277	  1.03207	 -1.82548	 42.65698	711.78998	 26.20	
 15.299	134.985	 37.30170	 -0.21163	 29.11499	 29.40239	 -0.36676	 -1.78583	 42.63698	711.78003	 26.30	
 15.305	128.583	 37.29844	  1.13931	 27.22583	 31.13882	 -1.62519	 -1.75639	 42.65118	711.78003	 26.30	
 15.309	122.142	 37.29782	  2.75030	 25.19925	 32.70188	 -2.74341	 -1.78222	 42.66047	711.75000	 26.30	
 15.304	115.711	 37.28606	  4.64677	 22.99894	 34.00670	 -3.64270	 -1.85105	 42.64895	711.79999	 26.30	
 15.297	109.291	 37.33891	  6.58383	 20.74719	 35.05936	 -4.29644	 -1.92359	 42.67756	711.73999	 26.30	
 15.293	102.897	 37.31234	  8.60546	 18.38028	 35.75494	 -4.79829	 -1.94194	 42.62151	711.75000	 26.30	
 15.293	 96.458	 37.37592	 10.79321	 15.96665	 36.24600	 -5.13314	 -1.90014	 42.64109	711.82001	 26.30	
 15.300	 90.000	 37.43200	 13.00991	 13.68906	 36.42802	 -5.12695	 -1.83939	 42.64726	711.73999	 26.30	
 15.293	 83.542	 37.49081	 15.24348	 11.50164	 36.34062	 -4.92362	 -1.78995	 42.65144	711.83002	 26.30	
 15.293	 77.103	 37.50852	 17.47615	  9.34306	 35.97714	 -4.65404	 -1.75820	 42.63684	711.84003	 26.30	
 15.297	 70.709	 37.54391	 19.37586	  7.38614	 35.36645	 -4.23252	 -1.72016	 42.65090	711.88000	 26.30	
 15.304	 64.289	 37.54185	 21.92622	  5.48437	 34.46838	 -3.67849	 -1.74556	 42.64176	711.79999	 26.30	
 15.309	 57.858	 37.56677	 24.19445	  3.66150	 33.26303	 -2.84906	 -1.76105	 42.63981	711.73999	 26.30	
 15.305	 51.417	 37.59413	 26.31221	  2.02281	 31.78496	 -1.75550	 -1.66631	 42.63746	711.83002	 26.30	
 15.299	 45.015	 37.66659	 28.26279	  0.66266	 30.13844	 -0.44235	 -1.52956	 42.63950	711.76001	 26.30	
 15.293	 38.572	 37.72070	 30.01092	 -0.59507	 28.31788	  1.00248	 -1.40145	 42.64384	711.72998	 26.30	
 15.288	 32.146	 37.77648	 31.59387	 -1.60921	 26.30531	  2.59477	 -1.33803	 42.63349	711.01001	 26.30	
 15.300	 25.739	 37.83341	 33.01083	 -2.36892	 24.15598	  4.34766	 -1.32533	 42.61674	711.08002	 26.30	
 15.307	 19.324	 37.92181	 34.13856	 -2.95070	 22.00878	  6.37411	 -1.35505	 42.64160	711.66998	 26.30	
 15.291	 12.833	 38.00098	 34.89957	 -3.47880	 19.76353	  8.49504	 -1.39390	 42.63725	711.71997	 26.30	
 15.298	  6.413	 38.06704	 35.43649	 -3.77205	 17.40466	 10.69479	 -1.36515	 42.61580	711.71997	 26.30	
 15.300	  0.000	 38.15234	 35.71201	 -3.84921	 15.08856	 12.96416	 -1.30140	 42.62984	711.65997	 26.40	
 15.298	 -6.413	 38.21701	 35.69979	 -3.79324	 12.85058	 15.21067	 -1.25106	 42.63175	711.64001	 26.40	
 15.291	-12.833	 38.30658	 35.38605	 -3.54570	 10.65110	 17.49561	 -1.24609	 42.63729	711.82001	 26.40	
 15.307	-19.324	 38.33529	 34.78789	 -3.03851	  8.54083	 19.90035	 -1.25004	 42.61258	711.65002	 26.40	
 15.300	-25.739	 38.38910	 33.91345	 -2.36815	  6.67318	 21.77864	 -1.27252	 42.61001	711.75000	 26.40	
 15.288	-32.146	 38.40941	 32.73843	 -1.53450	  4.93072	 24.09204	 -1.29703	 42.61723	711.71002	 26.40	
 15.293	-38.572	 38.43996	 31.28591	 -0.39647	  3.34240	 26.20609	 -1.27579	 42.62867	711.78003	 26.40	
 15.299	-45.015	 38.45796	 29.66056	  0.84112	  1.92290	 28.07490	 -1.24018	 42.63023	711.71997	 26.40	
 15.305	-51.417	 38.42509	 27.90472	  2.26660	  0.60592	 29.72282	 -1.20495	 42.61357	711.85999	 26.40	
 15.309	-57.858	 38.41204	 25.94087	  3.88775	 -0.48872	 31.26744	 -1.18598	 42.61645	711.77002	 26.40	
 15.304	-64.289	 38.42173	 23.82625	  5.71063	 -1.30959	 32.68273	 -1.17715	 42.62379	711.77002	 26.40	
 15.297	-70.709	 38.40890	 21.58622	  7.59402	 -1.93857	 33.73864	 -1.16765	 42.63555	711.77002	 26.40	
 15.293	-77.103	 38.37782	 19.16411	  9.61094	 -2.39168	 34.45246	 -1.14151	 42.62735	711.76001	 26.40	
 15.293	-83.542	 38.34148	 17.09794	 11.82568	 -2.77972	 34.88606	 -1.10579	 42.62975	711.69000	 26.40	
 15.300	-90.000	 38.27766	 14.88382	 14.07519	 -2.92215	 35.12923	 -1.06841	 42.60717	711.71997	 26.40	
 15.293	-96.458	 38.24284	 12.65761	 16.39689	 -2.81325	 34.87363	 -1.05654	 42.60245	711.89001	 26.40	
 15.293	-102.897	 38.23807	 10.46064	 18.78066	 -2.54759	 34.49364	 -1.08005	 42.61748	711.84003	 26.40	
 15.297	-109.291	 38.19823	  8.36773	 21.03904	 -2.20423	 33.80030	 -1.08630	 42.61616	711.79999	 26.40	
 15.304	-115.711	 38.14245	  6.35270	 23.28346	 -1.67388	 32.78842	 -1.13266	 42.61051	711.71997	 26.50	
 15.309	-122.142	 38.12805	  4.42829	 25.48459	 -0.89728	 31.44325	 -1.15006	 42.64542	711.76001	 26.50	
 15.305	-128.583	 38.07246	  2.70568	 27.48816	  0.13200	 29.90587	 -1.16117	 42.62288	711.65997	 26.50	
 15.299	-134.985	 38.06996	  1.04150	 29.36211	  1.40485	 28.21935	 -1.16694	 42.62356	711.78998	 26.50	
 15.293	-141.428	 38.02488	 -0.27375	 31.05498	  2.77119	 26.37471	 -1.18835	 42.61921	711.78998	 26.50	
 15.288	-147.854	 37.95271	 -1.41290	 32.51298	  4.30722	 24.28886	 -1.24057	 42.62558	711.64001	 26.50	
 15.300	-154.261	 37.87512	 -2.28811	 33.74942	  6.00092	 22.00335	 -1.29839	 42.62079	711.64001	 26.50	
 15.307	-160.676	 37.80835	 -2.98247	 34.72718	  7.87751	 20.04047	 -1.39197	 42.62214	711.51001	 26.50	
 15.291	-167.167	 37.74580	 -3.55884	 35.38154	  9.83675	 17.60762	 -1.46132	 42.61850	711.73999	 26.50	
 15.298	-173.587	 37.64392	 -3.96564	 35.77085	 11.98005	 15.31592	 -1.49214	 42.58055	711.72998	 26.50	
 15.300	180.000	 37.60551	 -4.19121	 35.90942	 14.23329	 13.04149	 -1.52762	 42.61047	711.65997	 26.50	
 17.000	180.000	 36.29591	 -6.57019	 37.26849	 13.11543	 12.00519	 -1.59083	 42.59643	711.72998	 26.50	
 16.990	-174.179	 36.37046	 -6.33454	 37.14632	 10.94163	 14.32553	 -1.54344	 42.58821	711.78003	 26.50	
 17.009	-168.383	 36.42463	 -6.10379	 36.81480	  8.83258	 16.63931	 -1.47656	 42.62480	711.79999	 26.50	
 17.000	-162.596	 36.47177	 -5.60282	 36.13734	  6.87735	 18.84093	 -1.42987	 42.58300	711.70001	 26.50	
 16.990	-156.759	 36.55046	 -4.88900	 35.30622	  5.04337	 21.21522	 -1.36152	 42.57670	711.78998	 26.50	
 16.995	-150.919	 36.61103	 -4.12377	 34.18620	  3.28486	 23.27979	 -1.25052	 42.59193	711.70001	 26.50	
 16.988	-145.161	 36.68323	 -3.16215	 32.83691	  1.72001	 25.45298	 -1.19914	 42.57765	711.60999	 26.60	
 17.014	-139.343	 36.74201	 -2.01770	 31.29077	  0.28294	 27.44993	 -1.12644	 42.59040	711.67999	 26.60	
 17.007	-133.546	 36.79812	 -0.68361	 29.50833	 -1.04138	 29.32721	 -1.10485	 42.60566	711.63000	 26.60	
 17.001	-127.699	 36.80681	  0.81298	 27.55034	 -2.20904	 31.00404	 -1.06326	 42.58149	711.65002	 26.60	
 17.006	-121.937	 36.82052	  2.46403	 25.52714	 -3.18981	 32.54583	 -1.03951	 42.58669	711.63000	 26.60	
 17.002	-116.134	 36.86960	  4.43534	 23.39296	 -3.94581	 33.85540	 -1.02800	 42.58414	711.67999	 26.60	
 17.001	-110.310	 36.92858	  6.44724	 21.16508	 -4.35941	 34.86984	 -1.03221	 42.59839	711.71002	 26.60	
 16.988	-104.517	 36.95388	  8.51311	 18.86775	 -4.78689	 35.60470	 -1.02974	 42.56160	711.71002	 26.60	
 17.008	-98.662	 36.94194	 10.65698	 16.45878	 -5.22136	 36.16756	 -0.99564	 42.56853	711.65002	 26.60	
 16.996	-92.909	 36.98540	 12.88663	 14.20578	 -5.27902	 36.44796	 -1.00452	 42.56631	711.53998	 26.60	
 16.996	-87.091	 37.03402	 15.10857	 11.97010	 -5.30220	 36.44251	 -1.02937	 42.58056	711.70001	 26.60	
 17.012	-81.253	 37.04782	 17.32998	  9.74964	 -5.11244	 36.17730	 -1.06772	 42.56801	711.70001	 26.60	
 16.988	-75.483	 37.14407	 19.26676	  7.67441	 -4.59630	 35.58218	 -1.09755	 42.58330	711.66998	 26.60	
 17.001	-69.690	 37.13692	 21.75319	  5.66529	 -4.23401	 34.77081	 -1.10520	 42.58238	711.70001	 26.60	
 17.002	-63.866	 37.13961	 23.98994	  3.78709	 -3.57796	 33.71696	 -1.15445	 42.57008	711.71002	 26.60	
 17.006	-58.063	 37.14956	 26.12124	  1.99832	 -2.82044	 32.38354	 -1.17229	 42.58541	711.69000	 26.60	
 17.001	-52.301	 37.15113	 28.08130	  0.40455	 -1.78502	 30.84906	 -1.19769	 42.56088	711.67999	 26.60	
 17.007	-46.454	 37.18112	 29.86846	 -1.04231	 -0.53124	 29.14319	 -1.24687	 42.57381	711.65002	 26.70	
 17.014	-40.657	 37.18475	 31.61274	 -2.33835	  0.84477	 27.29732	 -1.29394	 42.57840	711.67999	 26.60	
 16.988	-34.839	 37.19172	 33.14392	 -3.37820	  2.36855	 25.27445	 -1.33667	 42.58854	711.64001	 26.70	
 16.995	-29.081	 37.18823	 34.40401	 -4.21256	  4.00815	 23.09940	 -1.36704	 42.57548	711.60999	 26.70	
 16.990	-23.241	 37.16535	 35.46770	 -4.93349	  5.79132	 21.07439	 -1.37383	 42.57865	711.64001	 26.70	
 17.000	-17.404	 37.08266	 36.24348	 -5.69670	  7.65457	 18.72541	 -1.39300	 42.56842	711.65002	 26.70	
 17.009	-11.617	 37.01596	 36.77007	 -6.15325	  9.67340	 16.46991	 -1.41339	 42.56957	711.69000	 26.70	
 16.990	 -5.821	 36.99364	 37.03102	 -6.09175	 11.85986	 14.21771	 -1.50647	 42.58619	711.70001	 26.70	
 17.000	  0.000	 36.90659	 37.05261	 -6.17175	 14.11110	 11.93059	 -1.56858	 42.58808	711.60999	 26.70	
 16.990	  5.821	 36.83754	 36.79070	 -6.06480	 16.41036	  9.68016	 -1.65338	 42.57770	711.60999	 26.70	
 17.009	 11.617	 36.73904	 36.29169	 -5.83547	 18.72605	  7.43132	 -1.69991	 42.57697	711.67999	 26.70	
 17.000	 17.404	 36.65594	 35.54076	 -5.35148	 20.97853	  5.30554	 -1.69937	 42.57051	711.65997	 26.70	
 16.990	 23.241	 36.56124	 34.53404	 -4.97323	 23.17630	  3.41442	 -1.71652	 42.57206	711.65997	 26.70	
 16.995	 29.081	 36.48160	 33.28114	 -4.37651	 25.35557	  1.54200	 -1.71448	 42.57850	711.58002	 26.70	
 16.988	 34.839	 36.43384	 31.79294	 -3.53417	 27.40670	 -0.13283	 -1.73510	 42.59093	711.69000	 26.70	
 17.014	 40.657	 36.37738	 30.08489	 -2.37302	 29.36800	 -1.70103	 -1.84713	 42.59969	710.83002	 26.70	
 17.007	 46.454	 36.30855	 28.23780	 -1.16370	 31.13265	 -3.04120	 -1.95706	 42.57864	711.53003	 26.70	
 17.001	 52.301	 36.25850	 26.29014	  0.18197	 32.77691	 -4.24967	 -2.10763	 42.59331	711.53998	 26.70	
 17.006	 58.063	 36.22733	 24.18832	  1.77154	 34.18641	 -5.25743	 -2.17418	 42.58084	711.53998	 26.70	
 17.002	 63.866	 36.22187	 21.89934	  3.56982	 35.39893	 -6.06906	 -2.18629	 42.58298	711.65002	 26.70	
 17.001	 69.690	 36.18089	 19.33319	  5.41489	 36.35310	 -6.70261	 -2.15334	 42.57193	711.64001	 26.70	
 16.988	 75.483	 36.15854	 17.43443	  7.35658	 37.04815	 -7.20584	 -2.16334	 42.58184	711.60999	 26.70	
 17.012	 81.253	 36.09664	 15.21523	  9.38522	 37.50011	 -7.52623	 -2.19788	 42.57024	711.62000	 26.80	
 16.996	 87.091	 36.06977	 13.02984	 11.50458	 37.66488	 -7.54458	 -2.26002	 42.55895	711.65997	 26.80	
 16.996	 92.909	 36.02153	 10.83092	 13.69973	 37.64598	 -7.78026	 -2.30961	 42.58180	711.67999	 26.70	
 17.008	 98.662	 35.95071	  8.60605	 15.96078	 37.36035	 -7.70683	 -2.32707	 42.57340	711.53003	 26.80	
 16.988	104.517	 35.92407	  6.49683	 18.37145	 36.77269	 -7.25199	 -2.32617	 42.55566	711.60999	 26.80	
 17.001	110.310	 35.89275	  4.49523	 20.71768	 35.94236	 -6.68152	 -2.27346	 42.54457	711.51001	 26.80	
 17.002	116.134	 35.89032	  2.51227	 23.02134	 34.87997	 -6.02241	 -2.18013	 42.55834	711.54999	 26.80	
 17.006	121.937	 35.89186	  0.86601	 25.21110	 33.59210	 -5.16573	 -2.12749	 42.57930	711.60999	 26.80	
 17.001	127.699	 35.90895	 -0.58271	 27.23763	 32.06476	 -4.09685	 -2.09570	 42.56195	711.62000	 26.80	
 17.007	133.546	 35.91025	 -1.94855	 29.20115	 30.31570	 -2.87765	 -2.09467	 42.57139	711.64001	 26.80	
 17.014	139.343	 35.88435	 -3.15938	 31.00226	 28.42025	 -1.55338	 -2.11503	 42.55240	711.66998	 26.80	
 16.988	145.161	 35.92088	 -4.22204	 32.61287	 26.38184	 -0.05659	 -2.11262	 42.56406	711.60999	 26.80	
 16.995	150.919	 35.94322	 -5.15936	 33.98556	 24.30157	  1.53910	 -2.07228	 42.57249	711.63000	 26.80	
 16.990	156.759	 35.99958	 -5.80283	 35.13109	 22.10892	  3.36416	 -1.99634	 42.55991	711.52002	 26.80	
 17.000	162.596	 36.04690	 -6.28781	 36.04754	 19.89104	  5.24848	 -1.92206	 42.55777	711.51001	 26.80	
 17.009	168.383	 36.11199	 -6.56693	 36.70419	 17.68147	  7.42572	 -1.81926	 42.56343	711.53003	 26.80	
 16.990	174.179	 36.21285	 -6.60752	 37.09357	 15.41186	  9.71419	 -1.70732	 42.58319	711.32001	 26.80	
 18.709	174.675	 34.67877	 -8.98922	 38.32494	 14.17451	  8.48736	 -1.70976	 42.55053	711.63000	 26.80	
 18.703	169.441	 34.61245	 -9.10185	 37.99295	 16.33488	  6.23537	 -1.82977	 42.56414	711.60999	 26.80	
 18.691	164.085	 34.56990	 -8.91380	 37.39939	 18.58686	  4.28860	 -1.97063	 42.56263	711.58002	 26.80	
 18.706	158.818	 34.49681	 -8.52314	 36.57410	 20.86554	  2.32291	 -2.04056	 42.53869	711.47998	 26.90	
 18.695	153.537	 34.49639	 -7.87762	 35.51398	 23.15906	  0.51389	 -2.14113	 42.57922	711.52002	 26.90	
 18.704	148.255	 34.45591	 -7.08385	 34.21174	 25.28287	 -1.15571	 -2.19855	 42.56914	711.60999	 26.90	
 18.698	142.952	 34.45893	 -6.06041	 32.71183	 27.43339	 -2.69180	 -2.28864	 42.58138	711.56000	 26.90	
 18.699	137.625	 34.40993	 -4.97192	 30.98023	 29.39614	 -4.17626	 -2.30582	 42.53859	711.59998	 26.90	
 18.705	132.343	 34.42377	 -3.74566	 29.17673	 31.16449	 -5.43406	 -2.32728	 42.56376	711.65002	 26.90	
 18.713	127.067	 34.46329	 -2.38614	 27.22417	 32.85609	 -6.47979	 -2.35497	 42.55733	711.67999	 26.90	
 18.700	121.794	 34.44785	 -0.94896	 25.20698	 34.34332	 -7.41593	 -2.40318	 42.55684	711.53003	 26.90	
 18.698	116.504	 34.45942	  0.61039	 23.05485	 35.66140	 -8.28562	 -2.47036	 42.57168	711.63000	 26.90	
 18.707	111.165	 34.45643	  2.38021	 20.71182	 36.81052	 -8.99521	 -2.53318	 42.56704	711.60999	 26.90	
 18.690	105.863	 34.44831	  4.22990	 18.31908	 37.66390	 -9.56456	 -2.60327	 42.53421	711.69000	 26.90	
 18.696	100.583	 34.46683	  6.30081	 15.97314	 38.31927	-10.07409	 -2.62240	 42.55322	711.63000	 26.90	
 18.700	 95.309	 34.50340	  8.50234	 13.64909	 38.69933	-10.30981	 -2.63473	 42.55591	711.64001	 26.90	
 18.700	 90.000	 34.54792	 10.73725	 11.40614	 38.84731	-10.24740	 -2.65628	 42.54604	711.59998	 26.90	
 18.700	 84.691	 34.64081	 12.86857	  9.41142	 38.80188	-10.01591	 -2.59438	 42.57276	711.71002	 26.90	
 18.696	 79.417	 34.63030	 15.02932	  7.36598	 38.49643	 -9.93462	 -2.55025	 42.54182	711.60999	 26.90	
 18.690	 74.137	 34.70673	 17.28181	  5.39161	 37.99523	 -9.52455	 -2.53703	 42.55508	711.53998	 26.90	
 18.707	 68.835	 34.72899	 19.22932	  3.46012	 37.24204	 -8.98775	 -2.51576	 42.53938	711.67999	 27.00	
 18.698	 63.496	 34.75951	 21.71717	  1.55780	 36.23143	 -8.34628	 -2.52843	 42.56359	711.56000	 27.00	
 18.700	 58.206	 34.78139	 24.04100	 -0.15038	 35.00372	 -7.51061	 -2.50084	 42.54551	711.59998	 27.00	
 18.713	 52.933	 34.81860	 26.17634	 -1.67239	 33.59874	 -6.57219	 -2.45080	 42.55544	711.58002	 27.00	
 18.705	 47.657	 34.85900	 28.12470	 -2.97314	 32.09579	 -5.45222	 -2.34817	 42.55829	711.56000	 27.00	
 18.699	 42.375	 34.94232	 29.98618	 -4.00825	 30.38770	 -4.21378	 -2.25715	 42.58307	711.53998	 27.00	
 18.698	 37.048	 34.98779	 31.75396	 -5.07049	 28.44724	 -2.76530	 -2.16942	 42.55319	711.57001	 27.00	
 18.704	 31.745	 35.05222	 33.36372	 -6.03108	 26.41512	 -1.24657	 -2.10505	 42.53825	711.66998	 27.00	
 18.695	 26.463	 35.10649	 34.75309	 -6.83958	 24.32604	  0.40423	 -2.05481	 42.55064	711.56000	 27.00	
 18.706	 21.182	 35.17589	 35.93991	 -7.47026	 22.10574	  2.28654	 -2.05356	 42.54892	711.64001	 27.00	
 18.691	 15.915	 35.26874	 36.85729	 -7.93952	 19.86878	  4.28393	 -1.97097	 42.54476	711.63000	 27.00	
 18.703	 10.559	 35.35704	 37.57508	 -8.22877	 17.59337	  6.25650	 -1.91394	 42.56159	711.66998	 27.00	
 18.709	  5.325	 35.42724	 38.03265	 -8.39069	 15.30032	  8.49392	 -1.83706	 42.54402	711.66998	 27.00	
 18.700	  0.000	 35.52546	 38.27521	 -8.46442	 13.01680	 10.81024	 -1.73783	 42.55368	711.64001	 27.00	
 18.709	 -5.325	 35.57065	 38.26136	 -8.42673	 10.81901	 13.06903	 -1.65453	 42.53221	711.56000	 27.00	
 18.703	-10.559	 35.61518	 38.04965	 -8.66433	  8.75817	 15.23456	 -1.50587	 42.54257	711.59998	 27.00	
 18.691	-15.915	 35.70139	 37.57571	 -8.29507	  6.76340	 17.56327	 -1.44830	 42.54906	711.60999	 27.00	
 18.706	-21.182	 35.76900	 36.87187	 -7.68579	  4.85042	 19.79899	 -1.42839	 42.55148	711.63000	 27.00	
 18.695	-26.463	 35.82835	 35.89280	 -6.86697	  3.04438	 21.99751	 -1.37776	 42.54580	711.62000	 27.00	
 18.704	-31.745	 35.84722	 34.73344	 -6.03678	  1.39143	 24.13958	 -1.32764	 42.54696	711.66998	 27.00	
 18.698	-37.048	 35.84330	 33.35361	 -5.19864	 -0.15625	 26.25692	 -1.27993	 42.53251	711.79999	 27.00	
 18.699	-42.375	 35.83554	 31.72655	 -4.14913	 -1.61682	 28.25033	 -1.24440	 42.53820	711.69000	 27.00	
 18.705	-47.657	 35.82278	 29.97154	 -2.91183	 -2.90441	 30.06227	 -1.14584	 42.54208	711.59003	 27.10	
 18.713	-52.933	 35.79573	 28.17585	 -1.47053	 -4.01656	 31.77418	 -1.09503	 42.53284	711.63000	 27.10	
 18.700	-58.206	 35.78185	 26.19747	  0.09711	 -4.99607	 33.27990	 -1.11476	 42.52633	711.64001	 27.10	
 18.698	-63.496	 35.77971	 24.08681	  1.81516	 -5.83479	 34.62880	 -1.04851	 42.54698	711.65002	 27.10	
 18.707	-68.835	 35.70246	 21.78410	  3.66264	 -6.62003	 35.72548	 -1.02082	 42.53244	711.69000	 27.10	
 18.690	-74.137	 35.70287	 19.46162	  5.63892	 -7.06283	 36.53294	 -1.03283	 42.52159	711.67999	 27.10	
 18.696	-79.417	 35.64877	 17.42750	  7.66743	 -7.52711	 37.18246	 -0.96108	 42.53653	711.62000	 27.10	
 18.700	-84.691	 35.60706	 15.18726	  9.81491	 -7.71330	 37.55290	 -0.96672	 42.53462	711.60999	 27.10	
 18.700	-90.000	 35.58374	 12.99360	 11.99318	 -7.67749	 37.67755	 -0.96293	 42.54316	711.66998	 27.10	
 18.700	-95.309	 35.53999	 10.78892	 14.20533	 -7.63673	 37.56244	 -0.94861	 42.53859	711.65002	 27.10	
 18.696	-100.583	 35.50406	  8.58864	 16.44888	 -7.49163	 37.21377	 -0.94249	 42.53512	711.65002	 27.10	
 18.690	-105.863	 35.52631	  6.49375	 18.78842	 -7.00957	 36.62915	 -0.95931	 42.54342	711.65997	 27.10	
 18.707	-111.165	 35.47712	  4.42671	 21.07631	 -6.59190	 35.80215	 -0.94692	 42.52851	711.65997	 27.10	
 18.698	-116.504	 35.43430	  2.42459	 23.30367	 -6.11388	 34.75417	 -0.93895	 42.51901	711.73999	 27.10	
 18.700	-121.794	 35.40696	  0.70713	 25.46190	 -5.35308	 33.46870	 -0.94747	 42.53665	711.76001	 27.10	
 18.713	-127.067	 35.37510	 -0.88480	 27.46967	 -4.40454	 31.91301	 -0.97691	 42.52228	711.71997	 27.10	
 18.705	-132.343	 35.32753	 -2.32058	 29.43872	 -3.39966	 30.20737	 -1.00405	 42.51372	711.64001	 27.10	
 18.699	-137.625	 35.30018	 -3.63844	 31.26574	 -2.27404	 28.45574	 -1.05062	 42.53257	711.65997	 27.10	
 18.698	-142.952	 35.26831	 -4.90553	 32.95673	 -0.92387	 26.45152	 -1.09553	 42.53585	711.65997	 27.10	
 18.704	-148.255	 35.16795	 -6.00920	 34.42647	  0.56382	 24.31981	 -1.13285	 42.53156	711.69000	 27.10	
 18.695	-153.537	 35.09373	 -6.86838	 35.64809	  2.18802	 22.03811	 -1.20553	 42.52905	711.67999	 27.10	
 18.706	-158.818	 35.01861	 -7.65783	 36.69085	  3.92447	 19.92045	 -1.26840	 42.53708	711.65997	 27.10	
 18.691	-164.085	 34.95717	 -8.27074	 37.48614	  5.79252	 17.75389	 -1.33870	 42.54264	711.59003	 27.10	
 18.703	-169.441	 34.86222	 -8.73511	 38.03020	  7.77310	 15.41405	 -1.39454	 42.53089	711.65002	 27.10	
 18.709	-174.675	 34.81703	 -8.87767	 38.35133	  9.86156	 13.10105	 -1.47550	 42.53886	711.63000	 27.10	
 18.700	180.000	 34.77938	 -8.89703	 38.45681	 11.98298	 10.81194	 -1.56625	 42.55536	711.63000	 27.10	
 20.400	180.000	 33.16492	-11.36986	 39.50056	 10.91471	  9.36691	 -1.48095	 42.53112	711.78998	 27.10	
 20.401	-175.153	 33.20143	-11.42042	 39.42978	  8.81051	 11.66786	 -1.37645	 42.53249	711.65002	 27.10	
 20.407	-170.264	 33.25386	-11.22413	 39.15689	  6.69503	 14.06219	 -1.27367	 42.52983	711.72998	 27.20	
 20.410	-165.423	 33.31301	-10.79545	 38.65124	  4.72561	 16.40151	 -1.21708	 42.52085	711.67999	 27.20	
 20.392	-160.496	 33.43356	-10.22013	 37.93402	  2.83908	 18.74416	 -1.17889	 42.54177	711.71997	 27.20	
 20.401	-155.705	 33.47817	 -9.55770	 37.01131	  1.02290	 20.85215	 -1.08994	 42.53539	711.66998	 27.20	
 20.405	-150.835	 33.54633	 -8.75225	 35.84451	 -0.62611	 23.03304	 -1.03846	 42.52214	711.75000	 27.20	
 20.397	-145.903	 33.67371	 -7.75941	 34.45343	 -2.08591	 25.28349	 -1.02387	 42.52135	711.73999	 27.20	
 20.392	-141.062	 33.74561	 -6.63288	 32.88852	 -3.48061	 27.35978	 -0.99271	 42.51889	711.66998	 27.20	
 20.396	-136.227	 33.76564	 -5.44602	 31.17443	 -4.66281	 29.26615	 -0.95635	 42.51549	711.66998	 27.20	
 20.408	-131.372	 33.83470	 -4.07025	 29.35523	 -5.61403	 31.03005	 -0.94533	 42.52992	711.59998	 27.20	
 20.410	-126.511	 33.87395	 -2.54827	 27.34109	 -6.50736	 32.69951	 -0.91276	 42.50655	711.60999	 27.20	
 20.400	-121.604	 33.88505	 -1.02562	 25.27961	 -7.45684	 34.27549	 -0.88321	 42.51191	711.56000	 27.20	
 20.403	-116.741	 33.90041	  0.65310	 23.14295	 -8.23724	 35.55782	 -0.88649	 42.51700	711.59998	 27.20	
 20.413	-111.900	 33.96357	  2.42053	 20.93666	 -8.71474	 36.66214	 -0.88217	 42.53402	711.70001	 27.20	
 20.398	-107.004	 33.96257	  4.27105	 18.60855	 -9.10808	 37.50914	 -0.88637	 42.51027	711.65997	 27.20	
 20.394	-102.132	 33.96097	  6.44654	 16.34344	 -9.59704	 38.14550	 -0.87864	 42.50769	711.69000	 27.20	
 20.403	-97.332	 33.98022	  8.61652	 14.14760	 -9.91019	 38.57280	 -0.85742	 42.50236	711.59003	 27.20	
 20.392	-92.440	 34.05173	 10.83115	 11.97196	 -9.87994	 38.77635	 -0.86913	 42.52729	711.70001	 27.20	
 20.392	-87.560	 34.04970	 12.94616	  9.79168	-10.20282	 38.77626	 -0.85049	 42.51143	711.65002	 27.20	
 20.403	-82.668	 34.05845	 15.13699	  7.62661	-10.31606	 38.57513	 -0.89337	 42.52164	711.67999	 27.20	
 20.394	-77.868	 34.11330	 17.39811	  5.55554	 -9.90620	 38.11103	 -0.89814	 42.51864	711.66998	 27.20	
 20.398	-72.996	 34.14974	 19.50697	  3.56048	 -9.40742	 37.43661	 -0.94398	 42.51171	711.64001	 27.20	
 20.413	-68.100	 34.18781	 21.61988	  1.63273	 -8.80019	 36.54327	 -0.94805	 42.51559	711.65997	 27.20	
 20.403	-63.259	 34.22767	 23.97913	 -0.15328	 -8.15988	 35.42031	 -0.98412	 42.52843	711.65002	 27.20	
 20.400	-58.396	 34.28681	 26.12433	 -1.81543	 -7.32665	 34.13806	 -1.01571	 42.53723	711.65002	 27.30	
 20.410	-53.489	 34.28137	 28.11256	 -3.29509	 -6.35394	 32.51044	 -1.04235	 42.49789	711.66998	 27.20	
 20.408	-48.628	 34.31157	 30.07483	 -4.72631	 -5.22504	 30.82172	 -1.06040	 42.52582	711.71997	 27.30	
 20.396	-43.773	 34.33194	 31.82440	 -5.86745	 -3.93775	 29.07847	 -1.12769	 42.50482	711.71002	 27.30	
 20.392	-38.938	 34.35001	 33.45504	 -6.94065	 -2.69513	 27.19909	 -1.17570	 42.52388	711.73999	 27.30	
 20.397	-34.097	 34.35750	 34.86292	 -7.90744	 -1.33047	 25.12996	 -1.20140	 42.53152	711.78003	 27.30	
 20.405	-29.165	 34.33551	 36.15097	 -8.70856	  0.26367	 22.89990	 -1.27784	 42.52305	711.78998	 27.30	
 20.401	-24.295	 34.28001	 37.24686	 -9.55723	  1.96265	 20.76780	 -1.30574	 42.52495	711.78003	 27.30	
 20.392	-19.504	 34.22580	 38.10566	-10.23970	  3.78468	 18.57372	 -1.37089	 42.50823	711.82001	 27.30	
 20.410	-14.577	 34.15168	 38.76030	-10.76630	  5.73397	 16.20303	 -1.43976	 42.52044	711.69000	 27.20	
 20.407	 -9.736	 34.06284	 39.15995	-11.12435	  7.69793	 13.85937	 -1.49152	 42.50640	711.64001	 27.30	
 20.401	 -4.847	 34.04374	 39.32992	-10.84731	  9.83737	 11.67109	 -1.69270	 42.50597	711.67999	 27.30	
 20.400	  0.000	 33.99448	 39.30941	-10.72112	 11.89049	  9.51115	 -1.80916	 42.49987	711.66998	 27.30	
 20.401	  4.847	 33.91812	 39.10455	-10.71980	 14.05944	  7.29211	 -1.92196	 42.51530	711.70001	 27.30	
 20.407	  9.736	 33.81897	 38.67533	-10.59100	 16.34588	  5.17118	 -2.02107	 42.51048	711.79999	 27.30	
 20.410	 14.577	 33.74308	 38.05030	-10.25535	 18.59730	  3.13574	 -2.11614	 42.51358	711.78998	 27.30	
 20.392	 19.504	 33.65384	 37.15224	 -9.76020	 20.88016	  1.17558	 -2.21541	 42.50627	711.78998	 27.30	
 20.401	 24.295	 33.58422	 36.07366	 -9.17609	 23.12826	 -0.65804	 -2.28553	 42.53225	711.75000	 27.30	
 20.405	 29.165	 33.54311	 34.74952	 -8.40198	 25.22344	 -2.32628	 -2.33235	 42.51680	711.65997	 27.30	
 20.397	 34.097	 33.47388	 33.22449	 -7.55653	 27.36602	 -3.92960	 -2.43529	 42.53543	711.82001	 27.30	
 20.392	 38.938	 33.37376	 31.53815	 -6.74980	 29.32034	 -5.40370	 -2.50164	 42.50924	711.76001	 27.30	
 20.396	 43.773	 33.31813	 29.73268	 -5.66410	 31.16694	 -6.70070	 -2.55710	 42.51014	711.75000	 27.30	
 20.408	 48.628	 33.27310	 27.90322	 -4.56385	 32.85106	 -7.81545	 -2.63519	 42.50945	711.78998	 27.30	
 20.410	 53.489	 33.22929	 25.88872	 -3.42537	 34.41070	 -8.87711	 -2.68456	 42.52411	711.76001	 27.30	
 20.400	 58.396	 33.19278	 23.69909	 -2.04203	 35.79436	 -9.79180	 -2.71233	 42.52376	711.76001	 27.30	
 20.403	 63.259	 33.13914	 21.20153	 -0.42656	 36.94041	-10.55604	 -2.74961	 42.50470	711.81000	 27.30	
 20.413	 68.100	 33.10580	 19.17222	  1.37781	 37.96980	-11.21945	 -2.77397	 42.51730	711.71002	 27.30	
 20.398	 72.996	 33.10271	 17.00051	  3.32709	 38.76792	-11.71937	 -2.79698	 42.51011	711.67999	 27.30	
 20.394	 77.868	 33.04486	 14.73873	  5.29482	 39.31821	-12.11393	 -2.81730	 42.50430	711.72998	 27.30	
 20.403	 82.668	 33.02225	 12.48838	  7.30258	 39.67212	-12.38459	 -2.83256	 42.51683	711.59998	 27.30	
 20.392	 87.560	 32.97697	 10.48753	  9.15926	 39.79121	-12.46864	 -2.91868	 42.50530	711.77002	 27.30	
 20.392	 92.440	 32.92414	  8.32361	 11.22404	 39.75887	-12.65043	 -2.88332	 42.51096	711.71002	 27.30	
 20.403	 97.332	 32.86491	  6.10908	 13.51145	 39.51656	-12.52500	 -2.84972	 42.49051	711.63000	 27.30	
 20.394	102.132	 32.85531	  4.05803	 15.81298	 39.06482	-12.14456	 -2.81443	 42.50149	711.70001	 27.30	
 20.398	107.004	 32.82501	  2.18666	 18.10939	 38.37379	-11.72255	 -2.76691	 42.51183	711.67999	 27.30	
 20.413	111.900	 32.78680	  0.35752	 20.38108	 37.45024	-11.20115	 -2.72284	 42.50839	711.58002	 27.30	
 20.403	116.741	 32.78503	 -1.33985	 22.79055	 36.33609	-10.55561	 -2.64048	 42.51661	711.65002	 27.40	
 20.400	121.604	 32.78110	 -2.88592	 24.97358	 35.07483	 -9.69799	 -2.60976	 42.50217	711.65002	 27.40	
 20.410	126.511	 32.80219	 -4.32043	 27.04789	 33.57815	 -8.79347	 -2.53302	 42.51236	711.65002	 27.30	
 20.408	131.372	 32.78695	 -5.66317	 29.07456	 31.89293	 -7.81206	 -2.47199	 42.50145	711.66998	 27.40	
 20.396	136.227	 32.76862	 -6.87536	 30.93426	 30.13621	 -6.70214	 -2.38952	 42.51160	711.65002	 27.40	
 20.392	141.062	 32.77901	 -7.93448	 32.67001	 28.18258	 -5.26577	 -2.35103	 42.49457	711.72998	 27.40	
 20.397	145.903	 32.80765	 -8.87790	 34.25118	 26.09816	 -3.73592	 -2.29614	 42.49729	711.77002	 27.40	
 20.405	150.835	 32.80411	 -9.68673	 35.56556	 23.92831	 -2.14582	 -2.21005	 42.48584	711.66998	 27.40	
 20.401	155.705	 32.83682	-10.39532	 36.77960	 21.74592	 -0.53121	 -2.09814	 42.50379	711.72998	 27.40	
 20.392	160.496	 32.88892	-10.96375	 37.76751	 19.51721	  1.24492	 -1.96392	 42.50852	711.78003	 27.40	
 20.410	165.423	 32.90113	-11.38321	 38.51888	 17.14877	  3.22358	 -1.90397	 42.49275	711.73999	 27.40	
 20.407	170.264	 32.94873	-11.55541	 39.02489	 14.94855	  5.16966	 -1.79574	 42.49212	711.73999	 27.40	
 20.401	175.153	 33.05892	-11.27695	 39.32207	 12.92450	  7.14299	 -1.65360	 42.48289	711.71997	 27.40	
  0.141	 45.000	 42.58771	 18.17724	 18.27228	 19.45469	 17.36297	  0.99298	 42.50776	711.64001	 27.40	
  4.001	128.691	 42.30946	 14.35246	 21.53598	 23.17257	 12.95056	  0.71989	 42.50279	711.73999	 27.40	
  4.002	 76.995	 42.34940	 18.65617	 16.84818	 24.41733	 11.91701	  0.87507	 42.49718	711.64001	 27.40	
  4.002	 25.892	 42.44357	 22.72500	 13.10883	 21.45662	 14.88163	  0.96228	 42.50863	711.62000	 27.40	
  4.002	-25.892	 42.49622	 22.96368	 13.14554	 16.71064	 19.10330	  0.88424	 42.48966	711.63000	 27.40	
  4.002	-76.995	 42.52643	 19.25463	 16.92293	 13.83534	 22.36484	  0.75846	 42.50356	711.65002	 27.40	
  4.001	-128.691	 42.48695	 14.74332	 21.67622	 14.72648	 21.21649	  0.65755	 42.50611	711.64001	 27.40	
  4.000	180.000	 42.39055	 12.68007	 23.69118	 18.82934	 17.23263	  0.63288	 42.49874	711.70001	 27.40	
  8.000	180.000	 41.44040	  6.87400	 28.54206	 17.68992	 16.28674	 -0.25567	 42.49724	711.56000	 27.40	
  7.991	-152.370	 41.57072	  8.25992	 27.20286	 12.79805	 21.07414	 -0.17104	 42.48221	711.60999	 27.40	
  7.997	-124.550	 41.69718	 11.60035	 23.58757	  9.33913	 25.26727	 -0.14376	 42.48857	711.56000	 27.40	
  8.006	-96.837	 41.77123	 16.07230	 18.58165	  7.75975	 27.25889	 -0.05438	 42.48502	711.56000	 27.40	
  7.988	-69.228	 41.83612	 21.24894	 13.35121	  8.37001	 26.60145	  0.07223	 42.50465	711.65997	 27.40	
  7.997	-41.563	 41.81022	 25.59994	  9.30130	 11.23213	 23.37136	  0.15060	 42.49670	711.65002	 27.40	
  8.008	-13.821	 41.71878	 27.94467	  7.08811	 15.62005	 18.80524	  0.34323	 42.49426	711.50000	 27.40	
  8.008	 13.821	 41.58207	 27.72506	  7.18480	 20.78634	 13.59676	  0.43010	 42.49542	711.67999	 27.40	
  7.997	 41.563	 41.46547	 24.90692	  9.29808	 25.46152	  9.35794	  0.41753	 42.48388	711.82001	 27.40	
  7.988	 69.228	 41.37191	 20.23079	 13.16719	 28.54851	  6.73617	  0.09152	 42.49867	711.64001	 27.40	
  8.006	 96.837	 41.28107	 15.19503	 18.30399	 29.16160	  6.05460	  0.01186	 42.50571	711.56000	 27.50	
  7.997	124.550	 41.23223	 10.76120	 23.34878	 27.03322	  7.72442	  0.08489	 42.48985	711.65002	 27.40	
  7.991	152.370	 41.29026	  7.77328	 27.07226	 22.80134	 11.29650	 -0.23072	 42.48140	711.71002	 27.50	
 12.009	161.059	 39.45408	  1.12252	 31.77126	 21.25777	  9.54854	 -1.15320	 42.50323	711.63000	 27.50	
 12.013	142.081	 39.33226	  3.14661	 28.94755	 26.24115	  5.05473	 -1.14468	 42.48262	711.62000	 27.50	
 12.006	123.113	 39.33351	  6.54487	 24.65355	 30.30118	  1.83578	 -1.05123	 42.49068	711.56000	 27.50	
 12.007	104.200	 39.35466	 10.94847	 19.50782	 32.73521	  0.11800	 -1.14635	 42.49529	711.69000	 27.50	
 11.989	 85.301	 39.46843	 16.00665	 14.06017	 33.31863	 -0.17824	 -0.98872	 42.49442	711.69000	 27.50	
 12.013	 66.294	 39.52186	 21.29138	  9.12145	 32.02394	  0.89584	 -0.95311	 42.49719	711.78003	 27.50	
 12.012	 47.388	 39.57642	 26.18208	  5.17279	 28.99148	  3.29974	 -0.80688	 42.47284	711.71997	 27.50	
 11.990	 28.440	 39.77252	 29.93271	  2.56465	 24.52654	  7.28652	 -0.59610	 42.50233	711.78998	 27.50	
 11.991	  9.464	 39.93021	 32.17790	  1.20644	 19.42810	 12.02546	 -0.66658	 42.49773	711.72998	 27.50	
 11.991	 -9.464	 40.09739	 32.48224	  1.10658	 14.10069	 17.30855	 -0.63504	 42.50533	711.73999	 27.50	
 11.990	-28.440	 40.19660	 30.69929	  2.57840	  9.19744	 22.29915	 -0.81040	 42.48421	711.69000	 27.50	
 12.012	-47.388	 40.20784	 27.36182	  5.36340	  5.41928	 26.93330	 -0.87537	 42.48249	711.71997	 27.50	
 12.013	-66.294	 40.21134	 22.79189	  9.31459	  3.03848	 30.06615	 -0.94612	 42.46784	711.70001	 27.50	
 11.989	-85.301	 40.18987	 17.34825	 14.36638	  2.00027	 31.69279	 -0.92927	 42.47791	711.76001	 27.50	
 12.007	-104.200	 40.11541	 12.41058	 19.79071	  2.14735	 31.22207	 -0.92259	 42.50288	711.71997	 27.50	
 12.006	-123.113	 40.00767	  7.79410	 24.89403	  3.68755	 28.81186	 -1.01589	 42.47989	711.75000	 27.50	
 12.013	-142.081	 39.90696	  4.09059	 29.17482	  6.64418	 24.88991	 -0.98742	 42.48829	711.60999	 27.50	
 12.009	-161.059	 39.76414	  1.71521	 31.87368	 10.87756	 20.04618	 -1.12581	 42.49572	711.67999	 27.50	
 16.000	180.000	 36.95319	 -5.15240	 36.35289	 13.72004	 12.58636	 -1.61092	 42.46935	711.82001	 27.50	
 15.990	-165.604	 37.13459	 -4.36979	 35.64607	  8.72117	 17.91936	 -1.49828	 42.47692	711.75000	 27.50	
 16.002	-151.165	 37.24872	 -2.83373	 33.50113	  4.38575	 23.08504	 -1.30493	 42.45140	711.76001	 27.50	
 16.002	-136.836	 37.41225	 -0.24013	 30.06549	  0.91604	 27.84941	 -1.18826	 42.45955	711.71997	 27.50	
 15.995	-122.439	 37.48566	  3.54413	 25.54856	 -1.80716	 31.71930	 -1.13761	 42.48405	711.69000	 27.50	
 15.993	-107.966	 37.58043	  8.14496	 20.38281	 -3.20702	 34.37658	 -1.10664	 42.46373	711.75000	 27.50	
 16.005	-93.629	 37.65292	 13.17059	 14.95546	 -3.88356	 35.60415	 -1.07878	 42.48463	711.76001	 27.50	
 15.992	-79.234	 37.72829	 18.25315	  9.74153	 -3.51956	 35.15503	 -1.14065	 42.45278	711.75000	 27.50	
 16.009	-64.774	 37.77456	 23.58505	  5.06988	 -2.37723	 33.19135	 -1.20016	 42.47393	711.71997	 27.60	
 15.997	-50.364	 37.81432	 28.29933	  1.15317	 -0.11339	 29.73543	 -1.24325	 42.47419	711.14001	 27.60	
 15.997	-36.045	 37.81281	 32.18526	 -1.83598	  3.12610	 25.47194	 -1.34254	 42.47631	711.22998	 27.50	
 16.000	-21.597	 37.75370	 34.88876	 -3.76363	  7.16662	 20.53041	 -1.36154	 42.46462	711.75000	 27.60	
 16.003	 -7.169	 37.59580	 36.11729	 -4.78841	 12.00720	 15.13644	 -1.37940	 42.46554	711.67999	 27.60	
 16.003	  7.169	 37.44223	 35.84660	 -4.69999	 17.31254	  9.89101	 -1.51410	 42.48046	711.73999	 27.60	
 16.000	 21.597	 37.26748	 34.13898	 -3.72386	 22.60016	  4.89269	 -1.53039	 42.49304	711.71997	 27.60	
 15.997	 36.045	 37.06597	 30.91234	 -2.01481	 27.55984	  0.74822	 -1.55546	 42.47839	711.69000	 27.60	
 15.997	 50.364	 36.95280	 26.70606	  0.90746	 31.70629	 -2.49016	 -1.83452	 42.48542	711.47998	 27.60	
 16.009	 64.774	 36.87370	 21.58591	  4.84446	 34.85929	 -4.73896	 -1.96462	 42.47906	711.50000	 27.60	
 15.992	 79.234	 36.84220	 16.39962	  9.43278	 36.50606	 -5.77305	 -1.96936	 42.47017	710.96997	 27.60	
 16.005	 93.629	 36.69597	 11.22537	 14.44299	 36.75063	 -6.26643	 -2.07329	 42.45108	710.92999	 27.60	
 15.993	107.966	 36.63677	  6.28285	 19.99643	 35.55815	 -5.40777	 -2.11898	 42.47303	711.81000	 27.60	
 15.995	122.439	 36.61486	  1.82254	 25.22972	 32.87056	 -3.63177	 -1.97513	 42.48127	711.73999	 27.60	
 16.002	136.836	 36.60547	 -1.46628	 29.79156	 28.92835	 -0.85372	 -1.94240	 42.45679	711.72998	 27.60	
 16.002	151.165	 36.67080	 -3.81352	 33.36584	 24.16029	  2.70767	 -1.97465	 42.48489	711.78998	 27.60	
 15.990	165.604	 36.81108	 -4.95514	 35.59101	 19.07080	  7.35284	 -1.78721	 42.47395	711.57001	 27.60	
 20.003	168.362	 33.29983	-10.97645	 38.61109	 16.02300	  4.74858	 -1.85342	 42.47579	711.75000	 27.60	
 20.008	156.764	 33.18924	-10.04221	 36.78905	 21.35109	  0.23396	 -2.09619	 42.45128	711.10999	 27.60	
 20.000	145.147	 33.18243	 -8.19254	 33.77662	 26.45541	 -3.51552	 -2.31266	 42.48130	711.47998	 27.60	
 19.995	133.545	 33.12483	 -5.71117	 29.82655	 31.02289	 -6.82388	 -2.44908	 42.45591	711.32001	 27.60	
 20.009	121.926	 33.14821	 -2.52152	 25.13008	 34.72575	 -9.10227	 -2.57827	 42.46503	710.96997	 27.60	
 20.005	110.327	 33.17101	  1.34428	 19.86255	 37.55473	-10.86833	 -2.73736	 42.48086	710.94000	 27.70	
 19.989	 98.733	 33.21469	  5.85380	 14.39824	 39.14989	-11.90886	 -2.81381	 42.46125	710.97998	 27.70	
 19.999	 87.075	 33.30566	 10.97306	  9.25331	 39.51432	-11.88248	 -2.86808	 42.43566	710.96002	 27.70	
 19.992	 75.457	 33.41955	 16.04965	  4.66845	 38.81723	-11.38356	 -2.76276	 42.45580	711.14001	 27.70	
 20.009	 63.844	 33.48101	 21.00596	  0.20743	 36.85924	-10.11884	 -2.72236	 42.46670	711.03003	 27.70	
 19.989	 52.269	 33.60735	 26.39544	 -3.29336	 33.86190	 -8.07730	 -2.64251	 42.48243	711.04999	 27.70	
 19.999	 40.602	 33.71171	 30.83881	 -5.91138	 29.90914	 -5.38981	 -2.49640	 42.47628	711.03003	 27.70	
 20.004	 29.051	 33.88487	 34.60044	 -7.95057	 25.20831	 -1.86485	 -2.32442	 42.49897	711.03003	 27.70	
 20.005	 17.433	 34.01686	 37.29372	 -9.48817	 20.04074	  2.35044	 -2.16394	 42.46337	711.08002	 27.70	
 20.006	  5.780	 34.22912	 38.74932	-10.10660	 14.71548	  7.18293	 -1.95154	 42.46022	711.09998	 27.70	
 20.006	 -5.780	 34.39018	 39.02816	-10.32720	  9.71177	 12.36897	 -1.68348	 42.47321	711.10999	 27.70	
 20.005	-17.433	 34.50529	 38.11801	 -9.93973	  4.96587	 17.70892	 -1.41898	 42.46452	711.65002	 27.70	
 20.004	-29.051	 34.64912	 35.92704	 -8.15538	  0.76202	 22.86713	 -1.30396	 42.46059	711.03003	 27.70	
 19.999	-40.602	 34.65987	 32.67157	 -6.08057	 -2.65429	 27.77557	 -1.18856	 42.46141	710.98999	 27.70	
 19.989	-52.269	 34.63496	 28.51514	 -3.16700	 -5.51151	 31.91626	 -1.08586	 42.44896	711.12000	 27.70	
 20.009	-63.844	 34.53341	 23.70902	  0.49067	 -7.69597	 35.31194	 -1.02414	 42.44979	710.97998	 27.70	
 19.992	-75.457	 34.45507	 18.58641	  4.92595	 -9.08884	 37.50687	 -0.94110	 42.44951	711.04999	 27.70	
 19.999	-87.075	 34.35778	 13.37898	  9.83521	 -9.60026	 38.45035	 -0.91443	 42.45266	711.04999	 27.70	
 19.989	-98.733	 34.28453	  8.30766	 14.95606	 -9.32503	 38.16367	 -0.90209	 42.44059	711.09003	 27.70	
 20.005	-110.327	 34.26394	  3.33534	 20.26811	 -8.34186	 36.67866	 -0.93885	 42.44998	711.02002	 27.70	
 20.009	-121.926	 34.16996	 -0.72076	 25.37489	 -6.93463	 33.96243	 -0.92909	 42.43920	710.90997	 27.70	
 19.995	-133.545	 34.09965	 -4.21294	 30.04572	 -4.74767	 30.08807	 -0.96600	 42.44400	711.20001	 27.70	
 20.000	-145.147	 33.99673	 -7.06644	 34.00554	 -1.86797	 25.59418	 -1.05969	 42.45371	711.06000	 27.70	
 20.008	-156.764	 33.79211	 -9.16731	 36.96379	  1.82861	 20.46527	 -1.17455	 42.46790	711.12000	 27.70	
 20.003	-168.362	 33.61402	-10.49902	 38.68007	  6.22112	 15.20655	 -1.32613	 42.46406	711.25000	 27.70	
 20.000	180.000	 33.49345	-10.72922	 39.17489	 11.13831	  9.73504	 -1.52660	 42.45542	711.02002	 27.70	
