FileType=PCF
NHL=14
Date=05/29/19	16:16:05
Facility=APL
Serial=16071-5
Customer=NASA
NP=6
Mach=0.550000
Calibration=1:1
CalPts=490
TstPts=95
PortNumbering=AP Standard
Units=Torr C m/s kg/m^3 deg mm 
Theta[deg]	Phi[deg]	P1[Torr]	P2[Torr]	P3[Torr]	P4[Torr]	P5[Torr]	P6[Torr]	Pt[Torr]	Ps[Abs,Torr]	Ts[C]	
  0.000	  0.000	159.91479	 76.19063	 76.07630	 73.39113	 76.08233	  5.95466	159.78114	701.28998	 44.20	
  1.691	128.401	159.86098	 71.44768	 80.59256	 79.18595	 70.09284	  5.86835	159.74605	701.32001	 44.20	
  1.692	 77.194	159.93864	 77.58177	 74.35965	 80.93587	 68.51090	  5.90695	159.81787	701.25000	 44.20	
  1.699	 26.182	159.98997	 82.66270	 68.99953	 77.01155	 72.46516	  5.88593	159.88953	701.15997	 44.30	
  1.699	-26.182	160.00694	 82.87438	 68.91675	 69.96510	 79.03263	  5.79684	159.89346	701.07001	 44.30	
  1.692	-77.194	160.00491	 77.68949	 74.21065	 65.57538	 83.10413	  5.73461	159.90350	701.13000	 44.30	
  1.691	-128.401	160.03288	 71.59508	 80.60898	 66.92601	 81.86743	  5.75642	159.93582	701.19000	 44.40	
  1.700	180.000	160.08463	 68.74531	 83.70971	 73.10700	 76.16128	  5.80347	159.99069	701.21002	 44.40	
  3.400	180.000	159.76218	 60.59352	 91.30448	 72.29132	 75.77671	  5.32968	159.94333	701.17999	 44.50	
  3.388	-152.325	159.79471	 62.68076	 89.29439	 64.93288	 82.49203	  5.30502	159.96393	701.15002	 44.50	
  3.397	-124.529	159.79402	 67.50747	 84.03602	 58.78889	 88.12937	  5.30112	159.95676	701.19000	 44.60	
  3.399	-96.763	159.88794	 74.28300	 77.08711	 56.49067	 90.80654	  5.25999	160.04660	701.19000	 44.60	
  3.394	-69.283	159.88310	 81.08626	 69.93742	 57.56619	 89.67229	  5.29361	160.00082	701.15997	 44.60	
  3.400	-41.398	159.97118	 86.72706	 63.23111	 62.24357	 85.10476	  5.30277	160.07475	701.15997	 44.60	
  3.401	-14.021	159.99550	 89.97442	 59.92159	 69.51498	 78.69984	  5.34894	160.05771	701.23999	 44.60	
  3.401	 14.021	160.05746	 89.89407	 59.99698	 77.36338	 71.32826	  5.45062	160.10980	701.25000	 44.70	
  3.400	 41.398	160.03799	 86.58845	 63.43076	 83.82946	 65.32534	  5.53405	160.09061	701.31000	 44.80	
  3.394	 69.283	160.12375	 80.79585	 70.29089	 88.10053	 61.64944	  5.57581	160.19067	701.17999	 44.80	
  3.399	 96.763	160.10477	 73.85045	 77.57774	 88.87241	 60.83285	  5.58698	160.17247	701.16998	 44.90	
  3.397	124.529	160.11974	 67.15257	 84.50176	 85.80041	 63.34439	  5.50854	160.21286	701.16998	 44.90	
  3.388	152.325	160.08362	 62.53794	 89.64761	 79.78797	 68.73417	  5.37618	160.22134	701.16998	 44.90	
  5.099	161.165	159.35965	 53.91027	 97.33302	 78.94762	 67.79359	  4.72070	160.18953	701.20001	 44.90	
  5.109	142.013	159.44063	 57.15789	 93.70626	 86.13053	 61.35807	  4.80472	160.23575	701.21997	 44.90	
  5.095	123.033	159.52643	 62.53521	 87.74942	 91.89667	 56.96627	  4.95374	160.23389	701.20001	 44.90	
  5.105	104.191	159.56671	 69.29822	 80.59795	 95.46220	 54.28611	  4.99374	160.25609	701.19000	 44.90	
  5.093	 85.207	159.67126	 76.76312	 73.07954	 96.31895	 53.72388	  5.04581	160.31560	701.20001	 45.00	
  5.104	 66.290	159.68317	 83.77363	 64.90791	 94.48601	 55.46528	  5.03266	160.28433	701.21997	 45.00	
  5.094	 47.331	159.64128	 89.78522	 58.51608	 90.12823	 59.13892	  5.00136	160.26813	701.16998	 45.00	
  5.089	 28.397	159.67201	 94.43127	 54.11384	 84.12157	 64.31156	  4.93433	160.28352	701.28998	 45.00	
  5.096	  9.576	159.69380	 97.29459	 51.69244	 76.86166	 70.55744	  4.85604	160.29416	701.21997	 45.00	
  5.096	 -9.576	159.71092	 97.52987	 51.61937	 68.81081	 78.06433	  4.82920	160.35455	701.19000	 45.00	
  5.089	-28.397	159.62918	 94.82156	 53.87739	 60.97925	 85.02653	  4.73946	160.29689	701.19000	 45.00	
  5.094	-47.331	159.62703	 90.20812	 58.13420	 54.91007	 91.45948	  4.75007	160.35129	701.14001	 45.00	
  5.104	-66.290	159.59412	 84.33778	 64.48882	 50.62928	 96.01099	  4.70548	160.36406	701.15997	 45.00	
  5.093	-85.207	159.57518	 77.40641	 72.77304	 48.47211	 97.89415	  4.73487	160.40289	701.17999	 45.00	
  5.105	-104.191	159.56706	 70.18810	 80.33136	 48.81486	 97.34949	  4.72648	160.42648	701.23999	 44.90	
  5.095	-123.033	159.50629	 63.36732	 87.33640	 51.80988	 94.35471	  4.68130	160.41504	701.16998	 44.90	
  5.109	-142.013	159.49765	 57.91153	 93.49851	 56.63961	 89.10876	  4.68738	160.40961	701.14001	 44.80	
  5.099	-161.165	159.52084	 54.26439	 97.35506	 63.86612	 82.36647	  4.69536	160.40584	701.21997	 44.90	
  5.100	180.000	159.56561	 52.91548	 98.68125	 71.50354	 75.23787	  4.66947	160.44200	701.17999	 44.90	
  6.800	180.000	158.33614	 44.98471	105.65807	 70.04529	 74.19658	  4.16673	160.46057	701.13000	 44.90	
  6.796	-166.229	158.31673	 45.98126	104.58293	 62.44802	 81.45625	  4.17909	160.44666	701.22998	 44.90	
  6.808	-152.311	158.29582	 48.49409	101.79755	 55.53888	 88.07832	  4.21788	160.47307	701.09003	 44.90	
  6.795	-138.383	158.28552	 52.62476	 97.17298	 49.48306	 94.38760	  4.21455	160.46594	701.13000	 45.00	
  6.792	-124.591	158.39995	 58.02531	 91.27306	 44.76535	 99.39050	  4.19007	160.53293	701.15002	 45.00	
  6.787	-110.754	158.37703	 64.26534	 84.41564	 41.59657	102.68810	  4.19933	160.49875	700.97998	 45.10	
  6.800	-96.985	158.41168	 71.12952	 77.21841	 40.00354	104.61329	  4.24849	160.51622	701.00000	 45.20	
  6.800	-83.015	158.47830	 78.40070	 69.59946	 40.24585	104.47435	  4.23938	160.53363	701.12000	 45.30	
  6.787	-69.246	158.51891	 85.28114	 61.71990	 41.98460	102.58317	  4.24978	160.53372	701.07001	 45.30	
  6.792	-55.409	158.60138	 91.13798	 55.14557	 45.45953	 99.17882	  4.30349	160.52570	701.17999	 45.30	
  6.795	-41.617	158.63322	 96.98575	 50.18951	 50.47234	 93.88680	  4.32091	160.51044	701.09998	 45.30	
  6.808	-27.689	158.76671	101.45644	 46.63927	 56.97434	 87.24496	  4.35375	160.55359	701.13000	 45.30	
  6.796	-13.771	158.78673	104.20610	 44.35095	 64.39397	 80.27363	  4.44401	160.55774	701.08002	 45.30	
  6.800	  0.000	158.80460	104.83019	 43.71487	 72.05052	 73.10616	  4.46672	160.52058	701.15997	 45.30	
  6.796	 13.771	158.81082	103.77763	 44.56783	 79.58742	 66.60816	  4.44984	160.53773	701.03998	 45.30	
  6.808	 27.689	158.84186	100.80658	 46.84293	 86.78489	 60.33326	  4.48415	160.56923	701.12000	 45.30	
  6.795	 41.617	158.86090	 96.12063	 50.59150	 93.03823	 54.84160	  4.50065	160.57118	701.15002	 45.40	
  6.792	 55.409	158.89900	 90.31121	 55.84265	 98.11539	 50.49525	  4.50495	160.58269	701.23999	 45.30	
  6.787	 69.246	158.92018	 84.21965	 62.30093	101.62827	 47.36342	  4.49019	160.60622	701.17999	 45.30	
  6.800	 83.015	158.89545	 77.51045	 70.12015	103.42836	 45.58168	  4.52625	160.59526	701.20001	 45.30	
  6.800	 96.985	158.82872	 70.11599	 77.78079	103.21897	 45.75327	  4.46015	160.59218	701.07001	 45.30	
  6.787	110.754	158.79625	 63.28639	 85.02937	101.08296	 47.50092	  4.54791	160.62714	701.08002	 45.30	
  6.792	124.591	158.75023	 57.04582	 91.81459	 97.26579	 50.70969	  4.51113	160.63026	701.13000	 45.30	
  6.795	138.383	158.71725	 52.03686	 97.67520	 91.83225	 55.20147	  4.41451	160.64413	701.01001	 45.30	
  6.808	152.311	158.60768	 48.16133	102.03653	 84.93424	 60.62307	  4.27679	160.59343	701.09003	 45.40	
  6.796	166.229	158.57814	 45.84644	104.74613	 77.69659	 67.05736	  4.25264	160.62042	700.95001	 45.40	
  8.491	168.704	156.84612	 36.43870	111.72965	 76.29391	 65.64414	  4.07825	160.62653	701.15002	 45.50	
  8.502	157.493	156.94542	 38.75132	109.33487	 83.56453	 59.02586	  4.11335	160.63713	701.00000	 45.50	
  8.494	146.194	157.03603	 42.54858	105.54230	 90.84650	 52.80002	  4.19456	160.64987	700.98999	 45.60	
  8.495	135.039	157.09918	 46.88344	100.57011	 97.43589	 47.45933	  4.24838	160.68225	701.09003	 45.60	
  8.487	123.723	157.16632	 52.18009	 94.34655	102.78529	 42.82530	  4.23442	160.67076	701.09003	 45.60	
  8.492	112.575	157.21815	 58.00154	 87.54894	107.03300	 39.08289	  4.17162	160.68509	701.00000	 45.50	
  8.510	101.220	157.36591	 65.15941	 80.18104	109.55345	 36.83341	  4.06180	160.72128	700.97998	 45.50	
  8.500	 90.000	157.44022	 72.45815	 72.61583	110.49887	 36.43425	  4.04321	160.69612	701.10999	 45.50	
  8.510	 78.780	157.48695	 79.63163	 64.39691	109.85232	 36.91527	  4.09344	160.69954	701.08002	 45.50	
  8.492	 67.425	157.53001	 86.63122	 57.12500	107.61822	 38.98746	  4.09096	160.75964	701.14001	 45.50	
  8.487	 56.277	157.44562	 92.75676	 50.87491	103.70409	 42.61002	  4.09142	160.67102	701.12000	 45.50	
  8.495	 44.961	157.50900	 99.11599	 45.68170	 98.69725	 47.14502	  4.11509	160.75992	701.08002	 45.60	
  8.494	 33.806	157.44772	104.21726	 41.88861	 92.69328	 52.42962	  4.20840	160.71172	701.03998	 45.60	
  8.502	 22.507	157.42606	108.41038	 38.41359	 85.69812	 58.35085	  4.26877	160.72272	701.01001	 45.70	
  8.491	 11.296	157.41699	110.78821	 36.36821	 78.49937	 65.14503	  4.33228	160.70653	701.03003	 45.70	
  8.500	  0.000	157.39865	111.95898	 35.48825	 70.71304	 71.99994	  4.37330	160.74031	701.06000	 45.70	
  8.491	-11.296	157.38387	111.25117	 36.07627	 62.94585	 79.18282	  4.40489	160.73080	700.97998	 45.70	
  8.502	-22.507	157.30513	108.97130	 37.70065	 55.51723	 86.24877	  4.36183	160.69418	701.01001	 45.60	
  8.494	-33.806	157.31874	105.06934	 41.10965	 48.39160	 93.39400	  4.39315	160.73647	701.09003	 45.60	
  8.495	-44.961	157.27969	100.03620	 45.44392	 42.57183	 99.72437	  4.31691	160.75842	701.03003	 45.60	
  8.487	-56.277	157.20639	 93.98236	 50.47952	 38.07970	104.40971	  4.30854	160.78130	701.02002	 45.60	
  8.492	-67.425	157.05882	 87.79901	 56.19936	 34.97993	108.48889	  4.25499	160.76497	700.98999	 45.70	
  8.510	-78.780	156.94844	 80.71055	 64.11823	 33.09471	111.42911	  4.21816	160.75223	700.96002	 45.70	
  8.500	-90.000	156.92261	 73.70482	 71.81446	 32.31495	112.20348	  4.24119	160.77736	701.02002	 45.70	
  8.510	-101.220	156.84534	 66.40880	 79.45935	 32.46225	111.55204	  4.14018	160.78314	701.00000	 45.80	
  8.492	-112.575	156.90393	 59.47195	 86.99995	 33.85571	108.89674	  4.10106	160.79941	700.98999	 45.90	
  8.487	-123.723	156.86984	 53.15664	 93.83755	 36.96273	104.78433	  4.07070	160.79228	701.01001	 45.90	
  8.495	-135.039	156.90543	 47.77404	100.16881	 41.29523	100.08800	  4.09916	160.82207	701.02002	 46.00	
  8.494	-146.194	156.90660	 43.28323	105.31234	 46.91365	 94.00424	  4.15130	160.78693	700.98999	 46.00	
  8.502	-157.493	156.91756	 39.56416	109.29179	 53.75376	 87.19930	  4.10528	160.81676	701.01001	 46.00	
  8.491	-168.704	156.93942	 37.12844	111.74271	 60.75260	 80.30383	  4.09208	160.81396	700.97998	 45.90	
  8.500	180.000	156.99954	 35.91822	112.67648	 68.57062	 72.80461	  4.06007	160.86110	700.91998	 46.00	
 10.200	180.000	154.76686	 26.61490	119.13895	 66.59655	 71.08802	  4.19541	160.81531	700.91998	 46.00	
 10.191	-170.497	154.77235	 27.43587	118.27106	 58.77396	 78.54269	  4.23852	160.87144	700.88000	 45.90	
 10.210	-161.034	154.65028	 28.97650	116.13761	 51.34003	 85.92535	  4.25867	160.83200	700.88000	 45.90	
 10.194	-151.526	154.70590	 32.28934	112.71535	 44.18979	 92.83396	  4.29877	160.85667	701.03003	 45.90	
 10.190	-142.105	154.67805	 36.38186	108.05083	 38.22234	 99.63245	  4.29339	160.86720	701.06000	 45.80	
 10.215	-132.646	154.61327	 41.45706	102.43453	 33.11021	105.20451	  4.30078	160.86618	701.03003	 45.90	
 10.203	-123.092	154.64111	 47.60362	 95.75965	 29.30127	110.45350	  4.30719	160.89972	700.96002	 45.90	
 10.192	-113.678	154.64687	 54.04002	 88.84649	 26.74884	114.62846	  4.29134	160.84984	701.02002	 45.90	
 10.208	-104.249	154.66365	 61.12234	 81.32483	 24.93111	117.37688	  4.35786	160.88799	700.95001	 45.90	
 10.210	-94.801	154.66669	 68.30566	 73.60636	 24.10203	118.63442	  4.40333	160.86687	700.91998	 45.90	
 10.210	-85.199	154.69841	 75.64162	 65.82159	 24.34417	118.57646	  4.45476	160.85616	701.06000	 46.00	
 10.208	-75.751	154.74348	 82.92104	 57.96642	 25.38498	117.14201	  4.43804	160.81073	701.00000	 45.90	
 10.192	-66.322	154.95236	 89.49382	 51.41409	 27.70193	114.29002	  4.51664	160.85860	701.01001	 45.90	
 10.203	-56.908	155.08504	 96.22514	 45.48728	 30.98613	109.81712	  4.55782	160.88588	701.09998	 45.90	
 10.215	-47.354	155.14359	102.79101	 39.92289	 34.96738	104.73769	  4.51926	160.85757	700.95001	 45.90	
 10.190	-37.895	155.36578	108.20797	 35.46891	 39.91372	 98.99281	  4.59657	160.91238	701.03003	 45.80	
 10.194	-28.474	155.47771	112.54374	 31.85898	 46.35175	 92.04992	  4.59193	160.89328	701.06000	 45.80	
 10.210	-18.966	155.49081	115.90469	 29.31138	 54.10499	 84.74739	  4.58737	160.85254	701.09998	 45.80	
 10.191	 -9.503	155.52760	117.73380	 27.97609	 61.58482	 77.44495	  4.55861	160.86540	701.14001	 45.90	
 10.200	  0.000	155.59077	118.25823	 27.53026	 69.37096	 70.43333	  4.51020	160.89632	701.10999	 45.90	
 10.191	  9.503	155.50955	117.55449	 28.03918	 77.06856	 63.06469	  4.38296	160.88298	701.06000	 46.00	
 10.210	 18.966	155.49208	115.47208	 29.57768	 84.43034	 55.98418	  4.34006	160.90193	701.13000	 46.00	
 10.194	 28.474	155.54689	111.81391	 32.42794	 91.71593	 49.45795	  4.21381	160.91405	701.03003	 46.10	
 10.190	 37.895	155.68626	107.33902	 36.37575	 98.46512	 43.16278	  4.11492	161.04256	701.03998	 46.10	
 10.215	 47.354	155.57967	101.56818	 41.01270	104.33442	 38.41010	  4.05395	160.91953	700.98999	 46.10	
 10.203	 56.908	155.58313	 94.97069	 46.32675	109.42522	 35.08889	  3.97966	160.89531	701.09998	 46.10	
 10.192	 66.322	155.67920	 88.29018	 52.08456	113.23280	 32.45043	  3.98379	160.92879	700.96997	 46.20	
 10.208	 75.751	155.61935	 81.62107	 58.83712	115.95623	 30.47433	  3.90306	160.87607	701.15997	 46.20	
 10.210	 85.199	155.65958	 74.38165	 66.81720	117.31249	 29.68255	  3.92892	160.91951	700.96997	 46.20	
 10.210	 94.801	155.58923	 66.93382	 74.92809	117.09890	 29.85721	  3.94977	160.95695	701.03998	 46.20	
 10.208	104.249	155.46843	 59.69821	 82.49607	115.40668	 30.90219	  3.97345	160.95343	701.17999	 46.20	
 10.192	113.678	155.46025	 53.00095	 89.97020	112.34599	 32.81456	  4.11227	160.97974	701.15002	 46.20	
 10.203	123.092	155.35893	 46.69474	 96.91837	108.28776	 34.39257	  4.15639	160.96962	701.03998	 46.20	
 10.215	132.646	155.19601	 40.42379	103.29018	102.97855	 38.22938	  4.29398	160.96602	701.09003	 46.20	
 10.190	142.105	155.14563	 35.57775	108.57354	 96.76357	 43.68453	  4.30790	160.93204	701.13000	 46.30	
 10.194	151.526	155.15092	 31.56627	113.16297	 89.37130	 50.35696	  4.33570	160.96716	701.09998	 46.40	
 10.210	161.034	155.03258	 28.77150	116.45196	 82.07501	 57.09050	  4.20453	160.95076	701.07001	 46.50	
 10.191	170.497	155.03188	 27.38508	118.52565	 74.67675	 64.13642	  4.19375	161.02161	701.00000	 46.50	
 11.899	171.783	152.24615	 19.95738	124.53583	 72.48962	 61.75668	  4.47918	160.98410	701.08002	 46.50	
 11.890	163.610	152.29108	 20.93685	122.83990	 80.17628	 54.56765	  4.55363	160.95744	701.01001	 46.50	
 11.889	155.445	152.45708	 22.86082	119.95072	 87.25877	 47.07244	  4.62625	161.01166	701.03998	 46.50	
 11.909	147.299	152.48071	 25.47451	116.05280	 94.90442	 40.39274	  4.62355	161.00342	701.06000	 46.50	
 11.902	139.148	152.54900	 29.30952	111.18359	101.82082	 35.09442	  4.54618	161.00587	701.07001	 46.50	
 11.894	130.867	152.64291	 34.17623	105.33550	108.00088	 32.32798	  4.48222	160.98970	701.00000	 46.50	
 11.897	122.732	152.74936	 39.93374	 98.81336	113.16985	 28.74549	  4.27250	160.98090	701.07001	 46.50	
 11.903	114.597	152.84003	 46.53119	 91.64210	117.47559	 25.67871	  4.23788	161.00594	701.08002	 46.50	
 11.893	106.346	152.90651	 53.78326	 84.29798	120.56040	 23.49409	  4.18596	160.96559	701.03998	 46.40	
 11.892	 98.155	153.07959	 61.02834	 76.64307	122.55077	 22.17346	  4.16871	161.01360	701.04999	 46.30	
 11.900	 90.000	153.15836	 68.48408	 68.65191	123.23943	 21.73020	  4.15231	160.98508	701.00000	 46.30	
 11.892	 81.845	153.27869	 75.85764	 60.89926	122.84130	 22.11760	  4.16761	161.00415	700.97998	 46.30	
 11.893	 73.654	153.23964	 83.16001	 53.39677	121.31608	 23.05299	  4.14695	161.00131	701.01001	 46.30	
 11.903	 65.403	153.13635	 89.76534	 47.07417	118.47540	 24.96722	  4.18018	160.95845	701.09998	 46.30	
 11.897	 57.268	153.14418	 96.85972	 41.09201	114.35845	 28.03265	  4.23012	160.98175	701.07001	 46.30	
 11.894	 49.133	153.12857	103.51613	 35.47840	109.53884	 31.85314	  4.35154	160.97548	701.07001	 46.40	
 11.902	 40.852	153.11072	109.58632	 30.53402	103.54909	 36.07492	  4.33801	161.00652	700.96002	 46.40	
 11.909	 32.701	153.09764	114.66815	 26.46314	 97.03706	 40.26096	  4.45090	160.99413	701.15002	 46.50	
 11.889	 24.555	153.08327	118.72192	 23.33450	 89.84144	 46.38062	  4.50639	160.98726	701.13000	 46.50	
 11.890	 16.390	153.07227	121.80793	 21.03351	 82.65572	 53.30605	  4.56497	161.00517	701.02002	 46.50	
 11.899	  8.217	153.06551	123.85326	 19.63868	 75.05416	 60.68747	  4.67235	160.98688	701.09003	 46.40	
 11.900	  0.000	153.15097	124.69511	 19.33990	 67.28843	 68.13209	  4.73995	161.06273	701.15002	 46.40	
 11.899	 -8.217	153.09987	124.30643	 19.47495	 59.50140	 75.41957	  4.78162	161.02292	701.07001	 46.40	
 11.890	-16.390	153.13684	122.53052	 20.83247	 52.11562	 82.78376	  4.80122	161.02573	701.08002	 46.40	
 11.889	-24.555	153.10178	119.70201	 22.78693	 44.63654	 90.05916	  4.84500	161.07841	701.12000	 46.30	
 11.909	-32.701	152.92192	115.76154	 25.60698	 37.46209	 97.49567	  4.86247	161.04414	701.14001	 46.30	
 11.902	-40.852	152.74060	110.86649	 29.42111	 32.22831	104.01374	  4.87286	161.01083	701.09003	 46.40	
 11.894	-49.133	152.66286	104.89865	 34.40084	 27.50311	109.69624	  4.89490	161.08704	701.14001	 46.40	
 11.897	-57.268	152.49719	 98.86094	 39.86684	 23.33035	114.95494	  4.81063	161.05029	701.21002	 46.50	
 11.903	-65.403	152.34456	 91.31734	 45.91589	 19.86720	119.37231	  4.80766	161.04906	701.13000	 46.50	
 11.893	-73.654	152.18704	 84.74159	 52.60689	 17.16605	122.31898	  4.73359	161.01212	701.15002	 46.50	
 11.892	-81.845	152.12643	 77.26371	 59.70043	 15.82062	124.13810	  4.72279	161.05869	701.19000	 46.50	
 11.900	-90.000	152.01558	 70.13790	 67.32845	 15.51843	124.74690	  4.64620	161.05023	701.16998	 46.50	
 11.892	-98.155	151.95137	 62.86514	 74.89242	 15.42230	124.29726	  4.69676	161.07297	701.15002	 46.50	
 11.893	-106.346	152.03647	 55.28441	 82.89221	 16.27223	122.67454	  4.65475	161.12538	701.21002	 46.50	
 11.903	-114.597	152.01215	 47.66853	 90.33352	 18.77048	119.83809	  4.69103	161.10710	701.04999	 46.50	
 11.897	-122.732	151.98515	 41.04857	 97.33639	 21.92185	115.74402	  4.66924	161.10461	701.13000	 46.50	
 11.894	-130.867	152.04242	 35.17548	104.34205	 25.76282	110.33857	  4.64079	161.10831	701.15002	 46.50	
 11.902	-139.148	152.02452	 29.96925	110.42984	 30.12777	104.67712	  4.63141	161.08417	701.15002	 46.50	
 11.909	-147.299	152.12450	 25.92382	115.52670	 35.33868	 98.38754	  4.59829	161.11395	701.09003	 46.40	
 11.889	-155.445	152.17218	 22.83810	119.51607	 41.77846	 91.12404	  4.52634	161.05798	701.03998	 46.40	
 11.890	-163.610	152.16550	 20.56339	122.69102	 48.84620	 83.92820	  4.53935	161.06012	701.09998	 46.40	
 11.899	-171.783	152.20763	 19.40200	124.62433	 56.59687	 76.42445	  4.55751	161.07414	701.19000	 46.40	
 11.900	180.000	152.30849	 19.21294	125.31416	 64.42239	 69.04486	  4.47856	161.10349	701.25000	 46.50	
 13.600	180.000	149.06990	 10.86692	130.86826	 61.74191	 66.39462	  4.77618	161.13705	701.14001	 46.50	
 13.608	-172.853	148.99625	 11.16183	130.24979	 53.96698	 73.90418	  4.83419	161.15836	701.15002	 46.50	
 13.611	-165.583	148.92653	 12.34047	128.56067	 46.15067	 81.48417	  4.83540	161.12807	701.15002	 46.50	
 13.601	-158.353	148.95599	 14.54856	125.82146	 38.91430	 89.04605	  4.77335	161.12138	701.06000	 46.50	
 13.609	-151.210	148.87648	 17.23687	122.13188	 32.66562	 96.39827	  4.73713	161.08917	701.17999	 46.50	
 13.611	-143.999	148.80019	 20.62727	117.43571	 27.20775	103.26312	  4.78901	161.13704	701.14001	 46.60	
 13.601	-136.825	148.81090	 24.63655	111.89953	 22.00479	109.16508	  4.81126	161.14951	701.19000	 46.60	
 13.596	-129.640	148.74918	 29.26143	105.64607	 17.34457	114.93559	  4.89138	161.13860	701.16998	 46.60	
 13.611	-122.431	148.72023	 35.06519	 98.55759	 13.42481	120.23077	  4.94182	161.11372	701.19000	 46.60	
 13.604	-115.211	148.71906	 41.44510	 91.46156	  9.76812	124.38013	  4.95096	161.12236	701.15997	 46.60	
 13.595	-108.042	148.68398	 48.37555	 84.03819	  7.21208	127.34433	  4.84231	161.09023	701.21997	 46.70	
 13.607	-100.793	148.55936	 56.02272	 75.96728	  5.98271	129.60437	  4.84619	161.10085	701.15002	 46.70	
 13.601	-93.617	148.61182	 64.07312	 68.03339	  5.99886	130.42754	  4.83771	161.09846	701.13000	 46.70	
 13.601	-86.383	148.70331	 71.13698	 60.66702	  6.21216	130.28278	  4.87593	161.07164	701.17999	 46.80	
 13.607	-79.207	148.78615	 78.66235	 53.46444	  6.25101	129.26599	  4.93023	161.02898	701.09998	 46.80	
 13.595	-71.958	149.05516	 86.26566	 46.56169	  8.17200	126.99443	  4.93116	161.06868	701.15997	 46.80	
 13.604	-64.789	149.14417	 92.86823	 40.00785	 11.65456	123.94786	  4.98864	161.09959	701.20001	 46.70	
 13.611	-57.569	149.26115	100.60461	 33.87410	 15.04821	119.60980	  5.02091	161.08891	701.14001	 46.80	
 13.596	-50.360	149.42906	106.62127	 28.41167	 19.27323	114.23029	  5.02478	161.06400	701.15997	 46.80	
 13.601	-43.175	149.64035	112.71329	 23.47114	 24.08227	108.49220	  5.05132	161.08188	701.15002	 46.80	
 13.611	-36.001	149.80231	118.06847	 19.23262	 29.43738	102.46920	  5.01160	161.11140	701.10999	 46.70	
 13.609	-28.790	149.95323	122.69914	 15.89954	 35.62745	 95.07675	  4.95993	161.11459	701.14001	 46.70	
 13.601	-21.647	150.07042	126.18722	 13.51668	 42.31580	 87.69360	  4.86652	161.09956	701.19000	 46.60	
 13.611	-14.417	150.17532	128.35445	 11.66132	 49.79251	 80.18668	  4.87671	161.12274	701.19000	 46.60	
 13.608	 -7.147	150.11876	129.87418	 10.56218	 57.27974	 72.57210	  4.80923	161.07469	701.13000	 46.60	
 13.600	  0.000	150.20732	130.13324	 10.68610	 65.01433	 65.27113	  4.78707	161.14352	701.21002	 46.60	
 13.608	  7.147	150.08588	129.49716	 10.69060	 72.51653	 57.47272	  4.76313	161.09120	701.20001	 46.60	
 13.611	 14.417	150.03729	127.85427	 11.81016	 80.48622	 50.18153	  4.68062	161.11816	701.15002	 46.60	
 13.601	 21.647	150.05174	125.34680	 13.78433	 87.81064	 43.20798	  4.65599	161.12646	701.23999	 46.70	
 13.609	 28.790	150.04855	121.50681	 16.53292	 95.18913	 38.10763	  4.63508	161.10368	701.17999	 46.70	
 13.611	 36.001	150.03313	116.72263	 20.22809	102.07053	 33.17744	  4.59788	161.05257	701.27002	 46.70	
 13.601	 43.175	150.12112	111.30920	 24.61977	108.59811	 28.36772	  4.53626	161.13655	701.22998	 46.60	
 13.596	 50.360	150.12654	105.18578	 29.58266	114.23549	 23.97097	  4.56768	161.12512	701.26001	 46.60	
 13.611	 57.569	150.13654	 98.41545	 35.16404	119.35911	 20.06725	  4.45196	161.08578	701.16998	 46.60	
 13.604	 64.789	150.22346	 90.85834	 41.51752	123.23403	 17.26826	  4.43641	161.10468	701.15997	 46.60	
 13.595	 71.958	150.31964	 84.38844	 48.13662	126.08852	 15.22094	  4.42739	161.11232	701.16998	 46.50	
 13.607	 79.207	150.35385	 76.87621	 55.02250	128.12779	 13.98925	  4.30154	161.10295	701.21997	 46.60	
 13.601	 86.383	150.40482	 69.64478	 62.30663	129.05263	 13.63018	  4.35045	161.15771	701.15002	 46.60	
 13.601	 93.617	150.20984	 62.22762	 69.92065	128.95357	 13.34327	  4.42414	161.14006	701.14001	 46.70	
 13.607	100.793	150.06503	 54.46338	 78.00466	127.66561	 14.08811	  4.51098	161.13277	701.06000	 46.70	
 13.595	108.042	149.99474	 46.66109	 85.94389	125.34409	 15.79343	  4.53216	161.16655	701.16998	 46.80	
 13.604	115.211	149.87682	 39.80718	 93.13938	122.09543	 18.06577	  4.41073	161.16432	701.23999	 46.80	
 13.611	122.431	149.79530	 33.42685	100.39085	117.84779	 20.98552	  4.28389	161.13559	701.12000	 46.90	
 13.596	129.640	149.70229	 28.45259	107.17171	112.54282	 24.79039	  4.44024	161.15779	701.15002	 46.90	
 13.601	136.825	149.58223	 24.61411	113.18266	106.57939	 29.13424	  4.53872	161.15149	701.22998	 47.00	
 13.611	143.999	149.46790	 20.89512	118.45782	 99.87102	 33.74442	  4.74379	161.15297	701.21997	 47.10	
 13.609	151.210	149.41223	 17.55770	122.87471	 92.41537	 37.56051	  4.83524	161.16185	701.27002	 47.00	
 13.601	158.353	149.33655	 14.84404	126.34685	 85.27950	 44.00216	  4.80422	161.14537	701.22998	 47.00	
 13.611	165.583	149.32933	 12.80867	128.93478	 77.60225	 51.41757	  4.68714	161.22919	701.15997	 47.00	
 13.608	172.853	149.20677	 11.84613	130.39636	 69.68319	 58.87547	  4.65538	161.19530	701.21002	 47.00	
 15.298	173.587	145.66982	  2.38653	135.61549	 66.70655	 55.22107	  4.71207	161.15263	700.52002	 47.00	
 15.291	167.167	145.71986	  3.23340	134.28400	 74.26048	 48.28500	  4.71364	161.13159	701.19000	 46.90	
 15.307	160.676	145.85332	  4.84074	132.20654	 82.35230	 41.04880	  4.85646	161.20795	700.54999	 46.90	
 15.300	154.261	145.89198	  7.45830	129.04550	 89.78297	 36.43096	  4.96054	161.18741	700.42999	 46.90	
 15.288	147.854	146.01138	 10.86611	125.08246	 97.12756	 31.12728	  4.99326	161.19456	700.28998	 46.80	
 15.293	141.428	146.00887	 14.72305	120.11620	104.28211	 25.72582	  4.79357	161.18028	700.63000	 46.80	
 15.299	134.985	146.20941	 19.45846	114.52821	111.13271	 20.87729	  4.57300	161.21526	700.60999	 46.80	
 15.305	128.583	146.35580	 24.05183	108.31734	116.90985	 16.66535	  4.46368	161.21611	701.10999	 46.80	
 15.309	122.142	146.43427	 28.62794	101.57841	122.03745	 13.05582	  4.46541	161.23352	701.03998	 46.80	
 15.304	115.711	146.43726	 33.48401	 94.36861	126.22281	 10.21869	  4.62743	161.22710	701.15997	 46.80	
 15.297	109.291	146.54675	 39.96193	 86.94435	129.71663	  7.82035	  4.78433	161.24199	701.22998	 46.80	
 15.293	102.897	146.58806	 47.13681	 79.19385	132.20113	  6.04641	  4.79324	161.16881	701.15002	 46.90	
 15.293	 96.458	146.74358	 54.83885	 70.85150	133.91646	  4.97066	  4.72930	161.21271	701.15002	 46.90	
 15.300	 90.000	146.80128	 62.99633	 62.76608	134.58611	  4.50836	  4.60878	161.18092	701.19000	 46.90	
 15.293	 83.542	146.99361	 70.13553	 56.07858	134.17349	  5.16055	  4.62649	161.20012	701.23999	 46.90	
 15.293	 77.103	146.94188	 77.65288	 48.98075	132.85214	  5.77783	  4.59626	161.16866	701.09003	 47.00	
 15.297	 70.709	146.94400	 85.09252	 42.19353	130.72112	  7.30729	  4.72394	161.18225	701.14001	 47.00	
 15.304	 64.289	146.83626	 91.71939	 35.52282	127.51807	  9.32803	  4.72847	161.17314	701.15997	 47.00	
 15.309	 57.858	146.79466	 99.69013	 29.32712	123.53134	 12.18028	  4.75440	161.16594	701.17999	 47.00	
 15.305	 51.417	146.65753	106.07593	 23.66694	118.67493	 15.85986	  4.78587	161.17163	701.20001	 47.00	
 15.299	 45.015	146.69109	112.42567	 18.56283	113.04614	 20.09400	  4.74508	161.17613	701.16998	 47.00	
 15.293	 38.572	146.68854	118.24742	 13.94246	106.55663	 24.90303	  4.79714	161.17775	701.17999	 47.10	
 15.288	 32.146	146.75293	123.38051	 10.27164	 99.85264	 30.26190	  4.84217	161.20445	701.16998	 47.10	
 15.300	 25.739	146.65988	127.77975	  7.09488	 92.41801	 36.03190	  4.77961	161.14621	701.15002	 47.20	
 15.307	 19.324	146.58083	130.93251	  4.80903	 85.19850	 41.06179	  4.78508	161.16266	701.17999	 47.20	
 15.291	 12.833	146.57947	133.43683	  2.88224	 77.45300	 47.12675	  4.80363	161.17366	701.03003	 47.30	
 15.298	  6.413	146.62738	134.95352	  2.03592	 69.56145	 54.67115	  4.85254	161.16225	700.78998	 47.20	
 15.300	  0.000	146.69237	135.52548	  1.88010	 62.40009	 61.04490	  4.91384	161.19827	701.21002	 47.20	
 15.298	 -6.413	146.73416	135.33543	  1.90853	 54.69102	 69.34197	  4.93558	161.20229	701.26001	 47.20	
 15.291	-12.833	146.71867	134.04321	  2.81668	 47.18870	 77.20544	  4.90547	161.17628	701.14001	 47.20	
 15.307	-19.324	146.59789	131.72357	  4.43878	 39.78927	 84.85684	  4.84337	161.15097	701.16998	 47.10	
 15.300	-25.739	146.43028	128.88242	  6.66735	 32.89865	 92.38058	  4.89439	161.14075	701.19000	 47.10	
 15.288	-32.146	146.30643	124.81069	  9.62960	 26.61627	 99.63197	  4.93620	161.14876	701.20001	 47.10	
 15.293	-38.572	146.25526	119.71787	 13.32678	 20.99733	106.87408	  4.95513	161.19637	701.28998	 47.10	
 15.299	-45.015	146.08554	114.18262	 17.56017	 15.66247	112.68175	  4.97190	161.19221	701.23999	 47.00	
 15.305	-51.417	145.96983	107.98557	 22.27887	 11.00162	118.50682	  4.99585	161.23148	701.03998	 47.00	
 15.309	-57.858	145.72382	101.91048	 27.66483	  6.87040	123.76006	  4.96531	161.21407	701.33002	 46.90	
 15.304	-64.289	145.59407	 94.44527	 33.73506	  3.31461	128.17268	  4.92532	161.24339	701.40997	 46.90	
 15.297	-70.709	145.47603	 87.31136	 40.35098	 -0.30979	131.55435	  4.90434	161.24928	701.40997	 46.90	
 15.293	-77.103	145.27917	 79.87082	 47.25809	 -2.31867	133.92438	  4.89548	161.25252	701.32001	 46.90	
 15.293	-83.542	145.18147	 72.15307	 54.50993	 -3.45356	135.37003	  4.89448	161.25517	701.22998	 47.00	
 15.300	-90.000	145.16135	 64.16308	 61.31705	 -3.71718	135.87964	  4.89862	161.30177	701.34003	 47.00	
 15.293	-96.458	145.09769	 56.78408	 68.80924	 -3.48620	135.46992	  4.82583	161.25981	701.28998	 47.00	
 15.293	-102.897	145.06476	 49.32909	 76.84467	 -2.89216	134.13399	  4.88330	161.24463	701.29999	 47.10	
 15.297	-109.291	145.13989	 42.18721	 84.86565	 -1.16312	131.95760	  4.89079	161.28432	701.41998	 47.10	
 15.304	-115.711	145.18257	 35.46432	 92.44064	  2.21322	128.67172	  4.97002	161.29257	701.31000	 47.10	
 15.309	-122.142	145.16917	 30.20633	 99.56458	  5.35136	124.54055	  4.93021	161.31493	701.41998	 47.20	
 15.305	-128.583	145.24234	 24.94096	106.71163	  9.07482	119.46301	  4.85953	161.33635	701.29999	 47.20	
 15.299	-134.985	145.38986	 20.20235	113.05611	 13.43405	113.68403	  4.83875	161.39322	700.67999	 47.20	
 15.293	-141.428	145.44670	 15.54264	118.95044	 18.54064	107.74908	  4.71681	161.41052	700.67999	 47.30	
 15.288	-147.854	145.51419	 11.55509	124.13210	 24.15762	100.95716	  4.77081	161.41794	700.54999	 47.30	
 15.300	-154.261	145.53418	  8.00190	128.44844	 30.13705	 93.77159	  4.69280	161.44777	700.64001	 47.30	
 15.307	-160.676	145.49490	  5.17927	131.81056	 36.43405	 86.31815	  4.74717	161.43260	700.64001	 47.30	
 15.291	-167.167	145.58429	  3.33559	134.26424	 43.45109	 78.68696	  4.85209	161.47525	700.60999	 47.30	
 15.298	-173.587	145.61819	  2.15526	135.75909	 51.12085	 71.16381	  4.86516	161.46625	700.83002	 47.20	
 15.300	180.000	145.72473	  1.80690	136.37019	 58.99759	 62.94872	  4.84371	161.49420	700.85999	 47.10	
 17.000	180.000	141.68132	 -7.17973	141.19960	 55.69521	 59.33864	  4.77077	161.49928	701.21997	 47.10	
 16.990	-174.179	141.65501	 -6.91065	140.68948	 47.96095	 67.13026	  4.80662	161.49800	701.26001	 47.10	
 17.009	-168.383	141.52837	 -5.93253	139.35944	 40.49816	 75.62259	  4.81222	161.57108	701.37000	 47.20	
 17.000	-162.596	141.37509	 -4.19952	136.99637	 33.54082	 83.21745	  4.72012	161.51585	701.46002	 47.20	
 16.990	-156.759	141.33611	 -1.48268	133.72081	 26.87185	 90.78511	  4.57035	161.47137	701.38000	 47.10	
 16.995	-150.919	141.29617	  1.54036	129.92818	 20.66204	 98.02089	  4.59159	161.49896	700.89001	 47.10	
 16.988	-145.161	141.22424	  5.11268	125.33496	 14.94357	105.28617	  4.63214	161.51917	701.37000	 47.10	
 17.014	-139.343	141.14134	  9.35802	119.91227	  9.65756	111.35018	  4.71670	161.52078	701.33002	 47.10	
 17.007	-133.546	141.25148	 14.05406	113.86893	  5.06415	117.57542	  4.77190	161.55432	701.44000	 47.10	
 17.001	-127.699	141.23541	 19.42974	107.20692	  0.87070	123.44791	  4.83025	161.55354	701.28003	 47.20	
 17.006	-121.937	141.16167	 25.06318	100.22527	 -2.59121	128.48192	  4.84307	161.53680	700.94000	 47.20	
 17.002	-116.134	141.07672	 31.33644	 93.02051	 -5.53035	132.67430	  4.84940	161.53796	700.98999	 47.20	
 17.001	-110.310	140.99370	 36.88239	 85.27631	 -7.91153	136.01198	  4.76462	161.53365	701.38000	 47.20	
 16.988	-104.517	141.08592	 42.81839	 77.41718	 -9.58428	138.25237	  4.76620	161.60919	700.60999	 47.30	
 17.008	-98.662	141.00110	 50.28738	 68.97392	-10.91441	139.89467	  4.76902	161.56725	700.63000	 47.30	
 16.996	-92.909	141.08498	 57.69949	 61.26534	-11.42186	140.64093	  4.72869	161.57718	700.69000	 47.30	
 16.996	-87.091	141.21552	 63.94468	 55.10221	-11.28976	140.61588	  4.83308	161.60565	700.62000	 47.40	
 17.012	-81.253	141.23033	 72.21626	 47.76276	-10.69545	139.85077	  4.83777	161.61812	700.64001	 47.40	
 16.988	-75.483	141.48987	 80.59016	 40.73645	 -9.06053	138.16237	  4.83174	161.66154	700.53998	 47.40	
 17.001	-69.690	141.61086	 88.10257	 33.88367	 -7.05610	135.72359	  4.78908	161.63216	700.59998	 47.30	
 17.002	-63.866	141.86127	 95.32907	 27.55678	 -4.24520	132.23378	  4.83278	161.65627	701.21997	 47.40	
 17.006	-58.063	141.97481	102.75746	 21.73064	 -1.05429	127.91167	  4.84347	161.68236	700.65002	 47.40	
 17.001	-52.301	142.28421	108.92632	 16.50897	  2.89681	122.74899	  4.93228	161.69424	701.34998	 47.30	
 17.007	-46.454	142.39339	115.42168	 11.59967	  7.30368	116.82639	  4.88961	161.64555	701.41998	 47.30	
 17.014	-40.657	142.46838	121.22626	  7.15319	 12.18831	111.31506	  4.89625	161.69835	701.40997	 47.20	
 16.988	-34.839	142.68874	126.59700	  3.36535	 17.62721	104.28622	  4.83759	161.67735	700.64001	 47.20	
 16.995	-29.081	142.87669	131.21826	  0.08672	 23.55363	 96.97051	  4.87931	161.68709	701.50000	 47.20	
 16.990	-23.241	143.05673	134.87003	 -2.59065	 30.08430	 89.47895	  4.77835	161.71252	701.53003	 47.20	
 17.000	-17.404	143.14371	137.55815	 -4.78387	 37.14413	 81.86157	  4.77638	161.71056	701.46002	 47.20	
 17.009	-11.617	143.24455	139.22490	 -8.21806	 44.54681	 73.91668	  4.84117	161.70273	701.40997	 47.30	
 16.990	 -5.821	143.24294	140.24258	 -9.02917	 52.02462	 65.36894	  4.84593	161.68332	701.48999	 47.30	
 17.000	  0.000	143.19379	140.62158	 -9.37211	 59.81699	 57.55205	  4.92110	161.71960	700.92999	 47.30	
 16.990	  5.821	143.21111	139.96118	 -8.96638	 66.72987	 51.08886	  4.81636	161.71155	701.48999	 47.30	
 17.009	 11.617	143.17290	138.66553	 -8.21576	 74.58044	 44.66984	  4.72732	161.76158	701.47998	 47.30	
 17.000	 17.404	143.22102	136.72798	 -6.63497	 82.41147	 39.27944	  4.68681	161.73274	701.51001	 47.40	
 16.990	 23.241	143.39037	133.55739	 -4.16050	 90.00747	 32.96272	  4.70335	161.71428	701.51001	 47.40	
 16.995	 29.081	143.42001	130.06812	  0.07552	 97.31564	 26.84842	  4.75351	161.80936	701.21002	 47.30	
 16.988	 34.839	143.46341	124.97863	  3.96695	104.40604	 21.26716	  4.81475	161.75780	701.32001	 47.30	
 17.014	 40.657	143.33116	119.55759	  7.94568	111.37697	 15.90860	  4.83819	161.81839	700.71997	 47.40	
 17.007	 46.454	143.38832	113.57725	 12.65872	117.52278	 11.40897	  4.80451	161.82213	701.03003	 47.50	
 17.001	 52.301	143.42534	106.92776	 17.88628	123.17594	  7.50304	  4.79443	161.81276	701.38000	 47.50	
 17.006	 58.063	143.52608	100.19502	 23.30874	127.85954	  4.06778	  4.76289	161.77628	701.44000	 47.60	
 17.002	 63.866	143.59770	 92.56950	 29.32638	131.97736	  1.12463	  4.71992	161.80115	701.47998	 47.60	
 17.001	 69.690	143.65434	 85.73896	 36.03857	135.37885	 -1.00733	  4.70999	161.83780	701.56000	 47.60	
 16.988	 75.483	143.60362	 78.29906	 42.84194	137.73659	 -2.55245	  4.65416	161.83150	701.53998	 47.60	
 17.012	 81.253	143.54900	 70.22745	 49.91869	139.44919	 -3.55570	  4.65467	161.83055	701.47998	 47.60	
 16.996	 87.091	143.49356	 62.95887	 56.30102	140.10143	 -4.02179	  4.71460	161.79544	700.71002	 47.60	
 16.996	 92.909	143.44304	 55.34268	 63.58744	139.97098	 -4.12331	  4.78151	161.81689	701.12000	 47.60	
 17.008	 98.662	143.44292	 47.67168	 71.58326	138.97855	 -3.60253	  4.93207	161.80756	701.47998	 47.60	
 16.988	104.517	143.33803	 40.19667	 79.94305	136.92633	 -2.22788	  4.91608	161.81796	701.56000	 47.60	
 17.001	110.310	143.21158	 34.12269	 87.90074	134.18262	 -0.41949	  4.85985	161.85686	701.53003	 47.50	
 17.002	116.134	143.27000	 29.19395	 95.45052	130.49489	  2.07158	  4.74022	161.89470	701.50000	 47.50	
 17.006	121.937	143.12346	 23.42583	102.66756	126.11923	  4.91817	  4.55186	161.84792	701.51001	 47.60	
 17.001	127.699	143.04272	 18.05618	109.53808	121.06635	  8.41473	  4.43187	161.87062	701.28003	 47.60	
 17.007	133.546	142.91524	 12.88830	115.97105	115.27908	 12.54126	  4.45124	161.86536	701.47998	 47.60	
 17.014	139.343	142.71193	  7.84347	121.88196	108.72393	 17.09565	  4.58567	161.92560	701.46997	 47.60	
 16.988	145.161	142.65182	  3.88301	127.19099	101.67724	 22.55725	  4.87098	161.88498	701.38000	 47.60	
 16.995	150.919	142.56931	  0.67768	131.42046	 94.36184	 28.14623	  4.99829	161.90091	701.53003	 47.60	
 16.990	156.759	142.48090	 -2.10560	135.11086	 86.93513	 34.07129	  4.93597	161.90250	701.53003	 47.60	
 17.000	162.596	142.45341	 -4.15247	138.03180	 78.81991	 40.08353	  4.82841	161.94051	701.37000	 47.50	
 17.009	168.383	142.30769	 -5.53734	140.03098	 70.90034	 45.05269	  4.71227	161.94756	701.47998	 47.50	
 16.990	174.179	142.17960	 -6.49240	141.19308	 63.77734	 51.46579	  4.71761	161.92093	700.97998	 47.50	
 18.709	174.675	137.42070	-15.30686	145.54549	 60.20958	 47.38898	  4.68170	161.93907	700.78998	 47.60	
 18.703	169.441	137.57620	-14.38516	144.50652	 67.30131	 42.59788	  4.68527	161.96072	701.51001	 47.70	
 18.691	164.085	137.72015	-13.29624	142.79384	 74.71693	 37.38390	  4.74971	161.94894	701.48999	 47.70	
 18.706	158.818	137.88806	-11.42578	140.26077	 82.78517	 31.02838	  4.83332	161.95549	701.51001	 47.70	
 18.695	153.537	137.99403	 -8.77571	136.79837	 90.63436	 24.94171	  4.89826	161.92802	700.82001	 47.70	
 18.704	148.255	138.08525	 -5.84221	132.79410	 97.91089	 18.90157	  4.84225	161.98993	701.53998	 47.60	
 18.698	142.952	138.13799	 -2.44344	128.12273	105.37733	 13.11322	  4.61682	161.99510	701.63000	 47.50	
 18.699	137.625	138.24557	  1.45681	122.56513	112.26354	  7.91796	  4.40860	162.01137	700.94000	 47.50	
 18.705	132.343	138.44290	  6.14466	116.49840	118.65441	  3.59191	  4.33305	161.99672	700.84003	 47.50	
 18.713	127.067	138.51266	 11.10731	109.98866	124.45895	 -0.35848	  4.37819	161.95682	701.09998	 47.50	
 18.700	121.794	138.63631	 16.77643	102.96637	129.39371	 -3.69044	  4.51383	161.94374	700.77002	 47.50	
 18.698	116.504	138.80148	 22.79622	 95.95987	133.96159	 -6.47666	  4.63744	162.03049	701.22998	 47.50	
 18.707	111.165	138.84917	 28.96494	 88.22944	137.75389	 -8.86865	  4.77547	162.00893	700.78003	 47.40	
 18.690	105.863	139.02280	 34.47184	 80.21338	140.65167	-10.55380	  4.81500	162.01292	700.78003	 47.40	
 18.696	100.583	139.16289	 40.46315	 72.11784	142.78020	-11.88037	  4.80169	162.02945	701.22998	 47.50	
 18.700	 95.309	139.20172	 47.94299	 64.03088	144.15541	-12.67969	  4.73574	161.99332	700.89001	 47.50	
 18.700	 90.000	139.22363	 55.51974	 56.30042	144.69916	-13.07402	  4.65494	161.99434	700.79999	 47.50	
 18.700	 84.691	139.25102	 62.00963	 50.33585	144.50259	-12.67062	  4.52435	162.02617	700.88000	 47.50	
 18.696	 79.417	139.24940	 69.41270	 43.26140	143.49036	-12.12818	  4.54469	162.00865	701.53003	 47.50	
 18.690	 74.137	139.36180	 78.38418	 36.23503	141.62817	-11.04521	  4.54975	162.00102	701.57001	 47.50	
 18.707	 68.835	139.33482	 85.92292	 29.52447	139.17303	 -9.50070	  4.57443	162.02478	701.57001	 47.50	
 18.698	 63.496	139.36447	 92.76906	 23.16256	135.66203	 -7.13048	  4.61807	162.03558	701.13000	 47.50	
 18.700	 58.206	139.26311	100.43356	 17.23295	131.52789	 -4.44911	  4.58170	162.01237	701.34003	 47.50	
 18.713	 52.933	139.18414	107.83882	 11.68521	126.80209	 -1.21898	  4.61658	162.03085	701.47998	 47.60	
 18.705	 47.657	139.12517	114.01922	  6.54901	121.23679	  2.63145	  4.69197	161.99979	701.51001	 47.50	
 18.699	 42.375	139.15579	120.16228	  1.76834	115.25691	  6.90935	  4.69887	162.03209	701.53003	 47.50	
 18.698	 37.048	139.22986	125.80857	 -2.72009	108.37620	 11.87128	  4.69635	162.00420	701.53998	 47.50	
 18.704	 31.745	139.29161	131.29404	 -7.61810	101.39535	 17.35106	  4.68373	162.03864	701.25000	 47.50	
 18.695	 26.463	139.20230	135.54384	-11.03614	 93.94970	 23.41880	  4.61097	162.05312	701.51001	 47.50	
 18.706	 21.182	138.98544	138.94077	-13.81184	 86.61996	 29.50650	  4.56439	162.04869	700.84998	 47.60	
 18.691	 15.915	138.88707	141.48096	-15.77103	 78.86560	 36.13988	  4.57596	162.02263	701.59998	 47.60	
 18.703	 10.559	138.85011	143.54909	-17.29524	 70.69202	 42.87896	  4.62953	162.01631	701.60999	 47.60	
 18.709	  5.325	138.90323	144.73695	-17.97847	 63.32013	 47.87093	  4.66846	162.02336	701.13000	 47.60	
 18.700	  0.000	138.96124	145.24333	-18.22762	 56.68901	 53.51702	  4.79269	162.03316	700.84998	 47.70	
 18.709	 -5.325	139.03001	145.07671	-17.98974	 49.04428	 61.65349	  4.78094	162.06277	700.75000	 47.70	
 18.703	-10.559	139.05698	144.22270	-17.24682	 41.65888	 69.52898	  4.77870	162.09354	700.84998	 47.70	
 18.691	-15.915	138.97339	142.38260	-15.79550	 34.25075	 78.10535	  4.69580	162.05878	700.84003	 47.70	
 18.706	-21.182	138.81331	139.88205	-13.16074	 27.18548	 86.10559	  4.70086	162.07742	700.78003	 47.60	
 18.695	-26.463	138.83076	136.83865	 -9.74228	 20.63043	 93.57373	  4.76946	162.10895	701.58002	 47.60	
 18.704	-31.745	138.68034	132.82338	 -6.76886	 14.44813	100.85654	  4.79465	162.09344	700.95001	 47.60	
 18.698	-37.048	138.52257	127.66532	 -3.28570	  8.68382	108.19044	  4.79637	162.06593	701.59003	 47.70	
 18.699	-42.375	138.32249	122.06815	  0.75068	  3.47752	114.88577	  4.79688	162.05487	701.28003	 47.70	
 18.705	-47.657	138.21007	116.26491	  5.24594	 -1.14434	120.48594	  4.82318	162.10510	700.92999	 47.80	
 18.713	-52.933	138.03792	110.15591	 10.17368	 -5.43043	126.37975	  4.84148	162.12561	701.57001	 47.80	
 18.700	-58.206	137.77388	103.09957	 15.54480	 -9.19962	131.53523	  4.83180	162.10535	701.52002	 47.80	
 18.698	-63.496	137.62067	 95.74948	 21.31150	-12.43897	135.91940	  4.76429	162.13895	701.52002	 47.80	
 18.707	-68.835	137.37814	 88.64274	 27.59821	-15.15570	139.44250	  4.78876	162.11320	701.13000	 47.80	
 18.690	-74.137	137.26515	 80.99769	 34.20976	-17.17720	141.97461	  4.76984	162.12903	700.96002	 47.70	
 18.696	-79.417	136.94431	 72.22961	 40.99883	-18.95384	144.03784	  4.80976	162.14366	700.84998	 47.70	
 18.700	-84.691	136.80499	 64.37698	 48.37963	-19.96403	145.18460	  4.77540	162.10194	701.63000	 47.70	
 18.700	-90.000	136.68633	 58.42335	 54.13969	-20.32116	145.51273	  4.69978	162.11624	701.52002	 47.70	
 18.700	-95.309	136.63377	 51.26238	 61.62079	-20.16985	145.25069	  4.72577	162.16684	701.54999	 47.70	
 18.696	-100.583	136.52567	 43.69677	 69.41297	-19.35499	144.21405	  4.72076	162.14357	701.63000	 47.60	
 18.690	-105.863	136.62169	 38.28765	 77.63461	-17.95735	142.38467	  4.69971	162.17632	701.20001	 47.60	
 18.707	-111.165	136.59764	 31.78820	 85.50188	-16.25713	139.87491	  4.73944	162.16800	700.78998	 47.60	
 18.698	-116.504	136.71449	 25.27781	 93.43712	-13.84149	136.61946	  4.78254	162.19594	700.78998	 47.70	
 18.700	-121.794	136.73518	 18.75559	100.68351	-10.91018	132.34848	  4.71978	162.17690	700.84003	 47.70	
 18.713	-127.067	136.80321	 13.03773	107.68829	 -7.52403	127.35944	  4.72068	162.19754	700.89001	 47.70	
 18.705	-132.343	136.95265	  7.83406	114.50121	 -3.43138	121.59444	  4.73494	162.22481	701.64001	 47.70	
 18.699	-137.625	136.97449	  2.97497	120.76034	  1.03275	115.33173	  4.67025	162.16426	701.26001	 47.60	
 18.698	-142.952	137.10832	 -1.14701	126.35821	  5.99908	109.50941	  4.65069	162.16376	700.87000	 47.70	
 18.704	-148.255	137.16354	 -4.91532	131.38257	 11.34682	102.27647	  4.56569	162.14813	701.00000	 47.70	
 18.695	-153.537	137.29727	 -8.14128	135.66594	 17.33867	 94.99187	  4.53899	162.16753	701.02002	 47.70	
 18.706	-158.818	137.25919	-11.04297	139.36444	 23.61084	 87.66280	  4.54759	162.19786	701.62000	 47.60	
 18.691	-164.085	137.37735	-13.04886	142.29507	 30.36313	 80.09752	  4.61650	162.21451	700.90002	 47.60	
 18.703	-169.441	137.45412	-14.42866	144.41698	 37.57271	 71.13321	  4.73818	162.22046	700.88000	 47.50	
 18.709	-174.675	137.50002	-15.29976	145.64545	 44.86322	 63.63564	  4.78050	162.21687	700.90002	 47.60	
 18.700	180.000	137.63792	-15.56267	146.15099	 52.53537	 55.50303	  4.72990	162.25801	700.96997	 47.60	
 20.400	180.000	132.35075	-24.22509	149.90868	 48.91817	 51.18565	  4.73390	162.25974	700.87000	 47.60	
 20.401	-175.153	132.19633	-24.02225	149.56728	 41.42768	 59.19986	  4.76787	162.28598	700.96997	 47.60	
 20.407	-170.264	132.17923	-23.13132	148.36119	 33.92999	 67.29401	  4.70527	162.27127	700.98999	 47.70	
 20.410	-165.423	132.06859	-21.91386	146.46324	 26.85857	 74.80263	  4.57700	162.24632	700.89001	 47.70	
 20.392	-160.496	132.08928	-20.05871	143.78748	 19.96596	 83.76870	  4.54286	162.25389	700.91998	 47.80	
 20.401	-155.705	132.00940	-17.72174	140.50253	 13.53901	 91.12732	  4.51847	162.28311	700.97998	 47.80	
 20.405	-150.835	131.91255	-14.87358	136.39174	  7.55280	 98.42949	  4.53447	162.23344	700.94000	 47.80	
 20.397	-145.903	131.91946	-11.30034	131.67142	  1.94632	105.87561	  4.63830	162.25427	700.95001	 47.80	
 20.392	-141.062	131.85471	 -7.56494	126.39553	 -3.03284	112.81603	  4.61537	162.26770	700.90002	 47.70	
 20.396	-136.227	131.66330	 -3.41942	120.59003	 -7.72222	118.52662	  4.64211	162.26567	701.01001	 47.70	
 20.408	-131.372	131.55994	  1.19400	114.25482	-11.94717	124.64623	  4.62704	162.28593	700.89001	 47.70	
 20.410	-126.511	131.46545	  6.40727	107.36720	-15.78849	130.30548	  4.63358	162.20744	700.89001	 47.60	
 20.400	-121.604	131.36464	 12.14067	100.31719	-19.11141	135.32306	  4.70267	162.23361	700.94000	 47.50	
 20.403	-116.741	131.25545	 18.25490	 92.97936	-22.03015	139.45573	  4.69777	162.19772	700.92999	 47.50	
 20.413	-111.900	131.25856	 24.72523	 85.21490	-24.30947	142.74463	  4.69568	162.23521	700.91998	 47.50	
 20.398	-107.004	131.12477	 31.91012	 76.97937	-26.19408	145.45494	  4.68123	162.16046	700.84998	 47.50	
 20.394	-102.132	131.03914	 38.70420	 69.08095	-27.57319	147.51462	  4.61692	162.18225	700.84003	 47.50	
 20.403	-97.332	130.95035	 44.53014	 61.41481	-28.59940	148.83038	  4.68329	162.18648	700.84998	 47.50	
 20.392	-92.440	131.08017	 51.19688	 53.66116	-29.01203	149.40215	  4.66893	162.16583	700.84998	 47.50	
 20.392	-87.560	131.22632	 56.95924	 48.04310	-29.08562	149.34547	  4.81732	162.18378	700.84998	 47.50	
 20.403	-82.668	131.37219	 64.46605	 40.90010	-28.34800	148.69609	  4.78869	162.22224	700.81000	 47.50	
 20.394	-77.868	131.56094	 71.95825	 34.09308	-27.04565	147.28214	  4.74610	162.21744	700.95001	 47.50	
 20.398	-72.996	131.78984	 79.99799	 27.41736	-25.39657	145.11716	  4.74262	162.22833	700.89001	 47.50	
 20.413	-68.100	131.88509	 88.45602	 20.72258	-23.48224	142.24612	  4.72184	162.21663	700.97998	 47.50	
 20.403	-63.259	132.24660	 95.57218	 14.65967	-20.82510	138.92247	  4.74544	162.22954	700.96997	 47.50	
 20.400	-58.396	132.53505	103.37744	  8.94301	-17.64179	134.50143	  4.77242	162.19423	700.96002	 47.60	
 20.410	-53.489	132.77048	110.31762	  3.50115	-14.04466	129.36990	  4.80157	162.22235	701.01001	 47.60	
 20.408	-48.628	133.00926	116.18810	 -1.43133	-10.02503	123.61684	  4.78927	162.18689	700.91998	 47.60	
 20.396	-43.773	133.29483	122.38383	 -5.82673	 -5.45253	117.49049	  4.78391	162.20505	701.02002	 47.70	
 20.392	-38.938	133.51056	127.92806	 -9.94789	 -0.42501	111.48034	  4.74948	162.19894	701.02002	 47.60	
 20.397	-34.097	133.74510	133.36919	-13.66711	  4.96811	104.50181	  4.74624	162.22873	700.97998	 47.60	
 20.405	-29.165	133.79424	137.80716	-17.06915	 10.89099	 97.03481	  4.72085	162.16434	701.03003	 47.50	
 20.401	-24.295	134.02740	141.20306	-20.32739	 17.30895	 89.74698	  4.71129	162.14732	700.95001	 47.50	
 20.392	-19.504	134.21967	144.29073	-22.81719	 23.96494	 81.77589	  4.69013	162.17847	701.01001	 47.50	
 20.410	-14.577	134.21263	146.71017	-24.88359	 30.97412	 73.45403	  4.67467	162.18631	701.06000	 47.40	
 20.407	 -9.736	134.25969	148.20956	-26.02286	 38.33656	 65.35223	  4.70398	162.14690	701.02002	 47.40	
 20.401	 -4.847	134.23444	149.08690	-26.70133	 45.74757	 57.14975	  4.78190	162.16925	700.95001	 47.40	
 20.400	  0.000	134.22545	149.22478	-26.94874	 53.30323	 50.43558	  4.72684	162.19673	700.97998	 47.40	
 20.401	  4.847	134.23190	148.65921	-26.62983	 59.84263	 45.33755	  4.67893	162.18123	700.98999	 47.30	
 20.407	  9.736	134.16446	147.62422	-25.92550	 66.91430	 39.24860	  4.60818	162.18349	701.04999	 47.30	
 20.410	 14.577	134.04176	145.84633	-24.64222	 74.73167	 32.35787	  4.56181	162.19356	700.98999	 47.20	
 20.392	 19.504	134.03325	143.27910	-22.87311	 82.73730	 25.49067	  4.56528	162.17648	701.07001	 47.20	
 20.401	 24.295	134.10622	140.08853	-20.77837	 90.35860	 19.03997	  4.58522	162.16396	700.89001	 47.20	
 20.405	 29.165	134.23537	136.38631	-18.01325	 97.56308	 12.87006	  4.55126	162.17154	701.04999	 47.20	
 20.397	 34.097	134.27119	131.67674	-14.39865	105.12550	  7.19347	  4.54578	162.19044	701.01001	 47.30	
 20.392	 38.938	134.32082	126.02396	 -9.62268	111.98016	  2.22438	  4.58380	162.22299	700.97998	 47.30	
 20.396	 43.773	134.30951	120.28619	 -5.02296	118.45291	 -2.18147	  4.57423	162.20441	701.06000	 47.40	
 20.408	 48.628	134.17001	113.84815	 -0.20943	124.49400	 -6.41341	  4.50325	162.17419	701.13000	 47.40	
 20.410	 53.489	134.16719	107.56386	  5.02972	129.88159	 -9.98013	  4.49584	162.16650	701.04999	 47.40	
 20.400	 58.396	134.38547	100.22992	 10.86099	134.75272	-13.05539	  4.48731	162.17686	701.02002	 47.40	
 20.403	 63.259	134.45718	 92.69202	 16.77962	138.87000	-15.68230	  4.48581	162.16550	701.02002	 47.50	
 20.413	 68.100	134.48233	 85.61839	 22.92618	142.35832	-18.02395	  4.45852	162.19408	701.00000	 47.50	
 20.398	 72.996	134.53505	 76.90958	 29.61154	145.08832	-19.55134	  4.50020	162.19502	701.02002	 47.60	
 20.394	 77.868	134.51305	 68.97640	 36.34072	147.05382	-20.77610	  4.46618	162.17159	701.03998	 47.60	
 20.403	 82.668	134.56131	 61.36316	 43.33039	148.32680	-21.36081	  4.49968	162.20753	701.03998	 47.70	
 20.392	 87.560	134.49060	 54.48890	 49.85441	148.85414	-21.79596	  4.51768	162.16666	701.01001	 47.70	
 20.392	 92.440	134.44240	 47.94242	 56.45019	148.70247	-21.79553	  4.53755	162.20164	701.08002	 47.70	
 20.403	 97.332	134.38277	 40.63408	 64.21186	147.83203	-21.31917	  4.61401	162.17549	701.03003	 47.70	
 20.394	102.132	134.33681	 34.75216	 71.98625	146.20375	-20.27001	  4.63787	162.17754	701.07001	 47.60	
 20.398	107.004	134.21658	 28.98848	 80.17347	143.84407	-18.95741	  4.64545	162.16946	701.02002	 47.60	
 20.413	111.900	134.01266	 22.46614	 88.14026	140.80630	-17.25147	  4.63174	162.17831	700.92999	 47.60	
 20.403	116.741	133.92931	 16.27184	 95.94428	136.92725	-14.93431	  4.58240	162.22093	701.01001	 47.60	
 20.400	121.604	133.82370	 10.18154	102.96312	132.45813	-12.02443	  4.51288	162.22093	700.97998	 47.60	
 20.410	126.511	133.65172	  4.53356	110.07991	127.44088	 -8.93260	  4.40409	162.18462	700.96002	 47.60	
 20.408	131.372	133.52669	 -0.60199	116.81889	121.59461	 -5.24701	  4.31476	162.21257	701.00000	 47.60	
 20.396	136.227	133.33716	 -5.20297	122.92896	115.33853	 -1.05529	  4.28456	162.20105	701.00000	 47.60	
 20.392	141.062	133.24913	 -9.10028	128.56520	108.67848	  3.60239	  4.41770	162.21155	701.04999	 47.50	
 20.397	145.903	133.12239	-12.73314	133.53732	101.45190	  8.80348	  4.63061	162.24165	700.95001	 47.50	
 20.405	150.835	132.97754	-15.92503	138.08255	 94.12536	 14.71012	  4.79696	162.25497	700.97998	 47.50	
 20.401	155.705	132.87465	-18.62976	141.91418	 86.41646	 21.08276	  4.79213	162.25081	700.96997	 47.60	
 20.392	160.496	132.80325	-20.61854	144.87939	 78.42042	 27.45839	  4.67462	162.21268	700.92999	 47.70	
 20.410	165.423	132.71054	-22.24034	147.27966	 70.31638	 34.05204	  4.66399	162.26999	700.85999	 47.80	
 20.407	170.264	132.47293	-23.38195	148.77672	 63.85844	 38.96082	  4.61891	162.26692	700.89001	 47.80	
 20.401	175.153	132.32622	-23.96313	149.61458	 56.50548	 44.73431	  4.69535	162.25314	700.90997	 47.90	
  0.141	 45.000	162.44917	 78.19139	 76.79626	 75.23582	 76.86092	  6.04860	162.28754	700.94000	 47.90	
  4.001	128.691	161.98007	 65.40586	 88.03434	 88.10994	 62.80032	  5.35901	162.21579	700.97998	 47.90	
  4.002	 76.995	162.07536	 80.44334	 72.32954	 92.45129	 59.86288	  5.48300	162.26025	701.06000	 48.00	
  4.002	 25.892	162.07361	 92.36803	 59.23981	 82.55969	 68.29839	  5.37261	162.27655	701.04999	 48.00	
  4.002	-25.892	162.01224	 92.38953	 59.11598	 65.51649	 83.89175	  5.19931	162.23842	700.92999	 48.00	
  4.002	-76.995	161.98781	 80.80426	 72.08107	 55.23181	 94.41370	  5.14907	162.27464	700.88000	 48.00	
  4.001	-128.691	161.92503	 65.86761	 87.75107	 58.18907	 90.86764	  5.17196	162.27739	700.91998	 48.00	
  4.000	180.000	161.93205	 58.86578	 95.21926	 73.18961	 76.72571	  5.15290	162.28012	701.08002	 47.90	
  8.000	180.000	158.97537	 39.28109	111.76164	 69.65430	 74.12670	  3.99951	162.27406	701.03998	 47.90	
  7.991	-152.370	158.95140	 44.03722	106.95935	 52.66835	 90.64240	  4.13682	162.28415	701.09998	 47.90	
  7.997	-124.550	158.89230	 55.19635	 94.27269	 39.74536	104.08044	  4.04806	162.27463	701.09998	 47.90	
  8.006	-96.837	158.93481	 70.68166	 77.46797	 34.96091	111.24062	  4.16398	162.29601	701.12000	 47.90	
  7.988	-69.228	159.11023	 87.41312	 59.15907	 37.31551	108.07392	  4.20010	162.29854	701.08002	 47.90	
  7.997	-41.563	159.31584	101.54755	 46.44476	 46.46841	 97.85115	  4.31776	162.30893	701.09998	 47.90	
  8.008	-13.821	159.42632	110.00262	 39.17475	 62.96294	 81.59641	  4.31632	162.27148	701.08002	 47.80	
  8.008	 13.821	159.46141	109.64027	 39.49635	 81.02296	 65.20658	  4.23514	162.29478	701.17999	 47.80	
  7.997	 41.563	159.53340	100.49190	 46.88455	 96.95872	 50.99915	  4.15865	162.30408	701.06000	 47.80	
  7.988	 69.228	159.55247	 86.18280	 60.11786	107.43623	 41.60336	  4.09514	162.29675	701.12000	 47.80	
  8.006	 96.837	159.46281	 69.49384	 78.26479	109.39982	 39.31358	  4.09969	162.33971	701.13000	 47.70	
  7.997	124.550	159.34467	 53.97591	 95.05721	102.05334	 45.98516	  4.24964	162.35515	701.22998	 47.70	
  7.991	152.370	159.18211	 43.37212	107.22305	 87.14282	 58.38071	  4.04892	162.31056	701.20001	 47.70	
 12.009	161.059	153.48799	 21.76427	123.46014	 83.19563	 52.30682	  4.54951	162.34961	701.13000	 47.60	
 12.013	142.081	153.58882	 27.72005	114.34660	100.42552	 36.88853	  4.60914	162.33372	701.10999	 47.60	
 12.006	123.113	153.88193	 39.67106	100.06927	114.19617	 28.80191	  4.34519	162.34557	701.69000	 47.60	
 12.007	104.200	154.02734	 56.00081	 82.98471	122.65487	 22.72379	  4.21992	162.33278	701.16998	 47.50	
 11.989	 85.301	154.38995	 73.29818	 64.57245	124.52048	 21.77234	  4.14765	162.32352	701.13000	 47.40	
 12.013	 66.294	154.23306	 90.01776	 47.88987	120.17117	 24.49858	  4.19270	162.31129	701.12000	 47.40	
 12.012	 47.388	154.22130	106.05180	 34.22794	109.49686	 32.67578	  4.28796	162.34198	701.13000	 47.30	
 11.990	 28.440	154.22932	118.11236	 24.59738	 94.26481	 43.48697	  4.48234	162.33372	701.15002	 47.30	
 11.991	  9.464	154.19745	125.01540	 19.51478	 76.80781	 59.93677	  4.66358	162.33742	701.16998	 47.30	
 11.991	 -9.464	154.23355	125.40511	 19.44734	 58.66528	 77.27837	  4.80688	162.32748	701.17999	 47.30	
 11.990	-28.440	154.11989	119.17316	 23.89195	 40.94872	 94.54723	  4.82568	162.36491	701.21002	 47.30	
 12.012	-47.388	153.69437	107.45779	 33.16503	 28.21473	109.62064	  4.87361	162.38086	701.20001	 47.20	
 12.013	-66.294	153.40799	 91.57722	 46.75227	 19.14586	121.06374	  4.82333	162.37180	701.20001	 47.20	
 11.989	-85.301	153.11438	 74.77090	 63.35717	 15.22348	125.92262	  4.70191	162.38289	701.10999	 47.20	
 12.007	-104.200	153.02867	 57.53243	 81.51015	 15.04268	124.65909	  4.70157	162.42731	701.12000	 47.20	
 12.006	-123.113	153.03392	 40.75005	 98.61549	 21.81975	116.74087	  4.69773	162.39969	701.16998	 47.20	
 12.013	-142.081	153.13176	 28.22365	113.55614	 32.06963	103.53728	  4.59518	162.41292	701.09998	 47.30	
 12.009	-161.059	153.28792	 21.16247	123.26946	 46.67344	 87.09491	  4.61998	162.44478	701.21997	 47.30	
 16.000	180.000	145.01271	 -2.05729	139.24509	 58.07759	 61.46946	  4.87487	162.42781	701.21997	 47.40	
 15.990	-165.604	144.82149	  0.07579	136.47498	 40.23663	 80.55431	  4.83251	162.43774	701.09003	 47.40	
 16.002	-151.165	144.66603	  6.24172	128.85194	 24.64749	 98.17342	  4.72269	162.43524	701.26001	 47.40	
 16.002	-136.836	144.68256	 15.94762	116.67001	 12.02415	113.68044	  4.83972	162.47760	701.12000	 47.50	
 15.995	-122.439	144.45438	 28.35053	101.06198	  2.45685	126.80111	  4.95727	162.47743	701.19000	 47.50	
 15.993	-107.966	144.49886	 41.92777	 83.36530	 -4.65148	135.39465	  4.90171	162.49475	701.10999	 47.50	
 16.005	-93.629	144.48111	 59.25542	 64.31691	 -6.74539	138.57895	  4.85911	162.48378	701.13000	 47.50	
 15.992	-79.234	144.72273	 77.24851	 48.22688	 -6.04208	137.54726	  4.89429	162.48006	701.16998	 47.50	
 16.009	-64.774	144.99614	 94.78734	 32.01878	 -0.07692	131.25410	  4.94325	162.44199	701.16998	 47.60	
 15.997	-50.364	145.59508	110.71834	 19.05172	  8.85091	119.83181	  5.07187	162.50635	701.21997	 47.60	
 15.997	-36.045	145.87372	124.23827	  8.76427	 20.47342	105.57533	  4.97162	162.48067	701.21002	 47.60	
 16.000	-21.597	146.13345	133.79007	  1.87032	 35.37172	 88.20746	  4.89334	162.46471	701.15997	 47.60	
 16.003	 -7.169	146.28857	137.99744	 -3.53921	 52.82748	 69.69659	  4.94768	162.43250	701.27002	 47.60	
 16.003	  7.169	146.23341	137.72926	 -3.52185	 70.27299	 52.13685	  4.84871	162.46957	701.12000	 47.60	
 16.000	 21.597	146.31454	132.66307	  0.21624	 88.69938	 38.12235	  4.78573	162.47832	701.21002	 47.60	
 15.997	 36.045	146.45618	122.55008	  9.43878	105.52643	 24.38628	  4.88172	162.42580	701.21997	 47.50	
 15.997	 50.364	146.32687	108.75489	 20.18651	120.13426	 13.38379	  4.86581	162.45201	701.21997	 47.60	
 16.009	 64.774	146.42992	 91.92223	 34.00459	130.69980	  5.79032	  4.77772	162.47577	701.29999	 47.60	
 15.992	 79.234	146.56670	 74.79609	 50.25201	136.61684	  1.89571	  4.71070	162.47745	701.23999	 47.60	
 16.005	 93.629	146.36546	 57.00344	 66.68619	137.64684	  1.17275	  4.84181	162.53796	701.28998	 47.50	
 15.993	107.966	146.29469	 39.50977	 85.74577	133.29150	  3.89980	  4.88894	162.49911	701.28998	 47.50	
 15.995	122.439	146.11133	 26.87609	103.21216	124.25423	 10.13782	  4.55277	162.50677	701.21002	 47.50	
 16.002	136.836	145.84650	 14.83846	118.51460	110.92992	 19.56964	  4.63196	162.57187	701.37000	 47.40	
 16.002	151.165	145.63309	  5.44213	130.04039	 94.27507	 32.00887	  5.08325	162.57843	701.28998	 47.40	
 15.990	165.604	145.54642	  0.00234	137.04398	 76.06895	 44.90453	  4.80123	162.59447	701.31000	 47.30	
 20.003	168.362	134.16264	-20.89749	147.74174	 67.03539	 38.57460	  4.65113	162.62462	701.27002	 47.40	
 20.008	156.764	134.41930	-17.16907	142.26967	 85.21732	 23.99953	  4.85020	162.61150	701.16998	 47.30	
 20.000	145.147	134.72769	-10.30943	132.62958	102.88972	  9.74792	  4.65925	162.63376	701.08002	 47.30	
 19.995	133.545	135.08794	 -0.71826	119.61858	118.96754	 -1.54110	  4.32059	162.65419	701.21002	 47.30	
 20.009	121.926	135.36365	 11.42729	103.73503	131.94385	-10.02941	  4.48712	162.66335	701.13000	 47.30	
 20.005	110.327	135.70583	 25.93648	 86.24524	141.57045	-15.82542	  4.68439	162.70827	701.15997	 47.30	
 19.989	 98.733	136.03568	 39.84179	 67.41832	146.97057	-18.93781	  4.63496	162.67332	701.25000	 47.40	
 19.999	 87.075	136.08424	 56.39947	 50.27588	148.43591	-19.75957	  4.56124	162.71155	701.27002	 47.40	
 19.992	 75.457	136.20419	 73.72584	 34.37052	145.73149	-18.11073	  4.51712	162.69691	702.04999	 47.40	
 20.009	 63.844	136.08249	 92.41611	 19.07546	139.08101	-13.98097	  4.54286	162.71542	701.97998	 47.50	
 19.989	 52.269	135.95949	109.62917	  5.67848	128.52734	 -6.93428	  4.56780	162.73946	701.31000	 47.50	
 19.999	 40.602	136.03369	124.04336	 -5.96960	114.47875	  2.59118	  4.63117	162.74785	702.13000	 47.50	
 20.004	 29.051	135.94374	136.38396	-16.04457	 97.79360	 14.89290	  4.64685	162.72369	701.90997	 47.60	
 20.005	 17.433	135.74771	144.15569	-21.66700	 80.11240	 29.97901	  4.58472	162.73029	701.28998	 47.60	
 20.006	  5.780	135.86826	148.27231	-24.57404	 61.52977	 46.08766	  4.67647	162.75362	701.39001	 47.50	
 20.006	 -5.780	136.00026	148.57460	-24.50683	 45.47853	 59.89920	  4.78936	162.75229	701.72998	 47.50	
 20.005	-17.433	135.87460	145.16466	-21.78692	 28.26295	 78.66753	  4.71244	162.73985	701.32001	 47.50	
 20.004	-29.051	135.51271	137.81885	-15.21488	 12.81631	 97.23740	  4.81132	162.76262	701.32001	 47.50	
 19.999	-40.602	135.05690	126.08679	 -6.75874	 -0.42518	114.00257	  4.79308	162.72682	701.31000	 47.40	
 19.989	-52.269	134.60138	112.02917	  4.14287	-11.08518	127.88211	  4.79024	162.69388	701.29999	 47.40	
 20.009	-63.844	133.94406	 95.25304	 17.07823	-19.10171	139.09096	  4.72682	162.69225	701.35999	 47.40	
 19.992	-75.457	133.42874	 76.78255	 32.07936	-24.24340	145.87051	  4.75715	162.71614	701.28998	 47.40	
 19.999	-87.075	133.07434	 58.87731	 48.59889	-27.04305	148.96222	  4.84402	162.73244	701.31000	 47.50	
 19.989	-98.733	132.86461	 43.85956	 64.80277	-26.25492	148.14095	  4.68186	162.73451	701.70001	 47.50	
 20.005	-110.327	132.95947	 28.61178	 83.35720	-23.03808	143.33881	  4.68207	162.72737	701.34003	 47.50	
 20.009	-121.926	133.13351	 13.56557	101.13076	-17.06700	134.83223	  4.72536	162.75061	701.28003	 47.50	
 19.995	-133.545	133.28099	  0.95445	117.22249	 -8.38996	121.85857	  4.70450	162.69771	701.32001	 47.50	
 20.000	-145.147	133.54005	 -8.94399	130.79167	  2.78567	107.13655	  4.65415	162.70087	701.25000	 47.50	
 20.008	-156.764	133.67816	-16.48184	141.04008	 16.52449	 89.98724	  4.55846	162.73700	701.17999	 47.50	
 20.003	-168.362	133.83649	-20.79265	147.40887	 32.55288	 70.89896	  4.68327	162.80283	701.17999	 47.40	
 20.000	180.000	134.00349	-22.28097	149.56830	 49.99118	 52.27485	  4.76491	162.77686	701.19000	 47.40	
