FileType=PCF
NHL=14
Date=03/11/19	11:22:51
Facility=APL
Serial=16071-5
Customer=NASA
NP=6
Mach=0.380000
Calibration=1:1
CalPts=490
TstPts=95
PortNumbering=AP Standard
Units=Torr C m/s kg/m^3 deg mm 
Theta[deg]	Phi[deg]	P1[Torr]	P2[Torr]	P3[Torr]	P4[Torr]	P5[Torr]	P6[Torr]	Pt[Torr]	Ps[Abs,Torr]	Ts[C]	
  0.000	  0.000	 67.16752	 29.07677	 29.36400	 30.69180	 27.38306	  1.46290	 67.03979	711.06000	 28.90	
  1.691	128.401	 67.10372	 26.30851	 31.50345	 33.35082	 24.51199	  1.37839	 67.04655	711.25000	 28.90	
  1.692	 77.194	 67.15467	 29.66604	 28.47311	 34.17575	 23.77979	  1.46944	 67.07520	711.13000	 29.00	
  1.699	 26.182	 67.20325	 32.27399	 26.06656	 32.32010	 25.65740	  1.52011	 67.10658	711.71002	 29.00	
  1.699	-26.182	 67.20270	 32.42366	 26.05757	 29.19769	 28.90648	  1.47979	 67.07541	711.06000	 29.10	
  1.692	-77.194	 67.23155	 30.01180	 28.64451	 27.26927	 31.03859	  1.38316	 67.10343	711.06000	 29.10	
  1.691	-128.401	 67.21177	 26.63134	 31.60627	 27.84158	 30.33724	  1.32687	 67.10252	711.10999	 29.10	
  1.700	180.000	 67.17444	 25.10045	 32.91745	 30.50945	 27.37643	  1.30571	 67.09443	711.00000	 29.20	
  3.400	180.000	 67.03840	 21.23476	 36.38666	 30.15696	 27.16711	  1.04578	 67.10779	711.09998	 29.20	
  3.388	-152.325	 67.12033	 22.25569	 35.58425	 26.94558	 30.69200	  1.04500	 67.12324	711.13000	 29.30	
  3.397	-124.529	 67.14442	 24.66052	 33.29640	 24.44574	 33.53618	  1.08007	 67.09316	711.09998	 29.30	
  3.399	-96.763	 67.19334	 28.20160	 30.12004	 23.36942	 34.84639	  1.13951	 67.12743	711.82001	 29.30	
  3.394	-69.283	 67.19836	 31.75746	 26.69515	 23.81983	 34.33958	  1.22032	 67.11703	711.14001	 29.40	
  3.400	-41.398	 67.21120	 34.57578	 23.68551	 25.85164	 32.13202	  1.33094	 67.14133	711.34998	 29.40	
  3.401	-14.021	 67.17688	 36.06528	 22.01245	 28.87130	 28.75640	  1.41725	 67.12222	711.02002	 29.50	
  3.401	 14.021	 67.15683	 35.90807	 22.00659	 32.32595	 25.20966	  1.46389	 67.14684	711.69000	 29.50	
  3.400	 41.398	 67.12278	 34.14171	 23.60154	 35.43456	 22.17349	  1.44836	 67.18990	710.96002	 29.60	
  3.394	 69.283	 67.03088	 31.06999	 26.42275	 37.42217	 20.17417	  1.37037	 67.13589	711.03003	 29.60	
  3.399	 96.763	 66.97040	 27.25719	 29.78795	 37.74717	 19.78842	  1.26528	 67.11113	711.03003	 29.70	
  3.397	124.529	 66.99828	 24.06187	 33.16528	 36.37644	 21.12944	  1.17886	 67.15622	711.09998	 29.70	
  3.388	152.325	 67.01476	 21.89666	 35.52721	 33.55106	 23.82218	  1.08238	 67.15109	711.83002	 29.70	
  5.099	161.165	 66.61735	 17.69578	 39.14914	 33.12670	 23.25780	  0.68424	 67.16199	711.84003	 29.80	
  5.109	142.013	 66.56373	 19.16688	 37.33538	 36.53027	 19.98178	  0.74144	 67.17537	711.09998	 29.80	
  5.095	123.033	 66.52569	 21.65089	 34.53126	 39.12568	 17.46000	  0.84840	 67.15372	711.08002	 29.80	
  5.105	104.191	 66.56852	 24.84056	 31.18303	 40.74541	 15.97704	  0.92824	 67.18154	711.51001	 29.90	
  5.093	 85.207	 66.59721	 28.64608	 27.58662	 41.12463	 15.65589	  1.03996	 67.15906	711.71997	 29.90	
  5.104	 66.290	 66.63709	 32.37826	 24.13214	 40.33387	 16.40413	  1.12837	 67.15601	711.81000	 29.90	
  5.094	 47.331	 66.71912	 35.55206	 21.15402	 38.37075	 18.36906	  1.20083	 67.17967	711.35999	 30.00	
  5.089	 28.397	 66.82433	 37.93233	 19.09400	 35.50785	 21.25944	  1.25946	 67.21189	710.97998	 30.00	
  5.096	  9.576	 66.89860	 39.32464	 18.03686	 32.07836	 24.67056	  1.25346	 67.19495	711.04999	 30.10	
  5.096	 -9.576	 66.99197	 39.52137	 18.13497	 28.59245	 28.27204	  1.21057	 67.20792	710.98999	 30.10	
  5.089	-28.397	 67.04448	 38.42775	 19.36225	 25.24752	 31.97251	  1.13046	 67.19209	711.07001	 30.10	
  5.094	-47.331	 67.10030	 36.31071	 21.43306	 22.40153	 35.13552	  1.03732	 67.22897	711.06000	 30.20	
  5.104	-66.290	 67.08254	 33.38760	 24.44108	 20.40089	 37.43033	  0.93192	 67.19697	710.96002	 30.20	
  5.093	-85.207	 67.07253	 29.85069	 27.92829	 19.61214	 38.36435	  0.83972	 67.20267	711.04999	 30.20	
  5.105	-104.191	 67.06755	 25.90329	 31.52339	 19.75593	 38.14660	  0.76841	 67.21886	710.95001	 30.30	
  5.095	-123.033	 66.99550	 22.54995	 34.77751	 21.00586	 36.51400	  0.70880	 67.21063	710.90997	 30.30	
  5.109	-142.013	 66.92885	 19.84929	 37.50093	 23.25484	 33.91586	  0.67218	 67.21073	711.03003	 30.30	
  5.099	-161.165	 66.86768	 18.07070	 39.29137	 26.35089	 30.40803	  0.63818	 67.21754	710.94000	 30.40	
  5.100	180.000	 66.76444	 17.32769	 39.83145	 29.70505	 26.77359	  0.66607	 67.19563	710.91998	 30.40	
  6.800	180.000	 66.14055	 13.38651	 43.13637	 28.98265	 26.18367	  0.18512	 67.17876	711.06000	 30.40	
  6.796	-166.229	 66.25700	 13.92159	 42.80952	 25.68056	 29.73736	  0.15936	 67.21375	711.00000	 30.40	
  6.808	-152.311	 66.34823	 15.20229	 41.45504	 22.49525	 33.36226	  0.17973	 67.22250	711.03998	 30.50	
  6.795	-138.383	 66.46910	 17.21241	 39.31425	 19.80704	 36.48410	  0.21654	 67.25948	711.00000	 30.50	
  6.792	-124.591	 66.52689	 19.84019	 36.58287	 17.74352	 39.03259	  0.23840	 67.23161	711.12000	 30.60	
  6.787	-110.754	 66.60362	 22.98552	 33.43187	 16.31973	 40.70796	  0.28387	 67.24052	711.07001	 30.60	
  6.800	-96.985	 66.65297	 26.41056	 30.04402	 15.59858	 41.60176	  0.32843	 67.25308	711.09003	 30.60	
  6.800	-83.015	 66.69806	 30.29083	 26.50596	 15.63384	 41.58922	  0.38312	 67.27380	711.14001	 30.60	
  6.787	-69.246	 66.64324	 33.73909	 23.06717	 16.42960	 40.61894	  0.46400	 67.19289	711.10999	 30.60	
  6.792	-55.409	 66.67923	 36.84353	 20.02871	 18.03080	 38.91660	  0.57901	 67.24944	711.06000	 30.70	
  6.795	-41.617	 66.66574	 39.46464	 17.64987	 20.30123	 36.25777	  0.62605	 67.25675	711.17999	 30.70	
  6.808	-27.689	 66.62707	 41.46552	 15.60887	 23.20132	 33.03647	  0.73576	 67.24840	711.15002	 30.70	
  6.796	-13.771	 66.56295	 42.30165	 14.47651	 26.46963	 29.39906	  0.83382	 67.25283	711.09998	 30.70	
  6.800	  0.000	 66.48267	 42.57745	 14.01335	 29.83077	 25.87485	  0.87877	 67.26099	711.06000	 30.80	
  6.796	 13.771	 66.41430	 41.96439	 14.38024	 33.21553	 22.37163	  0.91501	 67.30052	711.00000	 30.80	
  6.808	 27.689	 66.27804	 40.76730	 15.51074	 36.60230	 18.92209	  0.91286	 67.27665	711.10999	 30.80	
  6.795	 41.617	 66.19582	 38.45030	 17.36044	 39.53266	 16.12728	  0.86630	 67.26471	711.09998	 30.80	
  6.792	 55.409	 66.17017	 35.70517	 19.79954	 41.87458	 14.07224	  0.78888	 67.30260	711.15002	 30.90	
  6.787	 69.246	 66.07029	 32.38186	 22.79808	 43.50046	 12.63625	  0.71629	 67.23792	711.10999	 30.90	
  6.800	 83.015	 66.07082	 28.53671	 26.17381	 44.37033	 11.87455	  0.64100	 67.28554	711.09003	 30.90	
  6.800	 96.985	 65.99742	 24.91338	 29.69834	 44.29380	 11.81512	  0.51751	 67.28073	711.02002	 31.00	
  6.787	110.754	 65.98632	 21.64388	 33.13945	 43.26831	 12.66229	  0.45772	 67.28999	711.04999	 31.00	
  6.792	124.591	 65.95311	 18.67829	 36.35115	 41.43707	 14.15756	  0.38670	 67.27453	711.08002	 31.00	
  6.795	138.383	 65.97295	 16.33362	 38.97838	 38.95983	 16.29994	  0.31159	 67.27661	711.08002	 31.10	
  6.808	152.311	 66.03329	 14.60517	 41.27945	 35.85384	 19.28901	  0.23075	 67.26938	711.10999	 31.10	
  6.796	166.229	 66.13579	 13.66081	 42.69057	 32.42171	 22.71685	  0.11038	 67.29202	711.15997	 31.10	
  8.491	168.704	 65.25212	  9.65017	 45.88043	 31.64297	 21.73220	 -0.66929	 67.27566	711.01001	 31.10	
  8.502	157.493	 65.18696	 10.46892	 44.71962	 35.12107	 18.16772	 -0.55598	 67.31416	711.06000	 31.10	
  8.494	146.194	 65.07202	 11.83014	 42.77575	 38.44183	 15.12887	 -0.25725	 67.24832	711.15997	 31.10	
  8.495	135.039	 65.03308	 13.73226	 40.27691	 41.37782	 12.64734	 -0.27622	 67.24712	711.16998	 31.20	
  8.487	123.723	 65.02695	 16.15596	 37.37090	 43.91041	 10.55595	 -0.11875	 67.27786	711.02002	 31.20	
  8.492	112.575	 65.02133	 18.96306	 34.20809	 45.78004	  9.07472	 -0.40173	 67.27818	711.14001	 31.20	
  8.510	101.220	 65.08166	 22.24530	 30.70693	 46.99611	  8.11242	  0.01058	 67.29755	711.15002	 31.20	
  8.500	 90.000	 65.11999	 25.74918	 27.13308	 47.39109	  7.84792	  0.06375	 67.25687	711.10999	 31.30	
  8.510	 78.780	 65.15899	 29.52089	 23.60168	 47.10860	  8.17795	  0.19952	 67.23573	711.13000	 31.30	
  8.492	 67.425	 65.26326	 33.36211	 20.29609	 46.06338	  9.16705	  0.28037	 67.28493	711.16998	 31.30	
  8.487	 56.277	 65.30948	 36.66684	 17.36968	 44.29934	 10.65764	  0.35036	 67.28038	711.09003	 31.30	
  8.495	 44.961	 65.36784	 39.61086	 14.86406	 41.90168	 12.71525	  0.42668	 67.26070	711.09003	 31.30	
  8.494	 33.806	 65.45375	 42.14455	 12.85700	 39.15676	 15.16171	  0.51254	 67.28317	711.09003	 31.30	
  8.502	 22.507	 65.51349	 43.84540	 11.28962	 35.91094	 18.05953	  0.36878	 67.26414	711.10999	 31.30	
  8.491	 11.296	 65.65314	 45.16462	 10.40300	 32.48900	 21.50409	  0.51150	 67.29895	711.15002	 31.30	
  8.500	  0.000	 65.75525	 45.76529	 10.05418	 29.03033	 25.18272	  0.46284	 67.30120	711.06000	 31.40	
  8.491	-11.296	 65.84077	 45.53745	 10.44687	 25.61645	 28.75931	  0.41013	 67.26815	710.94000	 31.40	
  8.502	-22.507	 65.93147	 44.59265	 11.42365	 22.31991	 32.39947	  0.29362	 67.27334	711.06000	 31.40	
  8.494	-33.806	 66.02140	 42.84752	 12.97694	 19.30379	 35.85794	  0.08341	 67.29860	711.03003	 31.40	
  8.495	-44.961	 66.01926	 40.84878	 14.98244	 16.68572	 38.90062	  0.07048	 67.28306	711.09003	 31.40	
  8.487	-56.277	 66.04775	 38.11462	 17.63184	 14.60604	 41.38953	  0.02006	 67.28888	711.04999	 31.40	
  8.492	-67.425	 66.04261	 35.00714	 20.60520	 12.96148	 43.23332	 -0.07645	 67.29739	711.04999	 31.40	
  8.510	-78.780	 66.01679	 31.48024	 23.95764	 11.86140	 43.99709	 -0.15590	 67.28720	711.03003	 31.50	
  8.500	-90.000	 66.00193	 27.56376	 27.56069	 11.54435	 44.37144	 -0.19496	 67.31242	711.09003	 31.50	
  8.510	-101.220	 65.93930	 24.00624	 31.10938	 11.80984	 43.98283	 -0.25832	 67.28527	711.03003	 31.50	
  8.492	-112.575	 65.89640	 20.50583	 34.56465	 12.72286	 43.30287	 -0.30275	 67.28856	710.96002	 31.50	
  8.487	-123.723	 65.80500	 17.44870	 37.71720	 14.18616	 41.53328	 -0.38744	 67.24681	711.33002	 31.50	
  8.495	-135.039	 65.77146	 14.83395	 40.64634	 16.08141	 39.13981	 -0.46093	 67.29242	711.06000	 31.50	
  8.494	-146.194	 65.66090	 12.69414	 43.07793	 18.51761	 36.13342	 -0.48718	 67.28241	710.97998	 31.50	
  8.502	-157.493	 65.54196	 11.00319	 44.94567	 21.48222	 32.65772	 -0.39156	 67.25997	711.02002	 31.60	
  8.491	-168.704	 65.44711	  9.95216	 46.03646	 24.76355	 28.95501	 -0.41217	 67.26138	711.09998	 31.60	
  8.500	180.000	 65.37232	  9.43545	 46.40213	 28.18125	 25.37457	 -0.37595	 67.29144	711.06000	 31.60	
 10.200	180.000	 64.21996	  5.42654	 49.25051	 27.14443	 24.31046	 -1.18905	 67.25527	711.09998	 31.60	
 10.191	-170.497	 64.39861	  5.90723	 49.00853	 23.70546	 28.05133	 -1.20697	 67.32790	711.06000	 31.60	
 10.210	-161.034	 64.46059	  6.80124	 48.08622	 20.28257	 31.79943	 -1.31363	 67.27718	711.03998	 31.60	
 10.194	-151.526	 64.58819	  8.26304	 46.55517	 17.19590	 35.46228	 -1.19629	 67.30668	711.07001	 31.60	
 10.190	-142.105	 64.69594	 10.08148	 44.40923	 14.64486	 38.57298	 -1.10271	 67.30152	710.97998	 31.70	
 10.215	-132.646	 64.76577	 12.32655	 41.75209	 12.19732	 41.58528	 -1.12437	 67.30220	711.02002	 31.70	
 10.203	-123.092	 64.83082	 15.06272	 38.66113	 10.26283	 43.91659	 -1.12079	 67.28923	711.04999	 31.70	
 10.192	-113.678	 64.87427	 18.06466	 35.40888	  8.93310	 45.38848	 -0.90996	 67.24576	711.09003	 31.70	
 10.208	-104.249	 64.92368	 21.31511	 32.01162	  8.04906	 46.70464	 -0.82292	 67.25104	711.15002	 31.70	
 10.210	-94.801	 64.98807	 24.93038	 28.42058	  7.68666	 47.34427	 -0.84247	 67.26939	711.09003	 31.70	
 10.210	-85.199	 65.05476	 28.66899	 24.67820	  7.77326	 47.36271	 -0.74904	 67.30004	711.07001	 31.70	
 10.208	-75.751	 65.05109	 32.59033	 21.20069	  8.22617	 46.64487	 -0.91443	 67.27488	711.09003	 31.70	
 10.192	-66.322	 65.09499	 36.06676	 17.91120	  9.29533	 45.27719	 -0.88649	 67.27615	711.12000	 31.70	
 10.203	-56.908	 65.16518	 39.24175	 14.98696	 10.91490	 43.74115	 -0.77866	 67.31766	710.96997	 31.80	
 10.215	-47.354	 65.11612	 42.06525	 12.34181	 12.93369	 41.35467	 -0.71328	 67.28677	711.09998	 31.80	
 10.190	-37.895	 65.13456	 44.36626	 10.20172	 15.54480	 38.24776	 -0.65743	 67.33972	711.08002	 31.80	
 10.194	-28.474	 65.06245	 46.34828	  8.48064	 18.23227	 35.05541	 -0.41141	 67.29572	711.03998	 31.80	
 10.210	-18.966	 64.94509	 47.75250	  7.15899	 21.41767	 31.39893	 -0.24605	 67.26910	711.01001	 31.80	
 10.191	 -9.503	 64.87971	 48.50400	  6.48738	 24.90202	 27.69228	 -0.13813	 67.30880	711.04999	 31.80	
 10.200	  0.000	 64.71364	 48.60491	  6.14117	 28.36774	 23.90641	 -0.12887	 67.26268	711.06000	 31.80	
 10.191	  9.503	 64.62055	 48.10866	  6.37328	 31.87934	 20.18999	 -0.00939	 67.29903	711.09003	 31.80	
 10.210	 18.966	 64.50140	 47.00118	  7.13207	 35.31902	 16.84787	 -0.13045	 67.30470	711.03998	 31.90	
 10.194	 28.474	 64.37572	 45.19604	  8.41605	 38.69068	 13.78557	 -0.04757	 67.27962	710.97998	 31.90	
 10.190	 37.895	 64.30238	 43.06467	 10.08656	 41.78758	 11.07290	 -0.07021	 67.28546	711.02002	 31.90	
 10.215	 47.354	 64.20276	 40.41208	 12.13751	 44.58213	  8.63518	 -0.23566	 67.30017	710.92999	 31.90	
 10.203	 56.908	 64.14845	 37.36243	 14.68350	 46.86822	  6.71989	 -0.86555	 67.29927	711.03998	 31.90	
 10.192	 66.322	 64.07137	 33.97305	 17.54759	 48.52078	  6.40506	 -0.96336	 67.27591	710.96997	 31.90	
 10.208	 75.751	 64.02501	 30.24726	 20.80532	 49.70468	  5.40248	 -0.56903	 67.26871	711.04999	 31.90	
 10.210	 85.199	 63.97923	 26.43211	 24.21970	 50.24863	  4.96557	 -0.53686	 67.26459	711.12000	 32.00	
 10.210	 94.801	 63.93800	 22.83711	 27.94942	 50.20265	  4.88043	 -1.12052	 67.30383	711.12000	 32.00	
 10.208	104.249	 63.86494	 19.36938	 31.62196	 49.46984	  5.30533	 -0.63800	 67.30025	711.00000	 32.00	
 10.192	113.678	 63.84166	 16.22902	 35.03496	 48.13582	  6.30175	 -1.15111	 67.26676	711.01001	 32.00	
 10.203	123.092	 63.86725	 13.39734	 38.27082	 46.29590	  7.66660	 -0.82748	 67.29122	711.01001	 32.00	
 10.215	132.646	 63.88754	 10.97294	 41.38689	 43.83142	  8.71538	 -0.97224	 67.29368	711.10999	 32.00	
 10.190	142.105	 63.92723	  8.96742	 44.07470	 40.89310	 11.10748	 -1.26826	 67.30003	711.08002	 32.10	
 10.194	151.526	 63.96010	  7.34922	 46.21074	 37.69422	 13.82459	 -1.38978	 67.28392	711.04999	 32.10	
 10.210	161.034	 64.03451	  6.15818	 47.83044	 34.26780	 16.91974	 -1.38578	 67.27029	710.97998	 32.10	
 10.191	170.497	 64.13382	  5.59407	 48.81103	 30.74865	 20.43252	 -1.33812	 67.25797	711.01001	 32.10	
 11.899	171.783	 62.76494	  1.41113	 51.54882	 29.57671	 19.32974	 -1.86181	 67.27320	711.01001	 32.10	
 11.890	163.610	 62.68035	  2.01193	 50.65330	 33.12608	 15.82752	 -1.92647	 67.27162	711.06000	 32.20	
 11.889	155.445	 62.59171	  3.03121	 49.24454	 36.51496	 12.66635	 -1.97795	 67.24961	711.01001	 32.20	
 11.909	147.299	 62.51764	  4.34302	 47.39954	 39.89079	  9.72218	 -1.99039	 67.25187	711.07001	 32.20	
 11.902	139.148	 62.47174	  5.99345	 45.06609	 43.07252	  8.14129	 -1.92897	 67.27205	711.14001	 32.20	
 11.894	130.867	 62.46189	  8.12201	 42.17859	 45.91198	  6.00005	 -1.84404	 67.28077	711.04999	 32.20	
 11.897	122.732	 62.52014	 10.63615	 39.05011	 48.23132	  4.35041	 -1.84957	 67.29291	711.02002	 32.20	
 11.903	114.597	 62.44465	 13.39583	 35.75121	 50.11869	  2.92635	 -1.88974	 67.24944	711.04999	 32.20	
 11.893	106.346	 62.46939	 16.52341	 32.29001	 51.58818	  1.86641	 -1.96359	 67.26688	710.96002	 32.30	
 11.892	 98.155	 62.50590	 19.91936	 28.55792	 52.54243	  1.16326	 -1.39319	 67.26891	711.13000	 32.30	
 11.900	 90.000	 62.55239	 23.37658	 24.81950	 52.94699	  0.95529	 -1.79149	 67.25088	711.10999	 32.30	
 11.892	 81.845	 62.62715	 26.92001	 21.43353	 52.73783	  1.24951	 -1.67635	 67.24732	711.08002	 32.30	
 11.893	 73.654	 62.63264	 30.74878	 17.88177	 51.99762	  1.83674	 -1.63642	 67.24372	711.06000	 32.30	
 11.903	 65.403	 62.66091	 34.53516	 14.71998	 50.74937	  2.62180	 -1.64714	 67.25629	711.07001	 32.30	
 11.897	 57.268	 62.73117	 37.91179	 11.89812	 49.00127	  4.15066	 -1.66586	 67.28395	711.03003	 32.30	
 11.894	 49.133	 62.75271	 41.00058	  9.33627	 46.81837	  5.89018	 -1.54609	 67.24619	711.03003	 32.30	
 11.902	 40.852	 62.84750	 43.71988	  7.16067	 44.07821	  8.14169	 -1.20217	 67.24527	711.15997	 32.30	
 11.909	 32.701	 62.96035	 46.31604	  5.43701	 41.00998	 10.67415	 -1.14240	 67.23170	711.06000	 32.30	
 11.889	 24.555	 63.11702	 48.33864	  4.16283	 37.72622	 12.57726	 -1.11887	 67.26714	711.03003	 32.30	
 11.890	 16.390	 63.20672	 49.83127	  3.11669	 34.26290	 15.72446	 -1.15666	 67.23847	710.94000	 32.30	
 11.899	  8.217	 63.32373	 50.85057	  2.40008	 30.78568	 19.11702	 -1.12883	 67.23379	711.00000	 32.40	
 11.900	  0.000	 63.44880	 51.32425	  2.10810	 27.25421	 22.65470	 -1.09761	 67.24242	711.09003	 32.40	
 11.899	 -8.217	 63.56548	 51.24416	  2.31430	 23.68386	 26.51987	 -0.93366	 67.23127	711.01001	 32.40	
 11.890	-16.390	 63.68055	 50.55638	  3.02351	 20.16977	 30.32537	 -1.17175	 67.22510	711.06000	 32.40	
 11.889	-24.555	 63.78978	 49.41590	  4.05740	 16.98706	 34.02185	 -1.19437	 67.24940	711.02002	 32.40	
 11.909	-32.701	 63.83093	 47.78263	  5.41509	 14.07510	 37.44711	 -1.39344	 67.25426	711.00000	 32.40	
 11.902	-40.852	 63.90253	 45.57827	  7.33760	 11.46252	 40.62484	 -1.37822	 67.25359	710.96997	 32.40	
 11.894	-49.133	 63.91158	 43.09669	  9.67984	  9.27053	 43.43228	 -1.35692	 67.23728	710.85999	 32.40	
 11.897	-57.268	 63.93396	 40.12078	 12.29780	  7.43878	 45.40181	 -1.40767	 67.22122	710.96997	 32.40	
 11.903	-65.403	 63.95096	 37.00289	 15.22092	  6.03787	 47.38073	 -1.49313	 67.23039	710.87000	 32.40	
 11.893	-73.654	 63.91266	 33.51683	 18.42489	  5.00093	 48.80165	 -1.52684	 67.21324	710.91998	 32.40	
 11.892	-81.845	 63.87732	 29.59312	 21.91296	  4.28045	 49.65851	 -1.48782	 67.20622	710.90997	 32.40	
 11.900	-90.000	 63.81632	 25.83414	 25.43619	  3.94649	 50.03495	 -1.34918	 67.22177	710.92999	 32.40	
 11.892	-98.155	 63.76210	 22.18453	 29.14431	  4.10921	 49.73493	 -1.45331	 67.20085	710.97998	 32.40	
 11.893	-106.346	 63.72593	 18.69329	 32.76221	  4.57389	 48.88270	 -1.50338	 67.22456	710.92999	 32.50	
 11.903	-114.597	 63.65968	 15.47850	 36.20723	  5.49948	 47.49047	 -1.59269	 67.21374	711.09003	 32.50	
 11.897	-122.732	 63.58563	 12.53129	 39.50847	  6.83704	 45.55751	 -1.62905	 67.21883	711.13000	 32.50	
 11.894	-130.867	 63.50279	  9.84166	 42.61763	  8.55731	 43.52859	 -1.61337	 67.22774	711.16998	 32.50	
 11.902	-139.148	 63.42976	  7.45124	 45.42991	 10.70196	 40.75625	 -1.59173	 67.21694	711.03003	 32.50	
 11.909	-147.299	 63.31442	  5.48912	 47.79174	 13.31864	 37.56791	 -1.67274	 67.23178	711.06000	 32.50	
 11.889	-155.445	 63.21591	  3.88403	 49.59975	 16.12387	 34.14450	 -1.81359	 67.25236	711.06000	 32.50	
 11.890	-163.610	 63.08411	  2.58110	 50.91844	 19.18660	 30.36985	 -1.88616	 67.24235	711.06000	 32.50	
 11.899	-171.783	 62.94650	  1.68237	 51.71264	 22.62202	 26.61240	 -1.93070	 67.25117	711.07001	 32.50	
 11.900	180.000	 62.82493	  1.31188	 51.90133	 26.16826	 22.79985	 -1.90203	 67.23219	710.98999	 32.50	
 13.600	180.000	 61.18517	 -1.66635	 54.39573	 24.73627	 21.48014	 -2.30621	 67.21677	711.06000	 32.60	
 13.608	-172.853	 61.30122	 -1.38646	 54.27262	 21.24274	 25.12195	 -2.29518	 67.21864	711.09003	 32.60	
 13.611	-165.583	 61.44601	 -0.64463	 53.60462	 17.77665	 29.05291	 -2.27384	 67.24087	711.15997	 32.60	
 13.601	-158.353	 61.59869	  0.53328	 52.41261	 14.71338	 32.84282	 -2.17555	 67.24153	711.08002	 32.60	
 13.609	-151.210	 61.72976	  2.00538	 50.77892	 11.83318	 36.42613	 -2.02037	 67.21719	711.13000	 32.60	
 13.611	-143.999	 61.82691	  3.66295	 48.68714	  9.09683	 39.77136	 -1.90761	 67.20728	711.17999	 32.60	
 13.601	-136.825	 61.94213	  5.68028	 46.16171	  6.71582	 42.95079	 -1.88589	 67.21771	711.10999	 32.60	
 13.596	-129.640	 62.04326	  7.22763	 43.28769	  4.81908	 45.31627	 -1.87471	 67.22958	711.21002	 32.60	
 13.611	-122.431	 62.11261	  9.89473	 40.11197	  3.11218	 47.70835	 -1.86435	 67.22848	711.03003	 32.60	
 13.604	-115.211	 62.17043	 12.82806	 36.75084	  1.74284	 49.67437	 -1.83782	 67.23244	711.13000	 32.60	
 13.595	-108.042	 62.26571	 15.99840	 33.32811	  0.80267	 51.12296	 -1.76528	 67.24669	711.08002	 32.60	
 13.607	-100.793	 62.27127	 19.34932	 29.69461	  0.18928	 52.09772	 -1.69938	 67.23317	711.08002	 32.70	
 13.601	-93.617	 62.32891	 22.91418	 25.94670	 -0.07431	 52.57680	 -1.67932	 67.23737	711.09003	 32.70	
 13.601	-86.383	 62.36876	 26.54972	 22.35697	 -0.05030	 52.61094	 -1.71286	 67.22746	711.04999	 32.70	
 13.607	-79.207	 62.40824	 30.29581	 18.84376	  0.38651	 52.09334	 -1.80918	 67.21832	710.98999	 32.70	
 13.595	-71.958	 62.49737	 34.26324	 15.51468	  1.24509	 51.06844	 -1.87706	 67.24165	711.04999	 32.70	
 13.604	-64.789	 62.51527	 37.67941	 12.42549	  2.29993	 49.60331	 -1.86003	 67.23322	711.14001	 32.70	
 13.611	-57.569	 62.51440	 40.89936	  9.47692	  3.71829	 47.56968	 -1.80393	 67.22276	711.03998	 32.70	
 13.596	-50.360	 62.54382	 43.92906	  6.90029	  5.58835	 45.42625	 -1.79302	 67.25419	711.04999	 32.70	
 13.601	-43.175	 62.52299	 46.51699	  4.61089	  7.70669	 42.73771	 -1.85153	 67.24993	711.03998	 32.70	
 13.611	-36.001	 62.52591	 48.90424	  2.73314	 10.19360	 39.49400	 -1.87031	 67.25848	711.09998	 32.70	
 13.609	-28.790	 62.48588	 50.82049	  1.15751	 13.09220	 36.05983	 -1.81199	 67.24526	711.10999	 32.70	
 13.601	-21.647	 62.40822	 52.26130	 -0.12462	 16.16166	 32.33536	 -1.72717	 67.24664	711.09003	 32.80	
 13.611	-14.417	 62.25895	 53.28122	 -1.18535	 19.29312	 28.61153	 -1.67828	 67.24714	711.09003	 32.80	
 13.608	 -7.147	 62.09116	 53.76981	 -1.83601	 22.79678	 24.67961	 -1.66079	 67.23751	711.06000	 32.80	
 13.600	  0.000	 61.93835	 53.76937	 -2.06451	 26.40076	 21.01072	 -1.74190	 67.23099	711.09998	 32.80	
 13.608	  7.147	 61.77055	 53.37472	 -1.96361	 29.90980	 17.47543	 -1.86191	 67.21964	711.03003	 32.80	
 13.611	 14.417	 61.60367	 52.47289	 -1.49555	 33.40890	 14.02285	 -1.87690	 67.20464	711.09998	 32.80	
 13.601	 21.647	 61.55025	 51.08288	 -0.72953	 36.91986	 10.81515	 -1.79011	 67.28006	710.96002	 32.80	
 13.609	 28.790	 61.39470	 49.24685	  0.40612	 40.32798	  8.87615	 -1.77127	 67.27889	711.06000	 32.80	
 13.611	 36.001	 61.24166	 46.91466	  1.91460	 43.53709	  6.16217	 -1.83409	 67.26738	710.96002	 32.80	
 13.601	 43.175	 61.09831	 44.11558	  3.76018	 46.47626	  3.55335	 -2.04151	 67.25990	711.13000	 32.90	
 13.596	 50.360	 60.97795	 41.37437	  6.41025	 48.95662	  1.53576	 -2.27995	 67.20747	711.06000	 32.90	
 13.611	 57.569	 60.92464	 38.18381	  8.90498	 51.21310	 -0.20147	 -2.42693	 67.21539	711.09003	 32.90	
 13.604	 64.789	 60.90350	 34.70966	 11.72721	 52.99955	 -1.55186	 -2.41442	 67.24792	711.10999	 32.90	
 13.595	 71.958	 60.88422	 30.84002	 14.79278	 54.27389	 -2.50816	 -2.35982	 67.23633	711.14001	 32.90	
 13.607	 79.207	 60.79023	 27.09435	 18.03714	 55.14986	 -3.31066	 -2.43290	 67.21397	711.20001	 32.90	
 13.601	 86.383	 60.73618	 23.53094	 21.61492	 55.55481	 -3.61008	 -2.49361	 67.22385	711.06000	 32.90	
 13.601	 93.617	 60.68946	 20.01177	 25.05680	 55.48034	 -3.51162	 -2.55476	 67.25307	711.09998	 32.90	
 13.607	100.793	 60.58484	 16.58182	 28.79818	 54.88816	 -3.03816	 -2.64462	 67.20460	711.00000	 32.90	
 13.595	108.042	 60.59378	 13.34606	 32.55308	 53.83764	 -2.18120	 -2.66404	 67.23423	711.07001	 32.90	
 13.604	115.211	 60.57474	 10.29642	 36.05207	 52.28297	 -1.12748	 -2.59691	 67.20274	711.15002	 32.90	
 13.611	122.431	 60.62000	  7.48156	 39.38339	 50.32750	  0.09515	 -2.52432	 67.21424	711.09003	 32.90	
 13.596	129.640	 60.59598	  5.90552	 42.62310	 48.00509	  1.64317	 -2.52677	 67.23501	711.12000	 32.90	
 13.601	136.825	 60.59499	  3.81567	 45.57735	 45.35789	  3.67409	 -2.59921	 67.22106	711.14001	 32.90	
 13.611	143.999	 60.59929	  2.04585	 48.16591	 42.31369	  6.07719	 -2.68521	 67.20994	711.10999	 32.90	
 13.609	151.210	 60.68200	  0.66104	 50.33200	 38.95676	  8.82116	 -2.69206	 67.18526	711.09003	 32.90	
 13.601	158.353	 60.78135	 -0.47725	 51.99742	 35.54516	 11.70725	 -2.63288	 67.20892	711.09998	 32.90	
 13.611	165.583	 60.89247	 -1.25745	 53.28598	 32.11761	 14.06153	 -2.48910	 67.21133	711.16998	 32.90	
 13.608	172.853	 61.04845	 -1.70091	 54.13182	 28.53335	 17.62803	 -2.40273	 67.24373	711.13000	 32.90	
 15.298	173.587	 59.20389	 -5.42181	 56.41510	 26.98832	 16.23819	 -2.68410	 67.19128	711.10999	 32.90	
 15.291	167.167	 59.10449	 -4.88661	 55.69223	 30.54730	 12.80380	 -2.82884	 67.21380	711.06000	 32.90	
 15.307	160.676	 58.96883	 -4.28687	 54.59387	 33.97842	 10.38767	 -3.01967	 67.21733	711.12000	 32.90	
 15.300	154.261	 58.84597	 -3.41148	 53.02263	 37.35696	  7.35051	 -3.13374	 67.19066	711.17999	 33.00	
 15.288	147.854	 58.81662	 -2.14690	 51.05745	 40.80426	  4.67868	 -3.21007	 67.19518	711.08002	 33.00	
 15.293	141.428	 58.77750	 -0.78374	 48.69461	 44.04821	  2.16454	 -3.18018	 67.21828	711.15002	 33.00	
 15.299	134.985	 58.76233	  0.90439	 46.01376	 47.01162	 -0.14965	 -3.10233	 67.24583	711.15002	 33.00	
 15.305	128.583	 58.69024	  3.03712	 42.94460	 49.58397	 -2.25426	 -3.08741	 67.17629	711.27002	 32.90	
 15.309	122.142	 58.69288	  5.44385	 39.69000	 52.00317	 -4.02185	 -3.11763	 67.19700	711.16998	 33.00	
 15.304	115.711	 58.69070	  8.14180	 36.31471	 53.97449	 -5.24607	 -3.21371	 67.20692	711.14001	 33.00	
 15.297	109.291	 58.69027	 10.97420	 32.79579	 55.57510	 -6.26546	 -3.30708	 67.20237	710.97998	 33.00	
 15.293	102.897	 58.72088	 13.35344	 29.09348	 56.74538	 -7.12027	 -3.30903	 67.20461	711.06000	 33.00	
 15.293	 96.458	 58.76614	 16.75367	 25.33683	 57.41137	 -7.69079	 -3.24860	 67.18510	711.09003	 33.00	
 15.300	 90.000	 58.80364	 20.22518	 21.73452	 57.72559	 -7.81261	 -3.18012	 67.16923	711.00000	 33.00	
 15.293	 83.542	 58.92272	 23.72098	 18.29193	 57.62284	 -7.47863	 -3.14278	 67.21429	711.01001	 33.00	
 15.293	 77.103	 58.96478	 27.27998	 14.94643	 57.07583	 -7.08199	 -3.08691	 67.21120	711.15997	 33.00	
 15.297	 70.709	 59.03283	 30.87424	 11.85075	 56.12253	 -6.29348	 -3.04355	 67.21832	711.13000	 33.00	
 15.304	 64.289	 59.07693	 34.80757	  8.90579	 54.76077	 -5.28691	 -3.06974	 67.23275	711.04999	 33.00	
 15.309	 57.858	 59.10827	 38.39874	  6.11803	 52.89560	 -3.91503	 -3.10036	 67.20895	711.01001	 33.00	
 15.305	 51.417	 59.17727	 41.64916	  3.57302	 50.69413	 -2.26232	 -2.94398	 67.21344	711.13000	 33.00	
 15.299	 45.015	 59.25549	 44.42559	  1.18123	 48.27009	 -0.35024	 -2.74516	 67.25591	711.10999	 33.00	
 15.293	 38.572	 59.31451	 47.25067	 -0.94840	 45.43979	  1.89111	 -2.55520	 67.18313	711.12000	 33.10	
 15.288	 32.146	 59.48534	 49.80398	 -2.49127	 42.30170	  4.41913	 -2.40133	 67.22615	711.14001	 33.10	
 15.300	 25.739	 59.61885	 51.89467	 -3.70908	 38.92869	  7.25451	 -2.34959	 67.21551	711.21997	 33.10	
 15.307	 19.324	 59.77048	 53.60071	 -4.63288	 35.50472	 10.36638	 -2.39306	 67.23233	711.23999	 33.10	
 15.291	 12.833	 59.87162	 54.77083	 -5.29290	 32.06620	 13.48950	 -2.44652	 67.15284	711.10999	 33.10	
 15.298	  6.413	 60.10036	 55.78621	 -5.84064	 28.51456	 16.14294	 -2.39281	 67.21439	711.13000	 33.10	
 15.300	  0.000	 60.25301	 56.22803	 -5.88955	 24.99384	 19.65757	 -2.29139	 67.22459	711.21997	 33.10	
 15.298	 -6.413	 60.42287	 56.24778	 -5.78962	 21.51895	 23.16084	 -2.15283	 67.23392	711.17999	 33.10	
 15.291	-12.833	 60.58486	 55.75179	 -5.31521	 18.16615	 26.83611	 -2.07498	 67.23223	711.15002	 33.10	
 15.307	-19.324	 60.73146	 54.81627	 -4.44073	 14.93896	 30.70276	 -2.07748	 67.22546	711.10999	 33.10	
 15.300	-25.739	 60.83709	 53.50658	 -3.32190	 11.78146	 34.52534	 -2.13330	 67.23713	711.16998	 33.10	
 15.288	-32.146	 60.91873	 51.81476	 -1.91757	  8.96167	 38.11796	 -2.18186	 67.24486	711.16998	 33.10	
 15.293	-38.572	 60.94213	 49.72887	 -0.18818	  6.39084	 41.34400	 -2.13435	 67.22957	711.17999	 33.20	
 15.299	-45.015	 60.95452	 47.24207	  1.88240	  4.11563	 44.41275	 -2.05043	 67.22081	711.20001	 33.20	
 15.305	-51.417	 60.94114	 44.46638	  4.11919	  2.02151	 46.76172	 -1.98006	 67.19238	711.13000	 33.20	
 15.309	-57.858	 60.95068	 41.53536	  6.67494	  0.25512	 49.26622	 -1.96358	 67.21800	711.21002	 33.20	
 15.304	-64.289	 60.94715	 38.30216	  9.56731	 -1.16062	 51.26873	 -1.98091	 67.20059	711.25000	 33.20	
 15.297	-70.709	 60.94307	 34.85448	 12.63321	 -2.21269	 52.83414	 -1.95882	 67.22849	711.19000	 33.20	
 15.293	-77.103	 60.88440	 30.99848	 15.82331	 -2.99708	 53.87067	 -1.88444	 67.18557	711.12000	 33.20	
 15.293	-83.542	 60.85399	 27.25391	 19.23319	 -3.50026	 54.52187	 -1.79954	 67.20238	711.06000	 33.20	
 15.300	-90.000	 60.78599	 23.59435	 22.83000	 -3.70181	 54.76064	 -1.73993	 67.21217	711.19000	 33.20	
 15.293	-96.458	 60.75608	 20.07518	 26.43123	 -3.58961	 54.58824	 -1.73909	 67.23308	711.19000	 33.20	
 15.293	-102.897	 60.67478	 16.60472	 30.13115	 -3.28123	 53.95982	 -1.75723	 67.19871	711.14001	 33.20	
 15.297	-109.291	 60.63561	 13.32164	 33.73190	 -2.62509	 52.90230	 -1.80769	 67.20789	711.22998	 33.20	
 15.304	-115.711	 60.52217	 10.16086	 37.17892	 -1.70977	 51.37892	 -1.83742	 67.18497	711.22998	 33.20	
 15.309	-122.142	 60.46062	  7.21297	 40.56577	 -0.43479	 49.46531	 -1.91909	 67.21294	711.21002	 33.20	
 15.305	-128.583	 60.38455	  5.52082	 43.77518	  1.15182	 47.04720	 -1.89569	 67.20172	711.10999	 33.20	
 15.299	-134.985	 60.32960	  3.18831	 46.72668	  3.11619	 44.67422	 -1.93869	 67.22212	711.25000	 33.30	
 15.293	-141.428	 60.21947	  1.07295	 49.33623	  5.34562	 41.56156	 -2.00383	 67.18998	711.27002	 33.30	
 15.288	-147.854	 60.07627	 -0.76299	 51.58003	  7.85393	 38.32584	 -2.09328	 67.18959	711.26001	 33.30	
 15.300	-154.261	 59.94814	 -2.24908	 53.49237	 10.58831	 34.80071	 -2.21738	 67.21227	711.29999	 33.20	
 15.307	-160.676	 59.78028	 -3.47918	 54.97097	 13.48013	 31.05408	 -2.34799	 67.19923	711.21997	 33.30	
 15.291	-167.167	 59.62535	 -4.45636	 55.91084	 16.70003	 27.19961	 -2.41522	 67.19054	711.15002	 33.30	
 15.298	-173.587	 59.47491	 -5.03126	 56.50595	 19.98133	 23.36021	 -2.46697	 67.17173	711.22998	 33.30	
 15.300	180.000	 59.33362	 -5.31806	 56.64109	 23.44990	 19.77294	 -2.55612	 67.16975	711.28003	 33.30	
 17.000	180.000	 57.28894	 -9.09006	 58.75636	 21.75496	 18.08360	 -2.58926	 67.19316	711.25000	 33.30	
 16.990	-174.179	 57.41271	 -8.92275	 58.63249	 18.46822	 21.66159	 -2.48375	 67.18002	711.21002	 33.30	
 17.009	-168.383	 57.54580	 -8.44193	 58.12749	 15.09082	 25.38704	 -2.39301	 67.19206	711.31000	 33.30	
 17.000	-162.596	 57.69597	 -7.55646	 57.24654	 11.98340	 29.23443	 -2.28765	 67.17655	711.21002	 33.30	
 16.990	-156.759	 57.88966	 -6.31195	 55.92641	  9.07228	 33.00087	 -2.18479	 67.18179	711.28003	 33.30	
 16.995	-150.919	 57.98901	 -5.04040	 54.20415	  6.17994	 36.84428	 -2.06064	 67.19176	711.19000	 33.30	
 16.988	-145.161	 58.15485	 -3.50425	 52.15898	  3.60132	 40.24967	 -1.95826	 67.19442	711.19000	 33.30	
 17.014	-139.343	 58.28918	 -1.73401	 49.80415	  1.24101	 43.52412	 -1.87040	 67.20872	711.27002	 33.30	
 17.007	-133.546	 58.36195	  0.33255	 47.02351	 -0.89500	 46.36855	 -1.81262	 67.20107	711.15002	 33.30	
 17.001	-127.699	 58.43280	  2.84510	 43.95478	 -2.76117	 48.86193	 -1.76481	 67.19555	711.21002	 33.30	
 17.006	-121.937	 58.48315	  5.40397	 40.77421	 -4.30081	 51.18282	 -1.76449	 67.20102	711.21002	 33.30	
 17.002	-116.134	 58.55722	  8.25169	 37.37844	 -5.53321	 53.09095	 -1.70813	 67.17359	711.16998	 33.30	
 17.001	-110.310	 58.68726	 10.48638	 33.88504	 -6.37126	 54.66273	 -1.69031	 67.20368	711.22998	 33.40	
 16.988	-104.517	 58.76015	 13.71570	 30.27992	 -7.05841	 55.86858	 -1.62757	 67.20737	711.16998	 33.30	
 17.008	-98.662	 58.71690	 17.06914	 26.51118	 -7.55605	 56.74754	 -1.62951	 67.14643	711.21002	 33.40	
 16.996	-92.909	 58.82281	 20.49224	 23.01869	 -7.61709	 57.18402	 -1.63846	 67.17937	711.25000	 33.40	
 16.996	-87.091	 58.86302	 23.94724	 19.51208	 -7.66701	 57.17519	 -1.67351	 67.18790	711.28003	 33.40	
 17.012	-81.253	 58.91028	 27.53900	 16.05812	 -7.48047	 56.73890	 -1.73445	 67.18409	711.22998	 33.40	
 16.988	-75.483	 58.96395	 31.20077	 12.73838	 -6.85736	 55.68929	 -1.76857	 67.16618	711.20001	 33.40	
 17.001	-69.690	 59.00666	 35.13743	  9.57659	 -5.99154	 54.49259	 -1.83366	 67.18552	711.32001	 33.40	
 17.002	-63.866	 59.03001	 38.64701	  6.62064	 -4.86931	 52.94236	 -1.88018	 67.18538	711.23999	 33.40	
 17.006	-58.063	 59.04860	 41.92009	  3.76969	 -3.48302	 50.97592	 -1.92108	 67.20244	711.13000	 33.40	
 17.001	-52.301	 59.07833	 44.70116	  1.21984	 -1.78520	 48.56250	 -1.95887	 67.19642	711.21997	 33.40	
 17.007	-46.454	 59.04280	 47.65233	 -1.09820	  0.14637	 46.15625	 -2.08018	 67.17837	711.16998	 33.50	
 17.014	-40.657	 59.05370	 50.30540	 -3.12300	  2.38924	 43.07405	 -2.13386	 67.18608	711.25000	 33.50	
 16.988	-34.839	 59.08250	 52.57186	 -4.86010	  4.98795	 39.80763	 -2.21935	 67.19683	711.16998	 33.50	
 16.995	-29.081	 59.04323	 54.42034	 -6.28819	  7.68463	 36.32169	 -2.26148	 67.20075	711.26001	 33.50	
 16.990	-23.241	 58.97182	 56.01962	 -7.43732	 10.55551	 32.54538	 -2.25677	 67.19949	711.17999	 33.50	
 17.000	-17.404	 58.81567	 57.26007	 -8.43343	 13.66642	 28.68409	 -2.29325	 67.18053	711.21997	 33.50	
 17.009	-11.617	 58.63043	 58.03940	 -9.28853	 16.91392	 24.98814	 -2.36011	 67.19070	711.23999	 33.40	
 16.990	 -5.821	 58.44219	 58.38319	 -9.71148	 20.22824	 21.26835	 -2.47134	 67.15524	711.20001	 33.40	
 17.000	  0.000	 58.28964	 58.38021	 -9.75028	 23.46411	 17.97450	 -2.69817	 67.19687	711.09003	 33.40	
 16.990	  5.821	 58.11980	 57.96483	 -9.80026	 27.00393	 14.44829	 -2.87836	 67.18996	711.21997	 33.40	
 17.009	 11.617	 57.88582	 57.15687	 -9.39718	 30.55412	 11.75514	 -2.99527	 67.16160	711.19000	 33.40	
 17.000	 17.404	 57.73121	 55.85666	 -8.68939	 34.04211	  8.61280	 -2.95598	 67.15977	711.17999	 33.40	
 16.990	 23.241	 57.59204	 54.27013	 -7.90662	 37.50402	  5.55986	 -2.94366	 67.20463	711.26001	 33.50	
 16.995	 29.081	 57.40151	 52.29185	 -6.83114	 40.92389	  2.64398	 -2.96886	 67.17574	711.31000	 33.50	
 16.988	 34.839	 57.23911	 50.02566	 -5.45403	 44.17632	 -0.01515	 -3.09252	 67.18491	711.21997	 33.50	
 17.014	 40.657	 57.10133	 47.35836	 -3.77641	 47.20698	 -2.42082	 -3.26187	 67.17249	711.25000	 33.50	
 17.007	 46.454	 57.04252	 44.49415	 -1.75893	 49.88791	 -4.47012	 -3.43188	 67.19658	711.27002	 33.50	
 17.001	 52.301	 57.00534	 41.56155	  0.53838	 52.37674	 -6.28497	 -3.60585	 67.18310	711.29999	 33.50	
 17.006	 58.063	 56.92739	 38.25666	  3.00770	 54.56034	 -7.91300	 -3.78318	 67.21893	711.23999	 33.50	
 17.002	 63.866	 56.87149	 34.63943	  5.85042	 56.31588	 -9.19226	 -3.80381	 67.19189	711.20001	 33.50	
 17.001	 69.690	 56.82854	 30.68926	  8.78199	 57.78570	-10.21305	 -3.78277	 67.18913	711.28003	 33.50	
 16.988	 75.483	 56.80119	 27.07279	 11.79859	 58.85162	-11.00086	 -3.84066	 67.20131	711.21002	 33.50	
 17.012	 81.253	 56.68592	 23.47674	 14.97167	 59.52610	-11.48032	 -3.84616	 67.16109	711.15002	 33.50	
 16.996	 87.091	 56.69111	 20.20033	 18.13601	 59.85906	-11.68115	 -3.92563	 67.21729	711.21997	 33.50	
 16.996	 92.909	 56.61375	 16.73200	 21.64763	 59.72290	-11.73397	 -3.92266	 67.17478	711.16998	 33.50	
 17.008	 98.662	 56.52700	 13.30923	 25.29394	 59.30405	-11.49470	 -3.94838	 67.17046	711.22998	 33.50	
 16.988	104.517	 56.56488	 10.02001	 29.02764	 58.43609	-10.84958	 -3.94249	 67.19954	711.26001	 33.50	
 17.001	110.310	 56.51640	  7.88946	 32.73417	 57.17015	-10.24494	 -3.89747	 67.19296	711.35999	 33.50	
 17.002	116.134	 56.47723	  4.97765	 36.31727	 55.48710	 -9.21979	 -3.75789	 67.16688	711.21002	 33.50	
 17.006	121.937	 56.45008	  2.24023	 39.68407	 53.52249	 -7.98321	 -3.66810	 67.14984	711.21997	 33.50	
 17.001	127.699	 56.52381	  0.12571	 42.95370	 51.23988	 -6.39452	 -3.59885	 67.19774	711.16998	 33.50	
 17.007	133.546	 56.53575	 -1.94196	 46.09172	 48.61325	 -4.40784	 -3.57321	 67.18515	711.09998	 33.50	
 17.014	139.343	 56.52787	 -3.72622	 48.90842	 45.70414	 -2.14098	 -3.60739	 67.15506	711.22998	 33.50	
 16.988	145.161	 56.60363	 -5.22332	 51.41793	 42.54824	  0.32689	 -3.62318	 67.17314	711.21002	 33.60	
 16.995	150.919	 56.67536	 -6.52094	 53.56247	 39.29146	  2.90192	 -3.56376	 67.19308	711.16998	 33.50	
 16.990	156.759	 56.75262	 -7.52952	 55.39151	 35.80180	  5.76599	 -3.45074	 67.16987	711.21002	 33.50	
 17.000	162.596	 56.86043	 -8.36378	 56.83540	 32.36823	  8.61275	 -3.30059	 67.18154	711.21002	 33.60	
 17.009	168.383	 56.96079	 -8.99345	 57.85367	 28.89592	 11.85015	 -3.09682	 67.17033	711.16998	 33.60	
 16.990	174.179	 57.13701	 -9.01299	 58.49224	 25.39881	 14.45654	 -2.81830	 67.18800	711.21997	 33.60	
 18.709	174.675	 54.88773	-13.18548	 60.40570	 23.50640	 13.33983	 -2.75283	 67.15108	711.21002	 33.60	
 18.703	169.441	 54.78386	-13.15618	 59.84434	 26.76753	 10.28708	 -3.06207	 67.14508	711.21997	 33.60	
 18.691	164.085	 54.68121	-12.71319	 58.90939	 30.37040	  7.23644	 -3.26514	 67.18924	711.20001	 33.60	
 18.706	158.818	 54.51506	-11.90102	 57.58016	 33.87844	  4.19992	 -3.42669	 67.16547	711.25000	 33.60	
 18.695	153.537	 54.39356	-10.91775	 55.86427	 37.33426	  1.29791	 -3.57672	 67.13647	711.27002	 33.60	
 18.704	148.255	 54.36250	 -9.70322	 53.88046	 40.70084	 -1.32997	 -3.71915	 67.17175	711.14001	 33.60	
 18.698	142.952	 54.30589	 -8.28993	 51.60591	 43.94399	 -3.86230	 -3.72371	 67.15428	711.25000	 33.60	
 18.699	137.625	 54.22118	 -6.67072	 48.95820	 47.01814	 -6.18716	 -3.77817	 67.11974	711.28003	 33.60	
 18.705	132.343	 54.23430	 -4.84711	 46.08357	 49.85044	 -8.22336	 -3.79570	 67.13024	711.28998	 33.60	
 18.713	127.067	 54.19126	 -2.81845	 42.94223	 52.43458	 -9.90375	 -3.85460	 67.11621	711.22998	 33.60	
 18.700	121.794	 54.18866	 -0.49422	 39.67340	 54.68140	-11.25902	 -3.95471	 67.10918	711.16998	 33.60	
 18.698	116.504	 54.18557	  1.98043	 36.25225	 56.67543	-12.50452	 -4.09036	 67.12557	711.27002	 33.60	
 18.707	111.165	 54.16864	  4.62103	 32.57856	 58.39961	-13.56416	 -4.19456	 67.10448	711.15002	 33.60	
 18.690	105.863	 54.25162	  7.55219	 28.92723	 59.75704	-14.30551	 -4.28224	 67.12759	711.23999	 33.60	
 18.696	100.583	 54.23671	 10.74260	 25.24852	 60.74543	-14.97662	 -4.34183	 67.10712	711.20001	 33.60	
 18.700	 95.309	 54.26961	 13.98097	 21.53785	 61.32112	-15.34415	 -4.43160	 67.09974	711.29999	 33.60	
 18.700	 90.000	 54.32220	 16.72041	 17.91330	 61.57666	-15.49540	 -4.44750	 67.11958	711.28998	 33.60	
 18.700	 84.691	 54.39281	 19.83302	 14.88780	 61.49120	-15.27240	 -4.41954	 67.13931	711.21002	 33.60	
 18.696	 79.417	 54.46684	 23.18366	 11.83767	 61.06520	-15.04473	 -4.36982	 67.12666	711.15997	 33.60	
 18.690	 74.137	 54.57006	 26.85208	  8.73167	 60.31497	-14.43659	 -4.37811	 67.16920	711.15997	 33.60	
 18.707	 68.835	 54.58289	 30.44061	  5.59166	 59.12032	-13.72138	 -4.26815	 67.11500	711.22998	 33.60	
 18.698	 63.496	 54.63089	 34.32993	  2.70749	 57.56527	-12.70897	 -4.23394	 67.11856	711.32001	 33.70	
 18.700	 58.206	 54.71130	 38.05400	  0.07764	 55.81136	-11.48468	 -4.18129	 67.17105	711.28003	 33.60	
 18.713	 52.933	 54.71034	 41.38118	 -2.38033	 53.68900	-10.06247	 -4.02608	 67.13064	711.23999	 33.70	
 18.705	 47.657	 54.78254	 44.43328	 -4.62495	 51.30334	 -8.40589	 -3.86803	 67.17497	711.27002	 33.60	
 18.699	 42.375	 54.87831	 47.29485	 -6.61791	 48.58359	 -6.42620	 -3.70166	 67.15290	711.23999	 33.60	
 18.698	 37.048	 54.94743	 50.05126	 -8.39562	 45.61364	 -4.23982	 -3.56094	 67.10252	711.14001	 33.60	
 18.704	 31.745	 55.18767	 52.51384	 -9.87123	 42.49188	 -1.77889	 -3.45627	 67.14948	711.28998	 33.70	
 18.695	 26.463	 55.29551	 54.54403	-11.07838	 39.15317	  0.97631	 -3.34266	 67.10445	711.35999	 33.70	
 18.706	 21.182	 55.46263	 56.47136	-12.01190	 35.76241	  3.89394	 -3.32193	 67.14064	711.34003	 33.70	
 18.691	 15.915	 55.63472	 58.03875	-12.70078	 32.32893	  6.98816	 -3.26252	 67.15250	711.27002	 33.70	
 18.703	 10.559	 55.72701	 59.16940	-13.37216	 28.71773	 10.14517	 -3.22651	 67.13551	711.29999	 33.70	
 18.709	  5.325	 55.94989	 59.89610	-13.69515	 25.12040	 13.33001	 -3.16136	 67.14877	711.28998	 33.70	
 18.700	  0.000	 56.10231	 60.24887	-13.63904	 21.74150	 16.49810	 -2.91480	 67.12316	711.29999	 33.70	
 18.709	 -5.325	 56.23078	 60.31035	-13.62991	 18.75513	 19.28661	 -2.57433	 67.12152	711.28003	 33.70	
 18.703	-10.559	 56.44469	 60.00397	-13.18229	 15.34139	 23.03642	 -2.41204	 67.12273	711.25000	 33.70	
 18.691	-15.915	 56.66240	 59.32945	-12.38953	 12.12824	 26.80592	 -2.31149	 67.13520	711.26001	 33.70	
 18.706	-21.182	 56.81895	 58.33458	-11.51668	  9.03358	 30.50543	 -2.20751	 67.16290	711.34998	 33.70	
 18.695	-26.463	 56.91842	 56.85074	-10.44645	  6.14353	 34.22980	 -2.17825	 67.13936	711.35999	 33.70	
 18.704	-31.745	 56.97958	 55.04705	 -9.20553	  3.42644	 37.93222	 -2.10989	 67.17107	711.33002	 33.70	
 18.698	-37.048	 56.97408	 53.03426	 -7.70334	  0.91060	 41.30458	 -2.03218	 67.09732	711.35999	 33.70	
 18.699	-42.375	 57.01029	 50.66361	 -5.88827	 -1.44122	 44.43249	 -1.94414	 67.13241	711.34998	 33.70	
 18.705	-47.657	 57.02314	 47.96737	 -3.87836	 -3.55663	 47.39578	 -1.88369	 67.13970	711.32001	 33.80	
 18.713	-52.933	 57.03927	 45.06003	 -1.60771	 -5.37741	 49.85746	 -1.83686	 67.13872	711.31000	 33.80	
 18.700	-58.206	 57.05595	 42.22906	  0.86160	 -6.91135	 52.18603	 -1.76533	 67.14165	711.38000	 33.80	
 18.698	-63.496	 57.01946	 38.96111	  3.53752	 -8.26247	 54.18581	 -1.71400	 67.12732	711.48999	 33.80	
 18.707	-68.835	 56.91766	 35.28128	  6.50879	 -9.58442	 55.86460	 -1.59937	 67.09184	711.34998	 33.80	
 18.690	-74.137	 56.92988	 31.42215	  9.66866	-10.47286	 57.34227	 -1.56674	 67.13554	711.41998	 33.80	
 18.696	-79.417	 56.87161	 27.76742	 12.88738	-11.17619	 58.36848	 -1.57951	 67.12823	711.46002	 33.80	
 18.700	-84.691	 56.76226	 24.17113	 16.24556	-11.49470	 58.90483	 -1.52173	 67.06226	711.42999	 33.80	
 18.700	-90.000	 56.69799	 20.67586	 19.67169	-11.56670	 59.10518	 -1.48460	 67.06387	711.29999	 33.80	
 18.700	-95.309	 56.66263	 17.44790	 23.03117	-11.42308	 58.96442	 -1.47207	 67.08236	711.48999	 33.80	
 18.696	-100.583	 56.58652	 14.06606	 26.56867	-11.27825	 58.39883	 -1.46596	 67.06493	711.45001	 33.80	
 18.690	-105.863	 56.59268	 10.80510	 30.21817	-10.68861	 57.45248	 -1.43477	 67.06808	711.40002	 33.80	
 18.707	-111.165	 56.49879	  7.58266	 33.83735	 -9.97647	 56.09977	 -1.46406	 67.07803	711.35999	 33.80	
 18.698	-116.504	 56.43118	  5.51318	 37.40528	 -9.09284	 54.47089	 -1.45831	 67.10074	711.38000	 33.80	
 18.700	-121.794	 56.37543	  2.61884	 40.76990	 -7.85307	 52.48219	 -1.54324	 67.10062	711.41998	 33.80	
 18.713	-127.067	 56.27015	  0.14750	 43.96017	 -6.43489	 50.18781	 -1.55487	 67.07920	711.47998	 33.80	
 18.705	-132.343	 56.21671	 -2.18520	 47.02771	 -4.71934	 47.51675	 -1.57941	 67.08611	711.51001	 33.80	
 18.699	-137.625	 56.15778	 -4.26981	 49.84288	 -2.60805	 44.95411	 -1.69245	 67.08803	711.44000	 33.80	
 18.698	-142.952	 56.06549	 -6.17179	 52.38739	 -0.41889	 41.77623	 -1.71824	 67.10082	711.35999	 33.80	
 18.704	-148.255	 55.87436	 -7.83607	 54.58744	  1.99911	 38.40332	 -1.84343	 67.07835	711.42999	 33.80	
 18.695	-153.537	 55.72728	 -9.26362	 56.49272	  4.64707	 34.70642	 -1.89529	 67.08155	711.40002	 33.80	
 18.706	-158.818	 55.58565	-10.56917	 58.05497	  7.46710	 30.96045	 -2.01732	 67.09409	711.37000	 33.80	
 18.691	-164.085	 55.44806	-11.66602	 59.21910	 10.44402	 27.09518	 -2.10968	 67.09767	711.38000	 33.80	
 18.703	-169.441	 55.28102	-12.54068	 60.04860	 13.55871	 23.28832	 -2.24613	 67.11225	711.41998	 33.80	
 18.709	-174.675	 55.12054	-13.01322	 60.51404	 16.81497	 19.56894	 -2.33394	 67.10162	711.40002	 33.80	
 18.700	180.000	 55.00218	-13.24253	 60.60788	 20.24038	 15.90497	 -2.48572	 67.10414	711.46997	 33.80	
 20.400	180.000	 52.46476	-17.31433	 62.27273	 18.33981	 14.51659	 -2.35204	 67.09676	711.39001	 33.80	
 20.401	-175.153	 52.63395	-17.00590	 62.17493	 15.06394	 17.52605	 -2.15534	 67.08366	711.31000	 33.80	
 20.407	-170.264	 52.76912	-16.61163	 61.76427	 11.83737	 21.23015	 -2.02621	 67.06384	711.33002	 33.80	
 20.410	-165.423	 52.94244	-15.93855	 61.10689	  8.71142	 24.98378	 -1.91543	 67.11008	711.47998	 33.80	
 20.392	-160.496	 53.11668	-14.84646	 59.98822	  5.66205	 28.82812	 -1.81017	 67.09284	711.40002	 33.80	
 20.401	-155.705	 53.27697	-13.59942	 58.58990	  2.86184	 32.58398	 -1.73983	 67.10124	711.44000	 33.80	
 20.405	-150.835	 53.43053	-12.25736	 56.84219	  0.18410	 36.31235	 -1.68964	 67.09251	711.34998	 33.80	
 20.397	-145.903	 53.67570	-10.62485	 54.73312	 -2.26021	 39.97307	 -1.58697	 67.11101	711.38000	 33.80	
 20.392	-141.062	 53.78532	 -8.82132	 52.36181	 -4.49899	 43.24168	 -1.52164	 67.06509	711.38000	 33.80	
 20.396	-136.227	 53.84478	 -6.93034	 49.75753	 -6.51722	 46.14421	 -1.50439	 67.04971	711.29999	 33.80	
 20.408	-131.372	 53.95902	 -4.87399	 46.97606	 -8.44484	 48.84513	 -1.42709	 67.11309	711.32001	 33.80	
 20.410	-126.511	 54.03260	 -2.53160	 43.82395	-10.04996	 51.46997	 -1.43306	 67.08681	711.46997	 33.80	
 20.400	-121.604	 54.09532	 -0.01903	 40.59164	-11.50281	 53.80933	 -1.33362	 67.11810	711.38000	 33.80	
 20.403	-116.741	 54.11034	  2.58715	 37.20923	-12.70609	 55.75518	 -1.31379	 67.06199	711.38000	 33.90	
 20.413	-111.900	 54.20789	  5.33524	 33.67689	-13.71960	 57.58685	 -1.27409	 67.08789	711.39001	 33.90	
 20.398	-107.004	 54.27091	  8.59047	 29.98393	-14.49567	 58.94711	 -1.29771	 67.07339	711.42999	 33.90	
 20.394	-102.132	 54.25991	 11.71845	 26.36733	-15.12108	 59.92279	 -1.29194	 67.06610	711.39001	 33.90	
 20.403	-97.332	 54.28770	 14.31980	 22.81985	-15.50458	 60.62379	 -1.29457	 67.08173	711.32001	 33.90	
 20.392	-92.440	 54.40020	 17.52999	 19.37433	-15.46671	 60.94902	 -1.31721	 67.08742	711.39001	 33.90	
 20.392	-87.560	 54.43477	 20.58758	 16.26195	-15.63331	 60.94783	 -1.38304	 67.08701	711.37000	 33.90	
 20.403	-82.668	 54.44849	 24.10657	 12.81678	-15.57594	 60.61148	 -1.35358	 67.09860	711.44000	 33.90	
 20.394	-77.868	 54.54613	 27.67927	  9.29562	-14.96109	 59.84060	 -1.38013	 67.09876	711.32001	 33.90	
 20.398	-72.996	 54.53845	 31.24230	  6.27736	-14.36421	 58.79230	 -1.42801	 67.06483	711.34998	 33.90	
 20.413	-68.100	 54.60628	 35.11884	  3.32161	-13.46517	 57.34718	 -1.41230	 67.10560	711.44000	 33.90	
 20.403	-63.259	 54.63631	 38.75144	  0.48612	-12.22311	 55.52388	 -1.52409	 67.07308	711.44000	 33.90	
 20.400	-58.396	 54.67595	 42.08279	 -2.12505	-10.90593	 53.50596	 -1.58788	 67.06236	711.38000	 33.90	
 20.410	-53.489	 54.68327	 45.06073	 -4.50304	 -9.26603	 51.17857	 -1.63752	 67.05449	711.29999	 33.90	
 20.408	-48.628	 54.70136	 47.98853	 -6.74328	 -7.52836	 48.49302	 -1.68391	 67.09362	711.37000	 33.90	
 20.396	-43.773	 54.64228	 50.69419	 -8.70906	 -5.59548	 45.79384	 -1.75021	 67.05069	711.34998	 33.90	
 20.392	-38.938	 54.67847	 53.18213	-10.44017	 -3.41076	 42.83860	 -1.78952	 67.09399	711.34998	 33.90	
 20.397	-34.097	 54.61467	 55.25783	-11.97788	 -1.04220	 39.49151	 -1.86746	 67.08251	711.58002	 33.90	
 20.405	-29.165	 54.52839	 57.31514	-13.42920	  1.56881	 35.73737	 -1.98808	 67.07140	711.46002	 33.90	
 20.401	-24.295	 54.47775	 59.01010	-14.67257	  4.38019	 32.09632	 -2.02264	 67.12865	711.56000	 33.90	
 20.392	-19.504	 54.39396	 60.21383	-15.51845	  7.32890	 28.49222	 -2.14357	 67.09248	711.40997	 34.00	
 20.410	-14.577	 54.20831	 61.16879	-16.37738	 10.41899	 24.71119	 -2.24163	 67.07936	711.40997	 33.90	
 20.407	 -9.736	 54.05506	 61.76534	-16.98820	 13.62613	 20.95698	 -2.38968	 67.09087	711.34998	 34.00	
 20.401	 -4.847	 53.83951	 61.98077	-17.37369	 16.99834	 17.55930	 -2.56120	 67.03796	711.54999	 34.00	
 20.400	  0.000	 53.68057	 61.91622	-17.49730	 19.86536	 14.64798	 -2.95693	 67.04263	711.40002	 34.00	
 20.401	  4.847	 53.51612	 61.56873	-17.53384	 23.03208	 11.65903	 -3.24449	 67.05688	711.35999	 34.00	
 20.407	  9.736	 53.26627	 60.87856	-17.32668	 26.67857	  8.29119	 -3.34639	 67.06143	711.33002	 34.00	
 20.410	 14.577	 53.11430	 59.83894	-16.75995	 30.23709	  5.16429	 -3.43913	 67.08013	711.39001	 34.00	
 20.392	 19.504	 52.99038	 58.40318	-16.03827	 33.83152	  2.01637	 -3.53389	 67.06643	711.46002	 34.00	
 20.401	 24.295	 52.80246	 56.60249	-15.25467	 37.19212	 -0.92878	 -3.64611	 67.05958	711.34003	 33.90	
 20.405	 29.165	 52.72197	 54.57754	-14.17433	 40.52710	 -3.65102	 -3.75858	 67.06642	711.28003	 34.00	
 20.397	 34.097	 52.53799	 52.32336	-12.84575	 43.83270	 -6.22400	 -3.84837	 67.06602	711.31000	 34.00	
 20.392	 38.938	 52.33884	 49.72088	-11.25764	 46.90568	 -8.47255	 -3.91278	 67.04350	711.40002	 34.00	
 20.396	 43.773	 52.23695	 46.75978	 -9.40878	 49.75626	-10.43067	 -4.04250	 67.04105	711.46002	 34.00	
 20.408	 48.628	 52.20000	 44.06877	 -7.40564	 52.36432	-12.15148	 -4.21237	 67.05864	711.34998	 34.00	
 20.410	 53.489	 52.13498	 40.90603	 -5.19724	 54.80124	-13.73322	 -4.38375	 67.08116	711.37000	 34.00	
 20.400	 58.396	 52.03057	 37.42387	 -2.87089	 56.94873	-15.12330	 -4.51841	 67.07766	711.42999	 34.00	
 20.403	 63.259	 51.95695	 33.51395	 -0.38396	 58.74374	-16.29997	 -4.65665	 67.06079	711.40997	 34.10	
 20.413	 68.100	 51.91545	 29.93231	  2.36052	 60.26630	-17.27893	 -4.76258	 67.07082	711.51001	 34.10	
 20.398	 72.996	 51.87449	 26.33426	  5.36666	 61.51085	-17.94970	 -4.83858	 67.08892	711.42999	 34.10	
 20.394	 77.868	 51.80246	 22.69823	  8.44680	 62.35062	-18.50567	 -4.89735	 67.06174	711.39001	 34.10	
 20.403	 82.668	 51.74980	 19.16486	 11.64199	 62.86637	-18.91617	 -4.95935	 67.06269	711.37000	 34.10	
 20.392	 87.560	 51.73660	 16.47066	 14.13972	 63.06907	-19.09734	 -4.88982	 67.06446	711.32001	 34.10	
 20.392	 92.440	 51.67640	 13.30357	 17.61285	 62.98206	-19.11663	 -4.81718	 67.04053	711.37000	 34.10	
 20.403	 97.332	 51.62102	 10.18266	 21.27675	 62.63139	-18.95664	 -4.71870	 67.03182	711.32001	 34.10	
 20.394	102.132	 51.54972	  7.21611	 24.90456	 61.91722	-18.49913	 -4.62004	 67.03813	711.40002	 34.10	
 20.398	107.004	 51.54485	  4.31924	 28.57562	 60.84067	-17.86377	 -4.53095	 67.05107	711.41998	 34.10	
 20.413	111.900	 51.51296	  1.46593	 32.23859	 59.42492	-17.06232	 -4.45360	 67.05930	711.40997	 34.10	
 20.403	116.741	 51.48563	 -1.14072	 35.81957	 57.65069	-15.93636	 -4.34535	 67.01843	711.50000	 34.10	
 20.400	121.604	 51.65990	 -3.54083	 39.29970	 55.78697	-14.65845	 -4.17671	 67.07464	711.44000	 34.10	
 20.410	126.511	 51.72388	 -5.79675	 42.64508	 53.46413	-13.23682	 -4.07107	 67.07024	711.40002	 34.10	
 20.408	131.372	 51.69934	 -7.86760	 45.77264	 50.86205	-11.74314	 -3.99222	 67.02962	711.44000	 34.10	
 20.396	136.227	 51.69950	 -9.68198	 48.70393	 48.12955	-10.02118	 -3.88242	 67.03397	711.29999	 34.10	
 20.392	141.062	 51.73956	-11.36774	 51.36483	 45.15094	 -8.02391	 -3.77207	 67.05134	711.38000	 34.10	
 20.397	145.903	 51.84696	-12.86260	 53.78645	 41.96127	 -5.71653	 -3.68449	 67.04789	711.46002	 34.10	
 20.405	150.835	 51.89427	-14.23418	 55.97957	 38.54263	 -3.16728	 -3.50474	 67.02890	711.47998	 34.10	
 20.401	155.705	 51.96114	-15.37992	 57.82192	 35.15479	 -0.50950	 -3.34271	 67.02747	711.47998	 34.10	
 20.392	160.496	 52.05653	-16.22543	 59.40590	 31.68007	  2.42088	 -3.24566	 67.05722	711.46997	 34.10	
 20.410	165.423	 52.10205	-16.88401	 60.65563	 28.06735	  5.51874	 -3.08289	 67.06568	711.40997	 34.10	
 20.407	170.264	 52.20965	-17.10661	 61.49794	 24.61256	  8.56549	 -2.89660	 67.03487	711.35999	 34.10	
 20.401	175.153	 52.30867	-17.17051	 61.99528	 21.63111	 11.33907	 -2.64876	 67.03040	711.40002	 34.10	
  0.141	 45.000	 67.18226	 29.21818	 29.08842	 31.56551	 26.41000	  1.33620	 67.03175	711.48999	 34.10	
  4.001	128.691	 66.72187	 22.41344	 34.11807	 37.50875	 19.41826	  0.86160	 67.05628	711.40002	 34.10	
  4.002	 76.995	 66.75467	 30.00399	 26.75012	 39.42242	 17.60916	  1.07310	 67.06427	711.51001	 34.10	
  4.002	 25.892	 66.90211	 36.18857	 21.05876	 34.77962	 22.30032	  1.24827	 67.05020	711.48999	 34.10	
  4.002	-25.892	 67.09572	 36.63234	 21.21532	 27.47284	 29.94959	  1.20863	 67.06421	711.52002	 34.10	
  4.002	-76.995	 67.13413	 31.01568	 27.21690	 22.92618	 35.08332	  1.02505	 67.05861	711.50000	 34.10	
  4.001	-128.691	 67.05215	 23.24436	 34.37787	 24.32449	 33.33834	  0.85617	 67.05386	711.45001	 34.10	
  4.000	180.000	 66.89605	 19.73005	 37.53464	 30.63628	 26.25337	  0.77874	 67.06678	711.42999	 34.10	
  8.000	180.000	 65.39954	 10.46015	 45.27878	 29.00690	 24.74716	 -0.33122	 67.06633	711.35999	 34.10	
  7.991	-152.370	 65.69303	 12.66926	 43.30329	 21.48660	 33.17941	 -0.29039	 67.03358	711.40997	 34.10	
  7.997	-124.550	 65.96377	 17.96057	 37.52313	 15.90741	 39.94657	 -0.19699	 67.05676	711.45001	 34.10	
  8.006	-96.837	 66.09802	 25.69794	 29.79259	 13.55575	 43.03490	 -0.06198	 67.04160	711.44000	 34.10	
  7.988	-69.228	 66.12382	 34.23239	 21.59540	 14.44597	 41.92599	  0.05975	 67.02837	711.46002	 34.10	
  7.997	-41.563	 66.05707	 40.89274	 15.17828	 18.84415	 36.70851	  0.15380	 67.01952	711.34003	 34.10	
  8.008	-13.821	 65.87386	 44.39642	 11.58984	 25.91461	 28.69788	  0.42975	 67.04218	711.44000	 34.10	
  8.008	 13.821	 65.55206	 43.81199	 11.51663	 33.83488	 20.19064	  0.49052	 67.03283	711.45001	 34.10	
  7.997	 41.563	 65.23331	 39.49945	 14.88699	 41.20016	 13.24642	  0.36773	 66.99136	711.38000	 34.10	
  7.988	 69.228	 65.05865	 32.29929	 21.01320	 46.03379	  9.00698	  0.14993	 67.02913	711.28998	 34.20	
  8.006	 96.837	 64.96019	 23.65727	 29.07225	 46.88123	  8.09202	 -0.06468	 67.06176	711.39001	 34.10	
  7.997	124.550	 64.93890	 16.46352	 36.90680	 43.52941	 10.79839	 -0.16945	 67.01958	711.34003	 34.10	
  7.991	152.370	 65.12590	 11.90083	 42.85822	 36.98499	 16.53002	 -0.32842	 67.05521	711.48999	 34.20	
 12.009	161.059	 62.22190	  1.90146	 50.13260	 34.60680	 13.87993	 -2.14784	 67.03256	711.34003	 34.20	
 12.013	142.081	 61.96756	  4.87584	 45.73400	 42.37939	  8.07906	 -2.17422	 67.00890	711.34998	 34.10	
 12.006	123.113	 61.92030	 10.01536	 38.81838	 48.51913	  3.42577	 -2.04049	 67.01889	711.50000	 34.10	
 12.007	104.200	 61.88185	 16.93986	 30.88947	 52.32450	  0.65376	 -2.15687	 67.03944	711.34998	 34.20	
 11.989	 85.301	 62.00156	 24.95684	 22.37691	 53.32599	  0.06313	 -1.97590	 67.02122	711.46997	 34.20	
 12.013	 66.294	 62.10295	 33.77283	 14.58347	 51.30307	  1.51458	 -1.87275	 67.00935	711.40997	 34.20	
 12.012	 47.388	 62.27803	 41.36559	  8.36149	 46.73682	  5.36457	 -1.70959	 67.04793	711.40002	 34.20	
 11.990	 28.440	 62.62292	 47.26983	  4.29443	 39.76607	 11.21384	 -1.28900	 67.04904	711.37000	 34.20	
 11.991	  9.464	 62.98640	 50.65742	  2.19744	 31.79546	 17.72176	 -1.32739	 67.05955	711.33002	 34.20	
 11.991	 -9.464	 63.32978	 51.15937	  2.13506	 23.60370	 26.33256	 -1.06021	 67.02789	711.34998	 34.20	
 11.990	-28.440	 63.65533	 48.73754	  4.46815	 16.02411	 35.03679	 -1.17755	 67.05727	711.41998	 34.20	
 12.012	-47.388	 63.70912	 43.49047	  8.89447	  9.87356	 42.45087	 -1.43809	 67.00538	711.42999	 34.20	
 12.013	-66.294	 63.80663	 36.68005	 15.37244	  6.04839	 47.21903	 -1.53889	 67.03735	711.39001	 34.20	
 11.989	-85.301	 63.74626	 27.97655	 23.25592	  4.27380	 49.57751	 -1.44707	 67.02013	711.46002	 34.20	
 12.007	-104.200	 63.60778	 19.50339	 31.77841	  4.55971	 48.83429	 -1.52077	 67.00391	711.45001	 34.20	
 12.006	-123.113	 63.43888	 12.25771	 39.66151	  7.08630	 45.08196	 -1.68854	 67.01754	711.46997	 34.20	
 12.013	-142.081	 63.18669	  6.46267	 46.38921	 11.78678	 39.10140	 -1.68727	 67.02048	711.31000	 34.20	
 12.009	-161.059	 62.86826	  2.66720	 50.55777	 18.39670	 31.02383	 -1.98253	 67.02415	711.42999	 34.20	
 16.000	180.000	 58.34889	 -6.81534	 57.37715	 22.82659	 18.85553	 -2.64746	 67.01285	711.35999	 34.20	
 15.990	-165.604	 58.71880	 -5.79722	 56.41567	 15.03955	 27.57605	 -2.42560	 67.01377	711.42999	 34.20	
 16.002	-151.165	 59.08281	 -3.02027	 53.22647	  8.15210	 36.38674	 -2.17792	 67.01795	711.29999	 34.20	
 16.002	-136.836	 59.42224	  1.17968	 47.89115	  2.46933	 44.01816	 -1.98371	 67.01984	711.44000	 34.20	
 15.995	-122.439	 59.58548	  6.88203	 40.78931	 -1.80870	 49.79393	 -1.90447	 67.02288	711.40002	 34.20	
 15.993	-107.966	 59.79817	 13.10475	 32.71942	 -4.24478	 53.76421	 -1.79564	 67.02547	711.29999	 34.20	
 16.005	-93.629	 59.89332	 20.98061	 24.25773	 -5.15990	 55.54448	 -1.75471	 67.02071	711.42999	 34.20	
 15.992	-79.234	 60.01748	 29.36226	 16.06167	 -4.76552	 54.77298	 -1.87726	 67.01587	711.35999	 34.20	
 16.009	-64.774	 60.04323	 38.05553	  8.60806	 -2.76343	 51.94537	 -1.96551	 67.00465	711.40997	 34.20	
 15.997	-50.364	 60.08607	 45.13676	  2.32569	  0.96548	 46.65579	 -2.06223	 67.03013	711.46002	 34.20	
 15.997	-36.045	 60.04583	 51.17382	 -2.50876	  6.18939	 40.10302	 -2.24753	 67.04014	711.37000	 34.20	
 16.000	-21.597	 59.87204	 55.10460	 -5.66669	 12.87623	 31.56865	 -2.23176	 67.02654	711.51001	 34.20	
 16.003	 -7.169	 59.47446	 57.01594	 -7.47272	 20.45327	 22.74766	 -2.31882	 67.02798	711.39001	 34.20	
 16.003	  7.169	 59.10309	 56.48954	 -7.50328	 28.55834	 14.63732	 -2.67864	 67.04472	711.37000	 34.20	
 16.000	 21.597	 58.68376	 53.62721	 -5.97916	 36.67274	  7.79519	 -2.66983	 67.05028	711.34998	 34.20	
 15.997	 36.045	 58.26083	 48.64656	 -3.24801	 44.48836	  1.22701	 -2.83477	 67.00351	711.35999	 34.20	
 15.997	 50.364	 58.09085	 42.15398	  1.61591	 50.85731	 -3.74484	 -3.25151	 67.04230	711.34003	 34.20	
 16.009	 64.774	 57.92200	 34.16069	  7.83390	 55.56907	 -7.26823	 -3.45826	 67.02254	711.39001	 34.20	
 15.992	 79.234	 57.83323	 25.41484	 14.99279	 58.09009	 -9.14250	 -3.46601	 67.03001	711.34998	 34.20	
 16.005	 93.629	 57.67238	 17.32747	 22.92427	 58.46070	 -9.69764	 -3.59244	 67.03132	711.29999	 34.20	
 15.993	107.966	 57.59200	  9.68371	 31.53125	 56.55630	 -8.39051	 -3.60902	 67.01964	711.37000	 34.20	
 15.995	122.439	 57.58944	  3.94310	 39.73650	 52.43195	 -5.73445	 -3.41058	 66.99711	711.34998	 34.20	
 16.002	136.836	 57.64104	 -1.00747	 47.00748	 46.48501	 -1.15472	 -3.37277	 66.99458	711.46002	 34.20	
 16.002	151.165	 57.78980	 -4.39246	 52.59632	 39.09864	  4.65429	 -3.40970	 67.02625	711.44000	 34.20	
 15.990	165.604	 58.04317	 -6.39945	 56.09244	 31.06957	 11.58880	 -3.08453	 67.01312	711.42999	 34.20	
 20.003	168.362	 52.71476	-16.13589	 60.78986	 26.23410	  7.96378	 -3.00448	 66.97886	711.29999	 34.20	
 20.008	156.764	 52.37318	-14.62409	 57.88199	 34.53873	  0.83798	 -3.38237	 66.99775	711.32001	 34.20	
 20.000	145.147	 52.26052	-11.76046	 53.18242	 42.47020	 -5.32578	 -3.75816	 67.00780	711.34003	 34.20	
 19.995	133.545	 52.19707	 -7.86809	 46.99308	 49.51857	-10.23252	 -3.94840	 66.98468	711.25000	 34.20	
 20.009	121.926	 52.13128	 -2.96535	 39.54483	 55.35374	-13.74447	 -4.19404	 66.99698	711.22998	 34.20	
 20.005	110.327	 52.09098	  3.00200	 31.24507	 59.56908	-16.49712	 -4.46589	 66.99081	711.39001	 34.20	
 19.989	 98.733	 52.21562	  9.87046	 22.67543	 62.08950	-17.97530	 -4.67223	 67.03052	711.37000	 34.20	
 19.999	 87.075	 52.30943	 17.14891	 14.34864	 62.65364	-18.20083	 -4.87763	 66.99212	711.40002	 34.30	
 19.992	 75.457	 52.42760	 24.82258	  7.44110	 61.59492	-17.38826	 -4.83566	 67.00904	711.34003	 34.30	
 20.009	 63.844	 52.53060	 33.22482	  0.56760	 58.56092	-15.56892	 -4.59923	 66.99784	711.40002	 34.30	
 19.989	 52.269	 52.76197	 41.70710	 -4.99409	 53.97268	-12.50785	 -4.32290	 67.05228	711.35999	 34.30	
 19.999	 40.602	 52.90608	 48.63025	 -9.89987	 47.81369	 -8.36366	 -3.95671	 67.02811	711.40997	 34.30	
 20.004	 29.051	 53.30553	 54.34992	-13.38198	 40.49758	 -2.83791	 -3.72517	 67.02508	711.40002	 34.30	
 20.005	 17.433	 53.62126	 58.70032	-15.49606	 32.50325	  4.00465	 -3.52533	 67.04543	711.34003	 34.30	
 20.006	  5.780	 54.00305	 60.99181	-16.61982	 24.03368	 11.55225	 -3.27484	 66.98331	711.35999	 34.30	
 20.006	 -5.780	 54.42399	 61.54345	-16.47597	 16.75257	 18.31007	 -2.59645	 67.02734	711.45001	 34.30	
 20.005	-17.433	 54.80056	 60.21644	-15.04629	  9.18210	 27.11174	 -2.27527	 67.00266	711.46002	 34.30	
 20.004	-29.051	 55.04077	 56.97897	-12.66089	  2.39372	 35.66452	 -2.04409	 67.01763	711.53003	 34.30	
 19.999	-40.602	 55.14937	 52.07225	 -9.10695	 -3.35855	 43.75346	 -1.92620	 66.99654	711.45001	 34.30	
 19.989	-52.269	 55.23927	 45.57588	 -4.30473	 -7.93419	 50.24554	 -1.75346	 67.02403	711.48999	 34.30	
 20.009	-63.844	 55.13998	 38.39500	  1.46906	-11.43440	 55.37525	 -1.62356	 67.01296	711.45001	 34.30	
 19.992	-75.457	 55.01476	 29.65585	  8.43306	-13.82161	 58.92886	 -1.52914	 67.00951	711.46997	 34.30	
 19.999	-87.075	 54.94075	 21.34371	 16.30793	-14.67264	 60.46253	 -1.49308	 67.00768	711.46002	 34.30	
 19.989	-98.733	 54.73211	 13.62737	 24.11298	-14.51057	 59.96641	 -1.36866	 66.94426	711.45001	 34.30	
 20.005	-110.327	 54.74513	  7.06356	 32.64003	-13.10849	 57.64998	 -1.38353	 67.01923	711.41998	 34.30	
 20.009	-121.926	 54.58427	  0.46188	 40.73687	-10.60258	 53.34544	 -1.47072	 67.01593	711.46002	 34.30	
 19.995	-133.545	 54.40306	 -5.11224	 48.06021	 -6.87942	 47.39856	 -1.56518	 67.01217	711.54999	 34.30	
 20.000	-145.147	 54.19489	 -9.52383	 54.04305	 -1.93007	 40.50370	 -1.71545	 67.02360	711.48999	 34.30	
 20.008	-156.764	 53.72382	-13.00308	 58.50573	  4.08777	 31.92921	 -1.86010	 67.00339	711.42999	 34.40	
 20.003	-168.362	 53.37220	-15.48058	 61.13514	 11.03049	 23.07042	 -2.11194	 67.03461	711.47998	 34.40	
 20.000	180.000	 53.00883	-16.38351	 61.80727	 18.76805	 14.80489	 -2.43250	 66.99553	711.44000	 34.40	
