FileType=PCF
NHL=14
Date=03/18/19	10:44:23
Facility=APL
Serial=16071-8
Customer=NASA
NP=6
Mach=0.380000
Calibration=1:1
CalPts=490
TstPts=95
PortNumbering=AP Standard
Units=Torr C m/s kg/m^3 deg mm 
Theta[deg]	Phi[deg]	P1[Torr]	P2[Torr]	P3[Torr]	P4[Torr]	P5[Torr]	P6[Torr]	Pt[Torr]	Ps[Abs,Torr]	Ts[C]	
  0.000	  0.000	 66.47152	 29.27476	 28.42584	 29.64337	 27.00061	  1.58267	 66.54667	710.28998	 37.10	
  1.691	128.401	 66.42831	 26.68667	 30.72768	 32.24224	 24.05644	  1.48845	 66.53227	710.31000	 37.10	
  1.692	 77.194	 66.45924	 29.86046	 27.54836	 33.08554	 23.27755	  1.59861	 66.55829	710.22998	 37.00	
  1.699	 26.182	 66.46480	 32.49952	 24.89076	 31.32520	 25.07861	  1.64561	 66.52786	710.19000	 37.00	
  1.699	-26.182	 66.45239	 32.63686	 24.81529	 28.04025	 28.52155	  1.60522	 66.49598	710.15002	 36.90	
  1.692	-77.194	 66.45766	 30.18469	 27.39027	 26.02782	 30.68827	  1.51533	 66.51662	710.26001	 36.90	
  1.691	-128.401	 66.43074	 26.94116	 30.60479	 26.60823	 30.08194	  1.42312	 66.51596	710.20001	 36.90	
  1.700	180.000	 66.39619	 25.45123	 32.06749	 29.36707	 27.04909	  1.42172	 66.48229	710.22998	 36.90	
  3.400	180.000	 66.31380	 21.67461	 35.48939	 28.92086	 26.97561	  1.17986	 66.52645	710.20001	 36.80	
  3.388	-152.325	 66.31927	 22.60081	 34.58729	 25.60062	 30.51889	  1.17366	 66.47142	710.23999	 36.80	
  3.397	-124.529	 66.38609	 25.00033	 32.18904	 23.10256	 33.24147	  1.20707	 66.52422	710.33002	 36.80	
  3.399	-96.763	 66.37457	 28.34393	 28.74282	 22.00865	 34.38854	  1.26743	 66.50362	710.26001	 36.70	
  3.394	-69.283	 66.34592	 31.90011	 25.10501	 22.53522	 33.77102	  1.35856	 66.46488	710.21002	 36.70	
  3.400	-41.398	 66.34642	 34.75367	 22.28920	 24.57953	 31.54518	  1.46600	 66.46381	710.17999	 36.70	
  3.401	-14.021	 66.31985	 36.19143	 20.82455	 27.78523	 28.18849	  1.55707	 66.48137	710.21002	 36.60	
  3.401	 14.021	 66.25010	 36.04268	 20.87658	 31.34730	 24.48218	  1.60997	 66.43977	710.32001	 36.60	
  3.400	 41.398	 66.21635	 34.26505	 22.49245	 34.29223	 21.56015	  1.59501	 66.46442	710.28003	 36.60	
  3.394	 69.283	 66.16882	 31.17386	 25.41278	 36.08029	 19.76608	  1.51342	 66.44104	710.23999	 36.60	
  3.399	 96.763	 66.12614	 27.55201	 28.99476	 36.32552	 19.46759	  1.39734	 66.40150	710.29999	 36.50	
  3.397	124.529	 66.14188	 24.40587	 32.35635	 34.97817	 20.74225	  1.29904	 66.40529	710.22998	 36.50	
  3.388	152.325	 66.17702	 22.26760	 34.64354	 32.29055	 23.38998	  1.21392	 66.39661	710.26001	 36.50	
  5.099	161.165	 65.84074	 18.24553	 38.22414	 31.87498	 22.96660	  0.83898	 66.41036	710.32001	 36.40	
  5.109	142.013	 65.76566	 19.69249	 36.42324	 35.08994	 19.81374	  0.87431	 66.38088	710.34998	 36.40	
  5.095	123.033	 65.74883	 22.14863	 33.76773	 37.66285	 17.51810	  0.98242	 66.40800	710.21997	 36.40	
  5.105	104.191	 65.71048	 25.21628	 30.45702	 39.33480	 16.08702	  1.08548	 66.38405	710.20001	 36.40	
  5.093	 85.207	 65.73294	 28.76943	 26.76326	 39.78168	 15.75212	  1.18414	 66.41198	710.32001	 36.30	
  5.104	 66.290	 65.73090	 32.43001	 23.23149	 39.01208	 16.42796	  1.30520	 66.38803	710.28998	 36.30	
  5.094	 47.331	 65.72815	 35.59147	 20.30783	 37.07226	 18.10590	  1.38472	 66.38412	710.25000	 36.30	
  5.089	 28.397	 65.78692	 37.98806	 18.20830	 34.34635	 20.66705	  1.44210	 66.39639	710.33002	 36.30	
  5.096	  9.576	 65.81603	 39.37003	 17.07473	 30.97616	 23.88654	  1.42207	 66.37496	710.38000	 36.30	
  5.096	 -9.576	 65.86575	 39.52688	 17.00653	 27.33742	 27.55544	  1.37342	 66.36844	710.35999	 36.20	
  5.089	-28.397	 65.94008	 38.48225	 17.98451	 24.00099	 31.23534	  1.28290	 66.38477	710.35999	 36.20	
  5.094	-47.331	 65.95788	 36.35427	 19.92275	 21.07506	 34.31311	  1.16695	 66.36487	710.37000	 36.20	
  5.104	-66.290	 66.03138	 33.42526	 22.70431	 19.07154	 36.53972	  1.07804	 66.40291	710.34003	 36.10	
  5.093	-85.207	 66.03127	 29.84180	 26.23150	 18.14107	 37.64752	  0.96376	 66.38751	710.38000	 36.10	
  5.105	-104.191	 66.01332	 26.13050	 30.00180	 18.28436	 37.48463	  0.89438	 66.35992	710.32001	 36.10	
  5.095	-123.033	 65.99354	 22.84165	 33.46334	 19.50116	 36.09065	  0.84009	 66.38121	710.33002	 36.10	
  5.109	-142.013	 65.92749	 20.19324	 36.22844	 21.71494	 33.62965	  0.81008	 66.34494	710.21002	 36.00	
  5.099	-161.165	 65.88260	 18.47220	 38.06287	 24.70552	 30.31363	  0.79571	 66.33930	710.26001	 36.00	
  5.100	180.000	 65.85804	 17.80644	 38.75357	 28.26177	 26.53142	  0.78261	 66.36854	710.46002	 36.00	
  6.800	180.000	 65.30115	 14.03410	 41.86555	 27.45436	 26.06283	  0.34532	 66.35603	710.40997	 36.00	
  6.796	-166.229	 65.35796	 14.52531	 41.38750	 24.07249	 29.73977	  0.34174	 66.36207	710.28998	 35.90	
  6.808	-152.311	 65.36050	 15.75795	 40.05946	 20.94354	 33.20073	  0.37796	 66.32256	710.35999	 35.90	
  6.795	-138.383	 65.42082	 17.72311	 37.83417	 18.31448	 36.16916	  0.38681	 66.32516	710.29999	 35.90	
  6.792	-124.591	 65.48181	 20.24841	 35.08586	 16.31896	 38.55080	  0.38881	 66.35881	710.31000	 35.90	
  6.787	-110.754	 65.46243	 23.25903	 31.84873	 15.01481	 40.08897	  0.43928	 66.29424	710.38000	 35.90	
  6.800	-96.985	 65.47934	 26.57540	 28.28594	 14.37803	 40.85756	  0.49963	 66.32304	710.35999	 35.90	
  6.800	-83.015	 65.48305	 30.24561	 24.48972	 14.48418	 40.76302	  0.55021	 66.32596	710.34998	 35.90	
  6.787	-69.246	 65.45748	 33.71283	 21.30625	 15.39231	 39.71674	  0.64128	 66.30938	710.32001	 35.80	
  6.792	-55.409	 65.37276	 36.77414	 18.41476	 16.82248	 37.86029	  0.70828	 66.28800	710.34003	 35.80	
  6.795	-41.617	 65.36849	 39.42675	 16.09313	 19.04591	 35.30866	  0.79393	 66.30560	710.32001	 35.80	
  6.808	-27.689	 65.33205	 41.41272	 14.40065	 21.91491	 32.16625	  0.92589	 66.33614	710.37000	 35.80	
  6.796	-13.771	 65.26159	 42.45728	 13.37026	 25.09831	 28.51017	  1.03130	 66.32798	710.41998	 35.70	
  6.800	  0.000	 65.17921	 42.69418	 13.02518	 28.55382	 24.92059	  1.09189	 66.29730	710.35999	 35.70	
  6.796	 13.771	 65.12537	 42.10240	 13.50136	 32.12412	 21.53507	  1.14480	 66.30243	710.34998	 35.70	
  6.808	 27.689	 65.05005	 40.70893	 14.63173	 35.37681	 18.40046	  1.13324	 66.28519	710.39001	 35.70	
  6.795	 41.617	 65.02665	 38.41450	 16.52867	 38.18742	 15.87025	  0.86739	 66.30376	710.31000	 35.70	
  6.792	 55.409	 64.99552	 35.60767	 18.96522	 40.56900	 13.84043	  0.99846	 66.28587	710.28003	 35.70	
  6.787	 69.246	 64.97461	 32.33078	 21.94140	 42.03732	 12.52490	  0.90322	 66.29704	710.26001	 35.70	
  6.800	 83.015	 64.95916	 28.71919	 25.20773	 42.82211	 11.81644	  0.77830	 66.28950	710.28998	 35.60	
  6.800	 96.985	 64.94743	 25.23433	 28.90675	 42.64618	 11.93372	  0.69417	 66.26716	710.39001	 35.60	
  6.787	110.754	 64.98584	 22.06542	 32.36237	 41.62123	 12.83893	  0.61529	 66.27177	710.21997	 35.60	
  6.792	124.591	 65.04122	 19.25057	 35.48854	 39.92002	 14.37325	  0.52792	 66.30516	710.15002	 35.60	
  6.795	138.383	 65.06189	 16.97919	 38.14925	 37.32650	 16.60172	  0.25352	 66.25352	710.22998	 35.60	
  6.808	152.311	 65.11591	 15.27228	 40.26562	 34.35204	 19.36573	  0.40973	 66.29160	710.20001	 35.60	
  6.796	166.229	 65.15582	 14.29206	 41.44426	 30.98688	 22.56759	  0.36865	 66.26113	710.12000	 35.60	
  8.491	168.704	 64.41685	 10.38941	 44.63892	 30.13855	 21.93230	 -0.19192	 66.31456	710.32001	 35.60	
  8.502	157.493	 64.33927	 11.11538	 43.58186	 33.64470	 18.59558	 -0.28754	 66.29993	710.19000	 35.60	
  8.494	146.194	 64.28265	 12.52112	 41.72071	 36.81303	 15.67730	 -0.37868	 66.25260	710.21002	 35.50	
  8.495	135.039	 64.20575	 14.37541	 39.46422	 39.77134	 13.08649	 -0.38420	 66.25858	710.21997	 35.50	
  8.487	123.723	 64.17835	 16.76329	 36.62255	 42.17196	 10.94844	  0.02138	 66.27622	710.22998	 35.50	
  8.492	112.575	 64.12292	 19.48614	 33.46822	 44.13409	  9.35485	 -0.26056	 66.24834	710.28003	 35.50	
  8.510	101.220	 64.09134	 22.64553	 29.92345	 45.45699	  8.29704	  0.11796	 66.26014	710.25000	 35.50	
  8.500	 90.000	 64.07074	 26.04512	 26.21025	 45.93264	  8.00587	  0.23894	 66.24857	710.20001	 35.50	
  8.510	 78.780	 64.02731	 29.54077	 22.75214	 45.70918	  8.22719	  0.32822	 66.21809	710.25000	 35.40	
  8.492	 67.425	 64.04740	 33.25473	 19.44322	 44.65506	  8.98363	  0.35462	 66.24014	710.27002	 35.40	
  8.487	 56.277	 64.09126	 36.52459	 16.56542	 42.94368	 10.31142	  0.53708	 66.26714	710.17999	 35.40	
  8.495	 44.961	 64.10972	 39.50136	 14.05939	 40.72260	 12.24340	  0.28721	 66.25252	710.25000	 35.40	
  8.494	 33.806	 64.12625	 41.96717	 12.05725	 37.93555	 14.61705	  0.73296	 66.22579	710.27002	 35.40	
  8.502	 22.507	 64.14691	 43.76206	 10.48354	 34.90455	 17.34645	  0.74270	 66.22069	710.23999	 35.40	
  8.491	 11.296	 64.22258	 45.07815	  9.54203	 31.46066	 20.58389	  0.76516	 66.23392	710.28003	 35.30	
  8.500	  0.000	 64.27573	 45.64846	  9.20165	 27.78180	 24.05578	  0.70665	 66.22856	710.28998	 35.30	
  8.491	-11.296	 64.36407	 45.45389	  9.45647	 24.40265	 27.56649	  0.61477	 66.24662	710.23999	 35.30	
  8.502	-22.507	 64.44350	 44.52436	 10.24379	 21.07329	 31.34534	  0.49999	 66.27207	710.23999	 35.30	
  8.494	-33.806	 64.49184	 42.87202	 11.65206	 18.03108	 34.79889	  0.36967	 66.23989	710.15002	 35.30	
  8.495	-44.961	 64.52795	 40.75750	 13.54303	 15.54049	 37.72380	 -0.05273	 66.22105	710.20001	 35.30	
  8.487	-56.277	 64.62574	 37.98041	 15.97643	 13.48805	 40.31591	  0.20194	 66.27952	710.21002	 35.30	
  8.492	-67.425	 64.63847	 34.87671	 18.76102	 11.84106	 42.15218	  0.12994	 66.26550	710.23999	 35.30	
  8.510	-78.780	 64.64848	 31.31464	 21.94955	 10.74851	 43.39285	  0.03844	 66.26900	710.22998	 35.30	
  8.500	-90.000	 64.62289	 27.60205	 25.35763	 10.45901	 43.85117	 -0.01771	 66.21990	710.21997	 35.30	
  8.510	-101.220	 64.66035	 24.20292	 29.15503	 10.61887	 43.66280	 -0.06228	 66.25457	710.23999	 35.30	
  8.492	-112.575	 64.66071	 20.89914	 32.76953	 11.44340	 42.60324	 -0.08134	 66.24354	710.31000	 35.30	
  8.487	-123.723	 64.61478	 17.98059	 35.95137	 12.77119	 41.00859	 -0.34554	 66.20123	710.28998	 35.20	
  8.495	-135.039	 64.60229	 15.36817	 38.93431	 14.67056	 38.74570	 -0.17020	 66.20757	710.33002	 35.20	
  8.494	-146.194	 64.57626	 13.24162	 41.30623	 16.98898	 35.97948	 -0.12744	 66.23875	710.28003	 35.20	
  8.502	-157.493	 64.50191	 11.61847	 43.20581	 19.85561	 32.69974	 -0.15435	 66.21754	710.22998	 35.20	
  8.491	-168.704	 64.47017	 10.58149	 44.44879	 23.08801	 29.07953	 -0.18503	 66.23507	710.28998	 35.20	
  8.500	180.000	 64.39090	 10.19697	 44.89635	 26.41549	 25.41390	 -0.19824	 66.20837	710.38000	 35.20	
 10.200	180.000	 63.39626	  6.41709	 47.78014	 25.31410	 24.68020	 -0.72484	 66.20911	710.44000	 35.20	
 10.191	-170.497	 63.47809	  6.79701	 47.39927	 22.04913	 28.18602	 -0.83394	 66.25489	710.33002	 35.10	
 10.210	-161.034	 63.48899	  7.53327	 46.34175	 18.70056	 31.99456	 -1.01409	 66.21536	710.33002	 35.10	
 10.194	-151.526	 63.58239	  8.93665	 44.65453	 15.73582	 35.47943	 -0.69142	 66.23011	710.34998	 35.10	
 10.190	-142.105	 63.60377	 10.75936	 42.38394	 13.22806	 38.48222	 -0.64143	 66.20151	710.32001	 35.10	
 10.215	-132.646	 63.65240	 12.95317	 39.85752	 10.99373	 41.22345	 -0.88789	 66.23619	710.17999	 35.10	
 10.203	-123.092	 63.65210	 15.57113	 36.77287	  9.16288	 43.41296	 -0.97771	 66.23157	710.40002	 35.10	
 10.192	-113.678	 63.63447	 18.44536	 33.51337	  7.83081	 45.19798	 -0.76298	 66.21561	710.31000	 35.10	
 10.208	-104.249	 63.62321	 21.64878	 29.91107	  6.95083	 46.41914	 -0.68135	 66.21188	710.25000	 35.10	
 10.210	-94.801	 63.64315	 25.09155	 26.14739	  6.65278	 46.94415	 -0.56043	 66.22465	710.22998	 35.10	
 10.210	-85.199	 63.62283	 28.62960	 22.58990	  6.76395	 46.79526	 -0.65792	 66.24432	710.19000	 35.10	
 10.208	-75.751	 63.58240	 32.36381	 19.18586	  7.19960	 46.01989	 -0.49585	 66.23734	710.32001	 35.10	
 10.192	-66.322	 63.56254	 35.81451	 16.11503	  8.31584	 44.50376	 -0.84819	 66.22680	710.17999	 35.00	
 10.203	-56.908	 63.52716	 38.98325	 13.30638	  9.83050	 42.57319	 -0.42895	 66.22622	710.32001	 35.00	
 10.215	-47.354	 63.47657	 41.86861	 10.82106	 11.81229	 40.15696	 -0.70988	 66.22929	710.22998	 35.00	
 10.190	-37.895	 63.45032	 44.19840	  8.80463	 14.24084	 37.19864	 -0.38951	 66.22770	710.31000	 35.00	
 10.194	-28.474	 63.37438	 46.23750	  7.28688	 16.95263	 33.97412	 -0.12006	 66.22452	710.25000	 35.00	
 10.210	-18.966	 63.26531	 47.66957	  6.09321	 20.05761	 30.27637	 -0.23618	 66.18907	710.15997	 35.00	
 10.191	 -9.503	 63.24607	 48.42455	  5.46625	 23.51473	 26.55779	  0.12572	 66.19326	710.28998	 35.00	
 10.200	  0.000	 63.20997	 48.57715	  5.33299	 26.85571	 23.03532	  0.23845	 66.23260	710.15997	 35.00	
 10.191	  9.503	 63.11883	 48.04461	  5.60020	 30.57791	 19.50226	  0.08210	 66.20415	710.15997	 35.00	
 10.210	 18.966	 63.07410	 46.93360	  6.40995	 34.16612	 16.18115	  0.20983	 66.24757	710.25000	 35.00	
 10.194	 28.474	 63.04493	 45.13470	  7.72392	 37.40299	 13.30102	  0.15019	 66.24228	710.16998	 35.00	
 10.190	 37.895	 62.99840	 42.91978	  9.43491	 40.42289	 10.71154	 -0.07251	 66.21564	710.23999	 34.90	
 10.215	 47.354	 62.95426	 40.31657	 11.46278	 43.04871	  8.44981	 -0.53162	 66.22482	710.26001	 34.90	
 10.203	 56.908	 62.90405	 37.21968	 13.97466	 45.37141	  6.60393	 -0.51133	 66.22107	710.26001	 34.90	
 10.192	 66.322	 62.92019	 33.92820	 16.89141	 47.10367	  5.28568	 -0.64368	 66.24307	710.22998	 34.90	
 10.208	 75.751	 62.91785	 30.27588	 20.08994	 48.23092	  4.50573	 -0.52715	 66.20895	710.27002	 34.90	
 10.210	 85.199	 62.93127	 26.74873	 23.53032	 48.74661	  4.09121	 -0.37150	 66.19778	710.13000	 34.90	
 10.210	 94.801	 62.99235	 23.19252	 27.11644	 48.60777	  4.22878	 -0.94659	 66.23880	710.21997	 34.90	
 10.208	104.249	 62.98653	 19.87084	 30.81960	 47.85246	  4.77128	 -0.44573	 66.20654	710.19000	 34.90	
 10.192	113.678	 63.02586	 16.85163	 34.30719	 46.44370	  5.87089	 -0.98480	 66.23093	710.14001	 34.80	
 10.203	123.092	 63.05849	 14.08434	 37.52426	 44.51024	  7.33798	 -0.79341	 66.22903	710.27002	 34.80	
 10.215	132.646	 63.09887	 11.62717	 40.50749	 41.96991	  9.31931	 -0.90400	 66.24171	710.10999	 34.80	
 10.190	142.105	 63.16348	  9.65437	 43.00827	 39.12435	 11.80063	 -1.15252	 66.23257	710.23999	 34.80	
 10.194	151.526	 63.20374	  8.05281	 45.12197	 35.93344	 14.60510	 -1.09858	 66.21651	710.21997	 34.80	
 10.210	161.034	 63.22842	  6.99809	 46.66623	 32.58620	 17.68130	 -1.07689	 66.21465	710.21002	 34.80	
 10.191	170.497	 63.32763	  6.47698	 47.54449	 29.00997	 21.11236	 -0.89780	 66.21774	710.21002	 34.80	
 11.899	171.783	 62.10905	  2.51610	 50.26986	 27.68868	 20.21452	 -1.73563	 66.19289	710.21002	 34.80	
 11.890	163.610	 62.02913	  2.99968	 49.47192	 31.37381	 16.83992	 -1.66446	 66.19804	710.25000	 34.80	
 11.889	155.445	 61.94946	  3.85795	 48.14733	 34.78690	 13.66079	 -1.71090	 66.17409	710.19000	 34.80	
 11.909	147.299	 61.89777	  5.00785	 46.37940	 38.12082	 10.60131	 -1.83476	 66.21137	710.26001	 34.80	
 11.902	139.148	 61.79512	  6.81425	 44.00620	 41.22873	  7.88166	 -1.89819	 66.18384	710.26001	 34.80	
 11.894	130.867	 61.75994	  8.83482	 41.26538	 43.98991	  5.78917	 -1.82326	 66.17358	710.22998	 34.80	
 11.897	122.732	 61.75593	 11.30643	 38.29385	 46.46907	  3.81828	 -1.69403	 66.18703	710.22998	 34.80	
 11.903	114.597	 61.70213	 14.01625	 35.04620	 48.48126	  2.29259	 -1.67707	 66.16878	710.19000	 34.80	
 11.893	106.346	 61.68649	 17.05050	 31.52123	 49.98830	  1.21288	 -1.69879	 66.19678	710.22998	 34.80	
 11.892	 98.155	 61.65621	 20.36766	 27.73156	 50.92002	  0.59155	 -1.72883	 66.15865	710.16998	 34.80	
 11.900	 90.000	 61.63125	 23.81652	 24.22520	 51.36566	  0.23997	 -1.64224	 66.18485	710.20001	 34.80	
 11.892	 81.845	 61.60396	 27.31477	 20.76097	 51.23237	  0.32546	 -1.51402	 66.20100	710.15997	 34.80	
 11.893	 73.654	 61.55320	 30.79163	 17.40071	 50.50477	  0.82842	 -1.39710	 66.16880	710.32001	 34.80	
 11.903	 65.403	 61.56453	 34.51522	 14.25136	 49.27363	  1.69965	 -1.31928	 66.18035	710.21002	 34.80	
 11.897	 57.268	 61.59856	 37.84948	 11.41904	 47.51383	  2.95876	 -1.31858	 66.20617	710.25000	 34.80	
 11.894	 49.133	 61.59410	 40.95179	  8.86218	 45.28987	  4.60042	 -1.27489	 66.21733	710.20001	 34.80	
 11.902	 40.852	 61.58347	 43.67411	  6.52610	 42.60428	  6.76905	 -1.09824	 66.18815	710.17999	 34.80	
 11.909	 32.701	 61.65056	 46.15751	  4.72678	 39.75408	  9.10398	 -0.81294	 66.22226	710.09998	 34.80	
 11.889	 24.555	 61.69204	 48.17981	  3.30816	 36.53105	 11.89267	 -0.70038	 66.19496	710.19000	 34.80	
 11.890	 16.390	 61.76181	 49.73165	  2.27599	 33.19024	 14.93803	 -0.72686	 66.20233	710.09003	 34.80	
 11.899	  8.217	 61.80675	 50.73849	  1.60119	 29.51493	 18.31266	 -0.80281	 66.19209	710.09998	 34.80	
 11.900	  0.000	 61.92310	 51.25304	  1.33945	 25.94512	 21.85133	 -0.81866	 66.23359	710.15002	 34.70	
 11.899	 -8.217	 61.97227	 51.15007	  1.55072	 22.50826	 25.44464	 -0.73264	 66.21397	710.15997	 34.70	
 11.890	-16.390	 62.02528	 50.46810	  2.20159	 19.13307	 29.01760	 -0.94220	 66.20596	710.15997	 34.70	
 11.889	-24.555	 62.07716	 49.27178	  3.02726	 15.93410	 32.82232	 -0.98580	 66.19743	710.26001	 34.70	
 11.909	-32.701	 62.08710	 47.58411	  4.26126	 13.02569	 36.21975	 -1.07879	 66.19423	710.14001	 34.70	
 11.902	-40.852	 62.12652	 45.32074	  5.98935	 10.37069	 39.39986	 -1.19639	 66.18248	710.12000	 34.70	
 11.894	-49.133	 62.15895	 42.70994	  8.07872	  8.10792	 42.21341	 -1.25313	 66.17298	710.21002	 34.70	
 11.897	-57.268	 62.21157	 39.83297	 10.43736	  6.16168	 44.64543	 -1.25458	 66.17607	710.17999	 34.70	
 11.903	-65.403	 62.27304	 36.63984	 13.24815	  4.75838	 46.72517	 -1.27855	 66.19040	710.13000	 34.70	
 11.893	-73.654	 62.29586	 33.16848	 16.35251	  3.59942	 48.25436	 -1.22105	 66.17249	710.12000	 34.70	
 11.892	-81.845	 62.31586	 29.42770	 19.70737	  2.97686	 49.20073	 -1.30510	 66.14522	710.23999	 34.70	
 11.900	-90.000	 62.34672	 25.90420	 23.18654	  2.66069	 49.64527	 -1.07507	 66.15582	710.17999	 34.70	
 11.892	-98.155	 62.38926	 22.48565	 26.70659	  2.80998	 49.50504	 -1.19766	 66.16883	710.23999	 34.70	
 11.893	-106.346	 62.43167	 19.12150	 30.53630	  3.34201	 48.84261	 -1.25742	 66.22389	710.12000	 34.70	
 11.903	-114.597	 62.36285	 15.90178	 34.08186	  4.17186	 47.51654	 -1.28340	 66.13494	710.13000	 34.70	
 11.897	-122.732	 62.38734	 12.97735	 37.39539	  5.42302	 45.72787	 -1.31830	 66.17971	710.13000	 34.70	
 11.894	-130.867	 62.38756	 10.36864	 40.49673	  7.21062	 43.36999	 -1.39121	 66.17234	710.23999	 34.70	
 11.902	-139.148	 62.35822	  8.08848	 43.22026	  9.26434	 40.82512	 -1.09996	 66.15003	710.20001	 34.70	
 11.909	-147.299	 62.34040	  6.16775	 45.70911	 11.64153	 37.87497	 -1.41871	 66.16785	710.21997	 34.60	
 11.889	-155.445	 62.27269	  4.62536	 47.65495	 14.37362	 34.63240	 -1.46838	 66.15291	710.15002	 34.60	
 11.890	-163.610	 62.24136	  3.56974	 49.12778	 17.47460	 31.03332	 -1.60661	 66.14568	710.26001	 34.60	
 11.899	-171.783	 62.18887	  2.77716	 50.08600	 20.77649	 27.26384	 -1.70544	 66.16889	710.28003	 34.60	
 11.900	180.000	 62.08340	  2.38637	 50.43264	 24.12576	 23.75127	 -1.65075	 66.11818	710.31000	 34.60	
 13.600	180.000	 60.61923	 -1.46591	 52.91450	 22.75520	 22.58204	 -2.18675	 66.13389	710.22998	 34.60	
 13.608	-172.853	 60.67188	 -1.20397	 52.60719	 19.40417	 26.06955	 -2.14429	 66.14362	710.19000	 34.60	
 13.611	-165.583	 60.77031	 -0.52123	 51.80054	 16.10490	 29.71388	 -2.01812	 66.16836	710.17999	 34.60	
 13.601	-158.353	 60.81586	  0.46762	 50.47358	 12.96598	 33.54549	 -1.84641	 66.15969	710.23999	 34.60	
 13.609	-151.210	 60.86565	  1.72180	 48.70358	 10.20197	 36.90271	 -1.73038	 66.14006	710.21997	 34.60	
 13.611	-143.999	 60.90474	  3.36750	 46.45436	  7.58998	 40.14080	 -1.67286	 66.13744	710.17999	 34.60	
 13.601	-136.825	 60.89469	  5.34799	 43.79040	  5.39166	 42.92225	 -1.59328	 66.13080	710.21002	 34.60	
 13.596	-129.640	 60.88202	  7.81422	 41.00434	  3.26917	 45.50021	 -1.53336	 66.12154	710.34003	 34.60	
 13.611	-122.431	 60.92178	 10.29556	 37.90931	  1.67003	 47.83052	 -1.44663	 66.15128	710.28003	 34.60	
 13.604	-115.211	 60.90977	 13.19308	 34.52722	  0.45637	 49.64282	 -1.40875	 66.15191	710.22998	 34.60	
 13.595	-108.042	 60.86136	 16.29204	 30.92059	 -0.45763	 50.96451	 -1.35626	 66.11165	710.25000	 34.60	
 13.607	-100.793	 60.87888	 19.62981	 27.16131	 -1.03663	 51.87769	 -1.38137	 66.15059	710.25000	 34.60	
 13.601	-93.617	 60.84140	 23.05321	 23.59689	 -1.27990	 52.22602	 -1.39298	 66.12041	710.28003	 34.60	
 13.601	-86.383	 60.78877	 26.53670	 20.04350	 -1.23507	 52.07040	 -1.47208	 66.12048	710.27002	 34.60	
 13.607	-79.207	 60.76078	 30.03579	 16.68867	 -0.77116	 51.45964	 -1.49898	 66.12131	710.28998	 34.60	
 13.595	-71.958	 60.73936	 33.78780	 13.46237	 -0.00213	 50.28610	 -1.49773	 66.09184	710.14001	 34.60	
 13.604	-64.789	 60.69368	 37.22620	 10.43722	  1.02652	 48.69790	 -1.51229	 66.09718	710.20001	 34.50	
 13.611	-57.569	 60.66735	 40.51032	  7.78463	  2.40714	 46.59999	 -1.52369	 66.12244	710.26001	 34.60	
 13.596	-50.360	 60.61737	 43.41753	  5.30535	  4.32640	 44.03213	 -1.55926	 66.11798	710.21997	 34.60	
 13.601	-43.175	 60.59441	 46.11769	  2.95388	  6.53845	 41.43019	 -1.58308	 66.11844	710.20001	 34.50	
 13.611	-36.001	 60.51498	 48.51887	  1.31261	  8.94729	 38.35818	 -1.53870	 66.10292	710.28003	 34.50	
 13.609	-28.790	 60.51123	 50.51845	 -0.05488	 11.67602	 35.00967	 -1.44629	 66.15052	710.16998	 34.50	
 13.601	-21.647	 60.44899	 52.00528	 -1.11426	 14.57494	 31.39600	 -1.41363	 66.15514	710.12000	 34.50	
 13.611	-14.417	 60.38926	 53.06079	 -1.90579	 17.84063	 27.67278	 -1.39954	 66.15295	710.09003	 34.50	
 13.608	 -7.147	 60.37815	 53.60657	 -2.43293	 21.31680	 23.97766	 -1.36878	 66.15419	710.08002	 34.50	
 13.600	  0.000	 60.32450	 53.63889	 -2.58588	 24.72991	 20.45357	 -1.37108	 66.14404	710.15997	 34.50	
 13.608	  7.147	 60.25331	 53.19880	 -2.37988	 28.14021	 16.95903	 -1.33302	 66.13260	710.15002	 34.50	
 13.611	 14.417	 60.20126	 52.30647	 -1.84552	 31.92352	 13.53191	 -1.27652	 66.14910	710.08002	 34.50	
 13.601	 21.647	 60.15224	 50.90751	 -0.90355	 35.43769	 10.42602	 -1.24071	 66.13333	710.04999	 34.50	
 13.609	 28.790	 60.13360	 49.11618	  0.28547	 38.79511	  7.72447	 -1.29086	 66.18075	710.09998	 34.50	
 13.611	 36.001	 60.05325	 46.76634	  1.89776	 41.90584	  4.88042	 -1.51287	 66.13602	710.08002	 34.50	
 13.601	 43.175	 60.05486	 44.19492	  3.90994	 44.67458	  2.69558	 -1.77979	 66.17310	710.06000	 34.50	
 13.596	 50.360	 59.96132	 41.41119	  6.08632	 47.28027	  0.80051	 -1.94958	 66.14486	710.19000	 34.50	
 13.611	 57.569	 59.90593	 38.23638	  8.60675	 49.53165	 -0.87066	 -1.99833	 66.13445	710.20001	 34.50	
 13.604	 64.789	 59.91359	 34.81800	 11.42774	 51.28594	 -2.08500	 -2.01406	 66.11240	710.15997	 34.50	
 13.595	 71.958	 59.93402	 31.13572	 14.46001	 52.56524	 -2.98967	 -2.07081	 66.12287	710.15997	 34.50	
 13.607	 79.207	 59.95359	 27.68433	 17.76085	 53.43213	 -3.53271	 -2.14684	 66.13210	710.21002	 34.50	
 13.601	 86.383	 59.99749	 24.22622	 21.16258	 53.75776	 -3.64574	 -2.26473	 66.13102	710.19000	 34.50	
 13.601	 93.617	 60.07022	 20.71852	 24.68180	 53.62594	 -3.54926	 -2.37155	 66.12746	710.21002	 34.50	
 13.607	100.793	 60.08686	 17.31286	 28.22856	 53.01408	 -3.11291	 -2.38080	 66.11680	710.09998	 34.50	
 13.595	108.042	 60.12891	 14.08481	 32.03233	 51.93520	 -2.39268	 -2.32166	 66.14442	710.21002	 34.50	
 13.604	115.211	 60.16185	 11.12141	 35.55075	 50.39138	 -1.35491	 -2.29308	 66.11987	710.15002	 34.50	
 13.611	122.431	 60.15620	  8.59691	 38.87636	 48.34479	  0.08904	 -2.33702	 66.09945	710.16998	 34.50	
 13.596	129.640	 60.20338	  5.96511	 41.88682	 45.86797	  1.96702	 -2.44720	 66.09251	710.20001	 34.50	
 13.601	136.825	 60.27757	  3.85446	 44.70978	 43.04647	  4.12536	 -2.52001	 66.12200	710.21002	 34.50	
 13.611	143.999	 60.31181	  2.03076	 47.22874	 40.17371	  6.80805	 -2.49061	 66.11855	710.21002	 34.50	
 13.609	151.210	 60.38467	  0.66779	 49.30668	 36.84967	  9.37849	 -2.34695	 66.08498	710.22998	 34.50	
 13.601	158.353	 60.42074	 -0.30921	 50.90895	 33.41159	 12.46010	 -2.19517	 66.10297	710.12000	 34.50	
 13.611	165.583	 60.48770	 -1.06122	 52.07153	 29.84888	 15.64680	 -2.16114	 66.12527	710.12000	 34.50	
 13.608	172.853	 60.54635	 -1.45924	 52.74637	 26.17546	 19.11243	 -2.16655	 66.13521	710.16998	 34.50	
 15.298	173.587	 58.89128	 -5.31063	 55.06527	 24.64198	 17.83556	 -2.43208	 66.11684	710.13000	 34.50	
 15.291	167.167	 58.87466	 -4.95954	 54.45594	 28.11560	 14.45332	 -2.50026	 66.11046	710.13000	 34.50	
 15.307	160.676	 58.81457	 -4.38089	 53.41121	 31.79494	 11.19034	 -2.58856	 66.10240	710.26001	 34.50	
 15.300	154.261	 58.73573	 -3.60841	 51.99463	 35.35601	  8.27566	 -2.71838	 66.11263	710.15997	 34.50	
 15.288	147.854	 58.68575	 -2.37844	 50.14196	 38.73435	  5.32463	 -2.90634	 66.10415	710.14001	 34.50	
 15.293	141.428	 58.65637	 -0.76796	 47.89825	 41.87839	  2.67178	 -3.03754	 66.13660	710.13000	 34.50	
 15.299	134.985	 58.61151	  1.05605	 45.21967	 44.84149	  0.37574	 -3.08053	 66.14404	710.19000	 34.50	
 15.305	128.583	 58.51762	  3.08262	 42.34590	 47.63084	 -1.66205	 -3.07244	 66.13881	710.15002	 34.40	
 15.309	122.142	 58.46908	  5.42826	 39.28893	 50.07828	 -3.45157	 -2.99411	 66.15525	710.13000	 34.50	
 15.304	115.711	 58.42799	  8.27958	 35.91317	 52.02420	 -4.93620	 -2.93048	 66.11697	710.10999	 34.40	
 15.297	109.291	 58.45609	 11.11791	 32.36454	 53.57710	 -5.97113	 -2.93591	 66.12586	710.09003	 34.40	
 15.293	102.897	 58.42066	 14.19053	 28.62889	 54.76376	 -6.66441	 -2.98171	 66.12997	710.15002	 34.40	
 15.293	 96.458	 58.37104	 17.53606	 25.03068	 55.57236	 -7.20424	 -3.01337	 66.09838	710.21997	 34.50	
 15.300	 90.000	 58.29594	 20.97367	 21.48179	 55.93504	 -7.42338	 -2.97326	 66.11382	710.15997	 34.50	
 15.293	 83.542	 58.25065	 24.40780	 18.09772	 55.82604	 -7.34527	 -2.89020	 66.12379	710.16998	 34.50	
 15.293	 77.103	 58.19411	 27.88780	 14.73364	 55.29739	 -7.17557	 -2.82650	 66.12134	710.15997	 34.50	
 15.297	 70.709	 58.19691	 31.22703	 11.56390	 54.36270	 -6.56798	 -2.77538	 66.12875	710.20001	 34.50	
 15.304	 64.289	 58.11338	 34.94625	  8.61397	 53.01304	 -5.70334	 -2.71060	 66.08410	710.08002	 34.50	
 15.309	 57.858	 58.10782	 38.44280	  5.93517	 51.27629	 -4.52108	 -2.64107	 66.10759	710.13000	 34.40	
 15.305	 51.417	 58.12828	 41.64345	  3.31356	 49.06275	 -2.88473	 -2.56312	 66.07063	710.10999	 34.40	
 15.299	 45.015	 58.25079	 44.49700	  1.10099	 46.54520	 -1.06836	 -2.43211	 66.12509	710.13000	 34.40	
 15.293	 38.572	 58.27919	 47.18619	 -0.83537	 43.66958	  0.99421	 -2.19257	 66.10738	709.96997	 34.40	
 15.288	 32.146	 58.29625	 49.68012	 -2.58691	 40.75742	  3.29269	 -1.95613	 66.11566	710.08002	 34.40	
 15.300	 25.739	 58.33763	 51.77203	 -4.08368	 37.51162	  6.12218	 -1.80647	 66.15128	710.00000	 34.40	
 15.307	 19.324	 58.35056	 53.38591	 -5.16010	 34.03242	  9.15923	 -1.74061	 66.12387	710.13000	 34.40	
 15.291	 12.833	 58.40443	 54.56345	 -5.86485	 30.40283	 12.05088	 -1.75158	 66.09676	710.10999	 34.40	
 15.298	  6.413	 58.51233	 55.48144	 -6.37309	 26.88001	 15.43955	 -1.80263	 66.14495	710.12000	 34.40	
 15.300	  0.000	 58.55250	 55.87893	 -6.43958	 23.34815	 18.97404	 -1.79378	 66.11461	710.09003	 34.40	
 15.298	 -6.413	 58.58374	 55.81123	 -6.21427	 20.01459	 22.45343	 -1.76757	 66.08555	710.08002	 34.40	
 15.291	-12.833	 58.62218	 55.33180	 -5.81159	 16.62711	 26.09688	 -1.72468	 66.12553	710.02002	 34.40	
 15.307	-19.324	 58.67462	 54.44275	 -5.12927	 13.33021	 29.69008	 -1.69587	 66.13696	710.00000	 34.40	
 15.300	-25.739	 58.76540	 53.17010	 -4.21125	 10.39885	 33.36347	 -1.69217	 66.15529	710.00000	 34.40	
 15.288	-32.146	 58.79530	 51.37509	 -3.03084	  7.75365	 36.92360	 -1.71655	 66.10025	710.09003	 34.40	
 15.293	-38.572	 58.87246	 49.25481	 -1.56166	  5.03783	 40.24369	 -1.74176	 66.12267	710.06000	 34.40	
 15.299	-45.015	 58.96425	 46.72404	  0.26769	  2.61702	 43.17491	 -1.71891	 66.13522	710.10999	 34.40	
 15.305	-51.417	 58.99556	 43.92866	  2.37264	  0.61149	 45.85089	 -1.63711	 66.13696	710.04999	 34.40	
 15.309	-57.858	 58.97722	 40.99347	  4.84206	 -1.16268	 48.39179	 -1.55061	 66.11570	710.07001	 34.40	
 15.304	-64.289	 59.02449	 37.68024	  7.72713	 -2.58594	 50.53350	 -1.50364	 66.10905	710.14001	 34.40	
 15.297	-70.709	 59.05316	 34.20479	 10.50247	 -3.68473	 52.17493	 -1.46374	 66.11552	710.07001	 34.40	
 15.293	-77.103	 59.08501	 30.48281	 13.57407	 -4.51311	 53.39019	 -1.46025	 66.12328	710.03003	 34.40	
 15.293	-83.542	 59.09563	 26.95624	 16.94308	 -5.06638	 54.18672	 -1.38706	 66.10786	710.06000	 34.40	
 15.300	-90.000	 59.15318	 23.48318	 20.41424	 -5.16600	 54.56136	 -1.37606	 66.11106	710.01001	 34.40	
 15.293	-96.458	 59.18090	 20.05262	 23.92404	 -5.06426	 54.44595	 -1.31655	 66.09538	710.07001	 34.30	
 15.293	-102.897	 59.17196	 16.66978	 27.42381	 -4.79669	 53.88919	 -1.30490	 66.07867	710.00000	 34.30	
 15.297	-109.291	 59.17833	 13.46438	 31.05258	 -4.17528	 52.92180	 -1.27677	 66.09064	710.03003	 34.40	
 15.304	-115.711	 59.18589	 10.47169	 34.69976	 -3.34581	 51.56956	 -1.30755	 66.09650	710.15997	 34.30	
 15.309	-122.142	 59.21990	  7.65203	 38.14057	 -2.08109	 49.73962	 -1.41150	 66.10510	709.97998	 34.40	
 15.305	-128.583	 59.26865	  5.02273	 41.32274	 -0.41468	 47.46521	 -1.49646	 66.10322	710.07001	 34.40	
 15.299	-134.985	 59.27617	  2.78870	 44.15819	  1.42270	 44.80039	 -1.57174	 66.10311	709.96997	 34.30	
 15.293	-141.428	 59.26885	  0.68944	 46.98425	  3.53535	 42.14936	 -1.61518	 66.15907	710.01001	 34.30	
 15.288	-147.854	 59.21750	 -1.13375	 49.38480	  6.10683	 39.01688	 -1.71948	 66.11207	709.89001	 34.30	
 15.300	-154.261	 59.16986	 -2.58421	 51.40380	  8.59425	 35.66118	 -1.83694	 66.14315	709.91998	 34.30	
 15.307	-160.676	 59.09363	 -3.69510	 52.91985	 11.42858	 32.08601	 -1.98590	 66.08545	709.96997	 34.30	
 15.291	-167.167	 59.09170	 -4.55344	 54.12440	 14.65273	 28.28503	 -2.18149	 66.15438	709.96002	 34.30	
 15.298	-173.587	 59.03876	 -5.09350	 54.94114	 17.96421	 24.68188	 -2.33097	 66.15374	710.06000	 34.30	
 15.300	180.000	 58.95199	 -5.28170	 55.23314	 21.23906	 21.25105	 -2.40449	 66.12248	710.08002	 34.30	
 17.000	180.000	 57.01048	 -9.09338	 57.32933	 19.65027	 19.72642	 -2.47931	 66.11646	710.09003	 34.30	
 16.990	-174.179	 57.10018	 -9.01045	 57.07100	 16.39228	 23.13577	 -2.34902	 66.13612	710.04999	 34.30	
 17.009	-168.383	 57.12951	 -8.58580	 56.36293	 13.02344	 26.73997	 -2.16938	 66.11670	710.09003	 34.30	
 17.000	-162.596	 57.20773	 -7.77572	 55.24684	  9.88549	 30.32497	 -2.03957	 66.10207	710.09998	 34.30	
 16.990	-156.759	 57.28423	 -6.75966	 53.76200	  7.18745	 34.06526	 -1.85087	 66.11826	710.09003	 34.30	
 16.995	-150.919	 57.29491	 -5.52123	 51.96756	  4.28600	 37.61966	 -1.70556	 66.11204	710.09003	 34.30	
 16.988	-145.161	 57.33667	 -3.88169	 49.79623	  1.74300	 40.89934	 -1.57853	 66.11126	710.19000	 34.30	
 17.014	-139.343	 57.34821	 -2.07568	 47.28638	 -0.44491	 43.80788	 -1.48503	 66.10912	710.08002	 34.30	
 17.007	-133.546	 57.34895	  0.06025	 44.35759	 -2.36333	 46.58973	 -1.39693	 66.09337	710.10999	 34.30	
 17.001	-127.699	 57.32079	  2.35747	 41.40475	 -4.19418	 49.23719	 -1.34170	 66.09988	710.15002	 34.30	
 17.006	-121.937	 57.25118	  4.79730	 38.21425	 -5.73612	 51.44893	 -1.22238	 66.07934	710.07001	 34.30	
 17.002	-116.134	 57.21666	  7.60335	 34.78632	 -7.00471	 53.24053	 -1.18854	 66.09248	710.17999	 34.30	
 17.001	-110.310	 57.19682	 10.76025	 31.06001	 -7.92753	 54.66820	 -1.12761	 66.07669	710.13000	 34.30	
 16.988	-104.517	 57.20325	 13.69578	 27.48734	 -8.54542	 55.76427	 -1.13976	 66.08825	710.20001	 34.30	
 17.008	-98.662	 57.17733	 17.02829	 23.86342	 -8.99869	 56.51579	 -1.13317	 66.09413	710.21997	 34.30	
 16.996	-92.909	 57.19157	 20.46714	 20.42843	 -8.92016	 56.76052	 -1.18912	 66.09406	710.22998	 34.30	
 16.996	-87.091	 57.15747	 23.73319	 17.11867	 -9.00696	 56.61694	 -1.26683	 66.10368	710.15997	 34.30	
 17.012	-81.253	 57.06799	 27.20821	 13.67615	 -8.85803	 56.10278	 -1.29653	 66.10233	710.13000	 34.30	
 16.988	-75.483	 57.04489	 30.66236	 10.50277	 -8.18632	 55.10933	 -1.32672	 66.09131	710.03998	 34.30	
 17.001	-69.690	 57.02960	 34.39888	  7.61204	 -7.34456	 53.77544	 -1.36463	 66.10460	710.09003	 34.30	
 17.002	-63.866	 56.98555	 37.89307	  4.59548	 -6.15205	 52.07796	 -1.44670	 66.08141	710.08002	 34.30	
 17.006	-58.063	 56.94091	 41.22454	  1.89063	 -4.79275	 50.00483	 -1.49381	 66.08966	710.15997	 34.30	
 17.001	-52.301	 56.91946	 44.17849	 -0.49577	 -3.21304	 47.54442	 -1.54922	 66.10106	710.03003	 34.30	
 17.007	-46.454	 56.86237	 47.08326	 -2.63589	 -1.27806	 44.67881	 -1.61896	 66.05731	710.09998	 34.30	
 17.014	-40.657	 56.82165	 49.74207	 -4.51075	  0.89880	 41.86227	 -1.70794	 66.06757	710.13000	 34.30	
 16.988	-34.839	 56.76506	 52.00460	 -6.15688	  3.30097	 38.67926	 -1.73173	 66.11071	710.06000	 34.30	
 16.995	-29.081	 56.71465	 53.86774	 -7.41821	  6.14470	 35.22744	 -1.77204	 66.08916	710.13000	 34.30	
 16.990	-23.241	 56.71339	 55.48616	 -8.39601	  9.10902	 31.48895	 -1.80461	 66.11942	710.12000	 34.30	
 17.000	-17.404	 56.63106	 56.70382	 -9.26369	 11.90140	 27.97345	 -1.85595	 66.10124	710.23999	 34.30	
 17.009	-11.617	 56.59781	 57.56283	 -9.85183	 15.14892	 24.35839	 -1.94683	 66.11537	710.16998	 34.30	
 16.990	 -5.821	 56.57430	 57.93203	-10.07609	 18.54098	 20.75489	 -2.04397	 66.08376	710.08002	 34.30	
 17.000	  0.000	 56.51652	 57.98993	-10.27831	 21.82143	 17.32069	 -2.12476	 66.11362	710.12000	 34.30	
 16.990	  5.821	 56.46984	 57.56461	-10.27944	 25.33106	 13.80952	 -2.17434	 66.10121	710.17999	 34.30	
 17.009	 11.617	 56.35599	 56.79599	 -9.89935	 28.82784	 10.74962	 -2.17308	 66.11413	710.14001	 34.30	
 17.000	 17.404	 56.32001	 55.56142	 -9.20663	 32.42480	  7.56599	 -2.18387	 66.10809	710.12000	 34.30	
 16.990	 23.241	 56.28286	 54.03328	 -8.23393	 36.04935	  4.49581	 -2.29694	 66.10719	710.15002	 34.30	
 16.995	 29.081	 56.21099	 52.17349	 -7.03091	 39.42324	  1.64444	 -2.45960	 66.08665	710.16998	 34.30	
 16.988	 34.839	 56.21301	 49.96971	 -5.52607	 42.48816	 -0.78658	 -2.63774	 66.09277	710.15997	 34.30	
 17.014	 40.657	 56.15414	 47.34001	 -3.85855	 45.41479	 -3.05300	 -2.87748	 66.10207	710.16998	 34.30	
 17.007	 46.454	 56.12865	 44.60145	 -1.75381	 48.25296	 -4.91032	 -3.06229	 66.09696	710.15002	 34.30	
 17.001	 52.301	 56.10878	 41.62997	  0.54732	 50.73206	 -6.56796	 -3.15518	 66.10996	710.09998	 34.30	
 17.006	 58.063	 56.12286	 38.41005	  2.99760	 52.79860	 -8.02797	 -3.24894	 66.09721	710.09998	 34.30	
 17.002	 63.866	 56.14058	 34.87391	  5.88937	 54.52384	 -9.26880	 -3.34060	 66.09901	710.09998	 34.30	
 17.001	 69.690	 56.14239	 31.06669	  8.66386	 55.99089	-10.22241	 -3.42800	 66.09281	710.10999	 34.30	
 16.988	 75.483	 56.19558	 27.61293	 11.72434	 57.08827	-10.89906	 -3.49592	 66.12064	710.13000	 34.30	
 17.012	 81.253	 56.18801	 24.06796	 14.95908	 57.77438	-11.27049	 -3.58542	 66.11322	710.15002	 34.30	
 16.996	 87.091	 56.25234	 20.89674	 18.18033	 57.98793	-11.18179	 -3.64082	 66.07096	710.10999	 34.30	
 16.996	 92.909	 56.35616	 17.56559	 21.58830	 57.91664	-11.21322	 -3.68988	 66.11288	710.09003	 34.30	
 17.008	 98.662	 56.37769	 14.25747	 25.14094	 57.38035	-10.89100	 -3.69559	 66.09064	710.19000	 34.30	
 16.988	104.517	 56.41082	 11.33231	 28.70817	 56.43884	-10.30756	 -3.61605	 66.09660	710.15997	 34.30	
 17.001	110.310	 56.44852	  8.13958	 32.44599	 55.16526	 -9.54834	 -3.53807	 66.13815	710.21002	 34.30	
 17.002	116.134	 56.45791	  5.07569	 36.08991	 53.43250	 -8.37605	 -3.50216	 66.08723	710.25000	 34.30	
 17.006	121.937	 56.50098	  2.51676	 39.48691	 51.46225	 -6.91247	 -3.49699	 66.09655	710.22998	 34.30	
 17.001	127.699	 56.52212	  0.27569	 42.53324	 49.15710	 -5.29238	 -3.55225	 66.07470	710.16998	 34.30	
 17.007	133.546	 56.54808	 -1.82570	 45.47729	 46.41169	 -3.35071	 -3.55834	 66.06293	710.15997	 34.30	
 17.014	139.343	 56.60215	 -3.74656	 48.28014	 43.41634	 -1.29922	 -3.47118	 66.10516	710.12000	 34.30	
 16.988	145.161	 56.66985	 -5.25815	 50.66082	 40.33232	  1.20624	 -3.31737	 66.07835	710.09003	 34.30	
 16.995	150.919	 56.70368	 -6.59616	 52.63469	 37.10002	  3.83983	 -3.14229	 66.06173	710.17999	 34.30	
 16.990	156.759	 56.77726	 -7.66292	 54.32919	 33.59174	  6.95566	 -2.93065	 66.04970	710.09998	 34.30	
 17.000	162.596	 56.82412	 -8.43041	 55.70959	 29.86058	  9.92440	 -2.78869	 66.06474	710.10999	 34.20	
 17.009	168.383	 56.85946	 -9.04743	 56.70319	 26.40431	 13.00130	 -2.66799	 66.10858	710.04999	 34.20	
 16.990	174.179	 56.92671	 -9.22912	 57.22042	 22.90671	 16.37185	 -2.48818	 66.10197	710.17999	 34.20	
 18.709	174.675	 54.75889	-13.11269	 59.15582	 20.89334	 14.83977	 -2.44604	 66.10046	710.10999	 34.20	
 18.703	169.441	 54.69799	-12.92428	 58.66232	 24.37752	 11.71144	 -2.64698	 66.09079	710.15997	 34.20	
 18.691	164.085	 54.70932	-12.33997	 57.81237	 27.94583	  8.56191	 -2.79473	 66.10387	710.15002	 34.20	
 18.706	158.818	 54.62901	-11.59630	 56.59080	 31.47101	  5.33650	 -3.00032	 66.06973	710.21002	 34.30	
 18.695	153.537	 54.61327	-10.54632	 54.96241	 35.12580	  2.44150	 -3.13723	 66.09276	710.21002	 34.30	
 18.704	148.255	 54.54517	 -9.41528	 53.11730	 38.48757	 -0.14979	 -3.36520	 66.10604	710.04999	 34.30	
 18.698	142.952	 54.48986	 -8.04030	 50.95885	 41.73439	 -2.56663	 -3.59863	 66.10397	710.27002	 34.30	
 18.699	137.625	 54.43987	 -6.48549	 48.41874	 44.80135	 -4.82593	 -3.76098	 66.11474	710.32001	 34.20	
 18.705	132.343	 54.39157	 -4.69533	 45.57377	 47.75458	 -6.84652	 -3.86953	 66.10908	710.27002	 34.20	
 18.713	127.067	 54.38173	 -2.63862	 42.62670	 50.40512	 -8.56332	 -3.93329	 66.10281	710.26001	 34.20	
 18.700	121.794	 54.33970	 -0.38863	 39.46228	 52.69422	-10.11896	 -3.96939	 66.05975	710.23999	 34.20	
 18.698	116.504	 54.31314	  2.07770	 36.11084	 54.73727	-11.47866	 -4.00633	 66.09557	710.23999	 34.20	
 18.707	111.165	 54.27734	  4.83673	 32.40232	 56.49979	-12.62089	 -4.08945	 66.10648	710.20001	 34.20	
 18.690	105.863	 54.26228	  7.76500	 28.74221	 57.84050	-13.42002	 -4.19799	 66.09927	710.28998	 34.20	
 18.696	100.583	 54.20480	 11.18252	 25.16432	 58.86960	-14.18924	 -4.30458	 66.08257	710.22998	 34.20	
 18.700	 95.309	 54.20390	 14.19013	 21.54220	 59.53971	-14.62624	 -4.34054	 66.10162	710.22998	 34.20	
 18.700	 90.000	 54.13627	 17.51920	 17.98254	 59.91212	-14.85732	 -4.34267	 66.12650	710.28998	 34.20	
 18.700	 84.691	 54.04449	 20.73400	 14.68604	 59.84386	-14.77827	 -4.30165	 66.11958	710.23999	 34.20	
 18.696	 79.417	 53.97541	 23.78165	 11.77224	 59.36615	-14.78452	 -4.19067	 66.08191	710.26001	 34.20	
 18.690	 74.137	 53.96461	 27.32737	  8.81147	 58.58324	-14.36647	 -4.11737	 66.10217	710.17999	 34.20	
 18.707	 68.835	 53.93272	 30.88486	  5.76858	 57.45718	-13.69122	 -4.06292	 66.09018	710.25000	 34.20	
 18.698	 63.496	 53.93597	 34.56672	  2.85843	 55.94922	-12.63587	 -3.93427	 66.11246	710.14001	 34.20	
 18.700	 58.206	 53.91557	 38.10417	  0.19831	 54.07387	-11.34683	 -3.84086	 66.07877	710.22998	 34.20	
 18.713	 52.933	 53.91976	 41.40684	 -2.19630	 52.04714	 -9.90577	 -3.76981	 66.08562	710.21002	 34.20	
 18.705	 47.657	 53.90163	 44.46111	 -4.47019	 49.67630	 -8.38080	 -3.66954	 66.08826	710.15997	 34.20	
 18.699	 42.375	 53.91127	 47.26341	 -6.57312	 46.91259	 -6.62312	 -3.49449	 66.10246	710.13000	 34.20	
 18.698	 37.048	 53.96804	 50.03854	 -8.34625	 43.97564	 -4.58256	 -3.24647	 66.11417	710.25000	 34.20	
 18.704	 31.745	 53.97074	 52.43137	 -9.89609	 40.93716	 -2.28336	 -3.03410	 66.11277	710.27002	 34.20	
 18.695	 26.463	 54.01386	 54.41576	-11.19400	 37.73448	  0.19302	 -2.82190	 66.11023	710.12000	 34.20	
 18.706	 21.182	 54.02074	 56.11963	-12.30187	 34.20931	  2.92151	 -2.65798	 66.07028	710.10999	 34.20	
 18.691	 15.915	 54.12748	 57.60697	-13.09407	 30.56351	  5.94915	 -2.57066	 66.11072	710.15002	 34.20	
 18.703	 10.559	 54.13430	 58.74718	-13.78008	 27.13873	  9.08400	 -2.48677	 66.10481	710.20001	 34.20	
 18.709	  5.325	 54.19379	 59.48922	-14.20804	 23.51117	 12.34758	 -2.41606	 66.09676	710.23999	 34.20	
 18.700	  0.000	 54.24400	 59.82731	-14.31465	 19.93666	 15.55992	 -2.32589	 66.08457	710.19000	 34.20	
 18.709	 -5.325	 54.33075	 59.84047	-13.99149	 16.97034	 18.70635	 -2.25280	 66.11924	710.09003	 34.20	
 18.703	-10.559	 54.38351	 59.47532	-13.71228	 13.66584	 22.31485	 -2.09950	 66.12627	710.09003	 34.20	
 18.691	-15.915	 54.42320	 58.73235	-13.21657	 10.58105	 26.01521	 -1.94443	 66.11246	710.15002	 34.20	
 18.706	-21.182	 54.48285	 57.62935	-12.53256	  7.55102	 29.58700	 -1.86393	 66.11662	710.08002	 34.20	
 18.695	-26.463	 54.53544	 56.12949	-11.61511	  4.58830	 33.18130	 -1.76477	 66.10391	710.09998	 34.20	
 18.704	-31.745	 54.51241	 54.37868	-10.54110	  1.78147	 36.76027	 -1.67383	 66.06695	710.13000	 34.20	
 18.698	-37.048	 54.59824	 52.40849	 -9.02951	 -0.70218	 40.13770	 -1.60608	 66.10523	710.17999	 34.20	
 18.699	-42.375	 54.65691	 50.00440	 -7.32431	 -3.02188	 43.33020	 -1.53964	 66.11796	710.22998	 34.20	
 18.705	-47.657	 54.67280	 47.22156	 -5.46891	 -5.11498	 46.17730	 -1.46188	 66.09775	710.15002	 34.20	
 18.713	-52.933	 54.71369	 44.32958	 -3.34979	 -6.88889	 49.00010	 -1.38931	 66.11404	710.08002	 34.20	
 18.700	-58.206	 54.77301	 41.32560	 -1.01166	 -8.35967	 51.35101	 -1.32574	 66.10064	710.26001	 34.20	
 18.698	-63.496	 54.84063	 38.02624	  1.57680	 -9.62893	 53.39346	 -1.28338	 66.09743	710.21002	 34.20	
 18.707	-68.835	 54.80557	 34.38160	  4.40021	-10.83653	 55.13435	 -1.20348	 66.06509	710.26001	 34.20	
 18.690	-74.137	 54.83156	 30.70031	  7.48186	-11.80633	 56.65805	 -1.15832	 66.09872	710.21997	 34.20	
 18.696	-79.417	 54.86174	 27.22970	 10.59922	-12.55329	 57.76616	 -1.14336	 66.12776	710.15002	 34.20	
 18.700	-84.691	 54.85289	 23.66672	 13.73491	-12.97252	 58.43915	 -1.11235	 66.10528	710.15997	 34.20	
 18.700	-90.000	 54.89251	 20.25756	 17.05807	-12.98348	 58.73605	 -1.06579	 66.07909	710.20001	 34.20	
 18.700	-95.309	 54.94699	 17.17664	 20.18938	-12.90674	 58.67919	 -0.99960	 66.08820	710.20001	 34.20	
 18.696	-100.583	 55.01770	 13.86492	 23.72122	-12.71959	 58.28812	 -1.00210	 66.12278	710.21997	 34.20	
 18.690	-105.863	 55.02450	 10.94124	 27.30047	-12.26559	 57.47002	 -0.99185	 66.10292	710.17999	 34.20	
 18.707	-111.165	 55.04476	  7.70214	 30.82344	-11.51321	 56.26858	 -0.98773	 66.08617	710.15997	 34.20	
 18.698	-116.504	 55.12674	  4.70309	 34.63871	-10.48405	 54.68824	 -1.02751	 66.10918	710.15997	 34.20	
 18.700	-121.794	 55.16747	  2.04732	 38.08494	 -9.31996	 52.92190	 -1.11003	 66.10841	710.19000	 34.20	
 18.713	-127.067	 55.13885	 -0.46764	 41.28429	 -8.00240	 50.80105	 -1.14096	 66.08259	710.08002	 34.20	
 18.705	-132.343	 55.18945	 -2.68437	 44.28904	 -6.26761	 48.24877	 -1.19892	 66.07482	710.03998	 34.20	
 18.699	-137.625	 55.23216	 -4.69567	 47.26307	 -4.36207	 45.40964	 -1.30034	 66.08952	710.09998	 34.20	
 18.698	-142.952	 55.23567	 -6.54180	 49.95577	 -2.23396	 42.51533	 -1.35663	 66.11226	710.08002	 34.20	
 18.704	-148.255	 55.19883	 -8.14619	 52.23918	  0.08990	 39.35164	 -1.49605	 66.08463	710.16998	 34.20	
 18.695	-153.537	 55.22707	 -9.52487	 54.27837	  2.68530	 35.91912	 -1.58337	 66.14455	710.15997	 34.20	
 18.706	-158.818	 55.14718	-10.69714	 55.96873	  5.43997	 32.23356	 -1.76414	 66.11517	710.15997	 34.20	
 18.691	-164.085	 55.09398	-11.53476	 57.31218	  8.36758	 28.71841	 -1.92052	 66.10699	710.25000	 34.20	
 18.703	-169.441	 54.98214	-12.24475	 58.33012	 11.36122	 25.01455	 -2.07398	 66.09118	710.27002	 34.20	
 18.709	-174.675	 54.88693	-12.77344	 58.94832	 14.61322	 21.43159	 -2.25891	 66.08720	710.21997	 34.20	
 18.700	180.000	 54.87768	-12.94534	 59.24064	 17.89769	 18.01738	 -2.39251	 66.11981	710.22998	 34.20	
 20.400	180.000	 52.55597	-16.75540	 60.92446	 15.94409	 16.16282	 -2.26878	 66.10216	710.23999	 34.20	
 20.401	-175.153	 52.61987	-16.62064	 60.65962	 12.83507	 19.45709	 -2.07278	 66.09308	710.20001	 34.20	
 20.407	-170.264	 52.72712	-16.22457	 60.10295	  9.71356	 23.18134	 -1.88458	 66.13838	710.32001	 34.20	
 20.410	-165.423	 52.77303	-15.53501	 59.18159	  6.57378	 26.80907	 -1.74435	 66.09661	710.31000	 34.20	
 20.392	-160.496	 52.87947	-14.63318	 57.93578	  3.67120	 30.41743	 -1.62285	 66.13241	710.26001	 34.20	
 20.401	-155.705	 52.90416	-13.56730	 56.37862	  0.93634	 33.93067	 -1.54388	 66.12863	710.10999	 34.20	
 20.405	-150.835	 52.88292	-12.29187	 54.42234	 -1.61185	 37.52385	 -1.39142	 66.08765	710.25000	 34.20	
 20.397	-145.903	 52.95230	-10.70776	 52.25544	 -3.88787	 40.88520	 -1.32258	 66.08801	710.19000	 34.20	
 20.392	-141.062	 52.97211	 -9.06957	 49.83222	 -6.08525	 44.00985	 -1.22046	 66.12132	710.27002	 34.20	
 20.396	-136.227	 52.92521	 -7.34812	 47.07928	 -8.10333	 46.84997	 -1.10885	 66.11041	710.21002	 34.20	
 20.408	-131.372	 52.89482	 -5.39973	 44.15851	 -9.91703	 49.64204	 -1.08391	 66.11131	710.28998	 34.20	
 20.410	-126.511	 52.88135	 -3.18849	 41.09486	-11.46621	 52.07131	 -1.00492	 66.10434	710.16998	 34.20	
 20.400	-121.604	 52.84955	 -0.77527	 37.75331	-12.81852	 54.19686	 -0.97953	 66.10212	710.28998	 34.20	
 20.403	-116.741	 52.81498	  1.81648	 34.24773	-13.98294	 56.09105	 -0.93878	 66.12313	710.28003	 34.20	
 20.413	-111.900	 52.72507	  4.61860	 30.56866	-14.95073	 57.65079	 -0.90334	 66.09093	710.15997	 34.20	
 20.398	-107.004	 52.69111	  7.67644	 26.98395	-15.73995	 58.87273	 -0.89561	 66.09426	710.14001	 34.20	
 20.394	-102.132	 52.65704	 10.90904	 23.38750	-16.36319	 59.84805	 -0.88675	 66.11156	710.32001	 34.20	
 20.403	-97.332	 52.63223	 13.93206	 19.80351	-16.71697	 60.40042	 -0.89849	 66.11659	710.27002	 34.20	
 20.392	-92.440	 52.65024	 17.13580	 16.36324	-16.81646	 60.63665	 -0.90437	 66.14124	710.22998	 34.20	
 20.392	-87.560	 52.57536	 19.95165	 13.61759	-16.80500	 60.41978	 -0.97358	 66.08926	710.28003	 34.20	
 20.403	-82.668	 52.52868	 23.52611	 10.43826	-16.61412	 60.00805	 -1.00451	 66.13685	710.22998	 34.20	
 20.394	-77.868	 52.49045	 27.04185	  7.19646	-16.07174	 59.15044	 -0.98715	 66.09581	710.29999	 34.20	
 20.398	-72.996	 52.49891	 30.57095	  4.17723	-15.30501	 57.99789	 -0.99232	 66.12152	710.28003	 34.20	
 20.413	-68.100	 52.46994	 34.19997	  1.36553	-14.40149	 56.46865	 -1.03208	 66.12493	710.15997	 34.20	
 20.403	-63.259	 52.45397	 37.77210	 -1.23922	-13.30288	 54.66074	 -1.08212	 66.11420	710.20001	 34.20	
 20.400	-58.396	 52.44434	 41.11626	 -3.69589	-12.03388	 52.63329	 -1.15415	 66.15074	710.21002	 34.20	
 20.410	-53.489	 52.36995	 44.19334	 -6.05702	-10.59527	 50.17688	 -1.18925	 66.09800	710.25000	 34.20	
 20.408	-48.628	 52.29140	 47.03158	 -8.23926	 -8.94226	 47.39257	 -1.21018	 66.11405	710.22998	 34.20	
 20.396	-43.773	 52.29520	 49.98333	-10.05918	 -6.91638	 44.62398	 -1.31543	 66.12536	710.26001	 34.20	
 20.392	-38.938	 52.25792	 52.47184	-11.72317	 -4.74835	 41.56928	 -1.40512	 66.12936	710.27002	 34.20	
 20.397	-34.097	 52.21601	 54.62207	-13.18016	 -2.35787	 38.21801	 -1.47664	 66.13230	710.17999	 34.20	
 20.405	-29.165	 52.14251	 56.61775	-14.49285	  0.16027	 34.61555	 -1.55939	 66.13438	710.17999	 34.20	
 20.401	-24.295	 52.12302	 58.23697	-15.61181	  2.91263	 31.02718	 -1.65522	 66.11897	710.14001	 34.20	
 20.392	-19.504	 52.05871	 59.50656	-16.40942	  5.78735	 27.46309	 -1.81951	 66.09715	710.20001	 34.20	
 20.410	-14.577	 51.99951	 60.59165	-17.11620	  8.89064	 23.79703	 -1.90674	 66.11684	710.06000	 34.20	
 20.407	 -9.736	 51.95050	 61.18576	-17.58522	 12.07852	 20.09313	 -2.06748	 66.08904	710.87000	 34.20	
 20.401	 -4.847	 51.97418	 61.52682	-17.75245	 15.32903	 16.45945	 -2.26069	 66.11425	710.17999	 34.20	
 20.400	  0.000	 51.91716	 61.54274	-17.92067	 18.03800	 13.93892	 -2.34826	 66.12083	710.19000	 34.20	
 20.401	  4.847	 51.83815	 61.16266	-17.82428	 21.58840	 10.57013	 -2.41638	 66.12043	710.50000	 34.20	
 20.407	  9.736	 51.79671	 60.48129	-17.48557	 25.24396	  7.25484	 -2.55640	 66.12177	710.28998	 34.20	
 20.410	 14.577	 51.76262	 59.48799	-16.89257	 28.76350	  4.22840	 -2.70591	 66.13714	710.21002	 34.20	
 20.392	 19.504	 51.73735	 58.08105	-16.09450	 32.21408	  1.24946	 -2.87230	 66.14539	710.17999	 34.20	
 20.401	 24.295	 51.67840	 56.42546	-15.14091	 35.81420	 -1.50591	 -3.06609	 66.12118	710.21997	 34.20	
 20.405	 29.165	 51.63472	 54.49590	-13.91455	 39.13477	 -4.00688	 -3.25047	 66.07227	710.58002	 34.20	
 20.397	 34.097	 51.61671	 52.24883	-12.46670	 42.39754	 -6.36579	 -3.44038	 66.07369	710.23999	 34.20	
 20.392	 38.938	 51.61848	 49.79530	-10.89118	 45.23655	 -8.47649	 -3.65794	 66.12563	710.15002	 34.20	
 20.396	 43.773	 51.58101	 46.98112	 -9.09471	 48.11825	-10.32246	 -3.83350	 66.07174	710.16998	 34.20	
 20.408	 48.628	 51.59986	 44.22507	 -7.15223	 50.89798	-12.06959	 -3.98845	 66.15887	710.09003	 34.20	
 20.410	 53.489	 51.58019	 41.05684	 -4.95812	 53.18956	-13.61168	 -4.12830	 66.11090	710.09998	 34.20	
 20.400	 58.396	 51.60349	 37.66125	 -2.55414	 55.35953	-14.99450	 -4.17690	 66.12047	710.20001	 34.20	
 20.403	 63.259	 51.62278	 34.04834	  0.00724	 57.24440	-16.17991	 -4.27078	 66.13944	710.08002	 34.20	
 20.413	 68.100	 51.65294	 30.55350	  2.73445	 58.74131	-17.16303	 -4.35799	 66.10596	710.07001	 34.20	
 20.398	 72.996	 51.69181	 26.99185	  5.67989	 59.84594	-18.00319	 -4.42101	 66.11303	710.04999	 34.20	
 20.394	 77.868	 51.73502	 23.41588	  8.83603	 60.74193	-18.64933	 -4.53707	 66.13739	710.13000	 34.20	
 20.403	 82.668	 51.74716	 19.93778	 11.74888	 61.27380	-18.62483	 -4.69455	 66.11418	710.09003	 34.20	
 20.392	 87.560	 51.76347	 17.30064	 14.32495	 61.45219	-18.52069	 -4.88770	 66.08237	710.03003	 34.20	
 20.392	 92.440	 51.86417	 14.30385	 17.82015	 61.35626	-18.47465	 -4.89221	 66.12032	710.16998	 34.20	
 20.403	 97.332	 51.91772	 10.71868	 21.45754	 60.91505	-18.27085	 -4.81574	 66.12136	710.04999	 34.20	
 20.394	102.132	 51.93357	  7.56247	 25.02568	 60.13476	-17.58158	 -4.68296	 66.12681	710.04999	 34.20	
 20.398	107.004	 51.99999	  4.60277	 28.61016	 59.08073	-16.82356	 -4.59086	 66.11696	710.07001	 34.20	
 20.413	111.900	 51.96900	  1.77747	 32.20172	 57.63361	-16.02847	 -4.48202	 66.09721	710.03998	 34.20	
 20.403	116.741	 52.01698	 -0.62155	 35.83356	 55.87664	-15.01099	 -4.33160	 66.10102	710.13000	 34.20	
 20.400	121.604	 52.06232	 -3.01203	 39.25035	 53.84267	-13.65217	 -4.16758	 66.12570	710.06000	 34.20	
 20.410	126.511	 52.07750	 -5.31345	 42.46740	 51.48990	-12.11764	 -4.04449	 66.10087	710.07001	 34.10	
 20.408	131.372	 52.14041	 -7.39488	 45.50019	 48.85759	-10.37052	 -3.92316	 66.11529	710.10999	 34.10	
 20.396	136.227	 52.17298	 -9.23380	 48.37317	 45.92646	 -8.40767	 -3.78299	 66.10300	710.10999	 34.20	
 20.392	141.062	 52.23365	-10.91724	 50.97327	 43.04590	 -6.38732	 -3.59994	 66.14061	710.09998	 34.10	
 20.397	145.903	 52.23258	-12.31645	 53.22081	 39.85536	 -4.07578	 -3.39666	 66.08411	710.17999	 34.10	
 20.405	150.835	 52.30095	-13.55506	 55.32496	 36.42758	 -1.54573	 -3.17780	 66.11359	710.14001	 34.10	
 20.401	155.705	 52.38174	-14.62806	 57.11345	 32.87639	  1.03975	 -3.03353	 66.12482	710.13000	 34.10	
 20.392	160.496	 52.41460	-15.45251	 58.53654	 29.38976	  3.79307	 -2.85860	 66.09016	710.34003	 34.10	
 20.410	165.423	 52.38173	-16.19447	 59.66479	 25.78056	  6.91681	 -2.67025	 66.08076	710.09998	 34.20	
 20.407	170.264	 52.40297	-16.65469	 60.35832	 22.28042	 10.19670	 -2.45018	 66.06864	710.15997	 34.20	
 20.401	175.153	 52.46980	-16.87144	 60.84286	 18.73544	 13.49042	 -2.23993	 66.09803	710.17999	 34.20	
  0.141	 45.000	 66.07610	 29.30078	 28.05147	 29.68054	 26.62411	  1.58979	 66.08289	710.12000	 34.20	
  4.001	128.691	 65.81312	 22.94947	 33.36011	 35.37232	 19.89739	  1.19127	 66.14622	710.13000	 34.20	
  4.002	 76.995	 65.76519	 30.15070	 25.85593	 37.34178	 18.12308	  1.40766	 66.10303	710.10999	 34.20	
  4.002	 25.892	 65.81223	 36.27869	 20.09335	 33.04660	 22.23281	  1.56866	 66.09831	710.13000	 34.20	
  4.002	-25.892	 65.93854	 36.60851	 19.95114	 25.48923	 29.98401	  1.46979	 66.13358	710.09003	 34.10	
  4.002	-76.995	 65.95173	 30.98433	 25.47732	 20.73296	 35.07351	  1.24276	 66.10705	710.02002	 34.10	
  4.001	-128.691	 65.93787	 23.50748	 33.13562	 22.07585	 33.66682	  1.08140	 66.11607	710.15997	 34.20	
  4.000	180.000	 65.84486	 20.16218	 36.47101	 28.54201	 26.68511	  1.04270	 66.09793	710.15002	 34.10	
  8.000	180.000	 64.53883	 11.30380	 43.95017	 26.68156	 25.58605	  0.00614	 66.10791	710.09003	 34.10	
  7.991	-152.370	 64.67722	 13.33543	 41.61869	 19.21750	 33.88585	  0.05833	 66.10254	710.12000	 34.10	
  7.997	-124.550	 64.75996	 18.48263	 35.83347	 13.91804	 40.13945	 -0.08592	 66.11000	710.13000	 34.10	
  8.006	-96.837	 64.76912	 25.84468	 27.83574	 11.59449	 42.80656	  0.16253	 66.09397	710.07001	 34.10	
  7.988	-69.228	 64.76112	 34.12030	 19.83331	 12.69329	 41.56661	  0.32282	 66.12755	710.15997	 34.20	
  7.997	-41.563	 64.66701	 40.87777	 13.79343	 17.01042	 36.37914	  0.22041	 66.11539	710.10999	 34.20	
  8.008	-13.821	 64.54615	 44.41539	 10.62589	 24.06398	 28.43046	  0.76719	 66.14332	710.12000	 34.20	
  8.008	 13.821	 64.40210	 43.97585	 10.77756	 32.20689	 20.28711	  0.85385	 66.14224	710.10999	 34.20	
  7.997	 41.563	 64.29340	 39.72294	 14.29795	 39.35148	 13.76608	  0.55836	 66.10825	710.09998	 34.20	
  7.988	 69.228	 64.21386	 32.56159	 20.50827	 43.96997	  9.88580	  0.59566	 66.10065	710.12000	 34.20	
  8.006	 96.837	 64.24274	 24.35029	 28.54315	 44.79052	  9.18383	  0.28098	 66.12850	710.09998	 34.20	
  7.997	124.550	 64.32415	 17.33908	 36.37804	 41.37249	 12.01994	  0.20206	 66.11793	710.01001	 34.20	
  7.991	152.370	 64.41807	 12.75751	 41.92271	 34.84292	 17.81991	  0.03423	 66.10461	710.19000	 34.20	
 12.009	161.059	 61.85621	  3.00680	 49.23555	 32.46600	 15.63967	 -1.67034	 66.12049	710.21002	 34.20	
 12.013	142.081	 61.70443	  5.95916	 44.97641	 40.22332	  8.66755	 -1.88653	 66.11891	710.04999	 34.20	
 12.006	123.113	 61.62294	 11.02643	 38.46136	 46.47415	  3.65676	 -1.72837	 66.12527	710.01001	 34.20	
 12.007	104.200	 61.53989	 17.80701	 30.50766	 50.41759	  0.81073	 -1.70049	 66.11263	710.14001	 34.20	
 11.989	 85.301	 61.47112	 25.77763	 22.11412	 51.44557	  0.02976	 -1.57974	 66.10629	710.19000	 34.20	
 12.013	 66.294	 61.39911	 34.13039	 14.38102	 49.53509	  1.35623	 -1.33674	 66.09446	710.04999	 34.20	
 12.012	 47.388	 61.43174	 41.62825	  8.14632	 44.81557	  4.80489	 -1.26592	 66.12696	710.03003	 34.20	
 11.990	 28.440	 61.52934	 47.34652	  3.76565	 38.09443	 10.39371	 -0.71916	 66.12682	710.06000	 34.20	
 11.991	  9.464	 61.63463	 50.69723	  1.48727	 30.04341	 17.67443	 -0.76573	 66.07164	710.08002	 34.20	
 11.991	 -9.464	 61.80495	 51.14669	  1.44166	 21.86715	 25.92215	 -0.83892	 66.09295	710.08002	 34.20	
 11.990	-28.440	 61.93897	 48.61957	  3.36064	 14.36995	 34.48509	 -1.02032	 66.11130	710.00000	 34.20	
 12.012	-47.388	 61.98964	 43.31689	  7.44690	  8.37772	 41.72360	 -1.20895	 66.08321	709.98999	 34.20	
 12.013	-66.294	 62.12471	 36.30596	 13.41562	  4.43305	 46.99373	 -1.25897	 66.11103	709.97998	 34.10	
 11.989	-85.301	 62.17902	 27.84646	 21.08004	  2.59589	 49.54493	 -1.24948	 66.05259	709.94000	 34.20	
 12.007	-104.200	 62.24755	 19.85193	 29.47934	  2.90095	 49.17189	 -1.21546	 66.10160	710.00000	 34.20	
 12.006	-123.113	 62.23289	 12.71472	 37.53572	  5.29064	 45.72459	 -1.30406	 66.07404	710.00000	 34.20	
 12.013	-142.081	 62.21256	  7.25636	 44.24345	  9.91528	 39.83676	 -1.30204	 66.08620	709.98999	 34.20	
 12.009	-161.059	 62.12390	  3.70893	 48.83860	 16.36837	 32.21064	 -1.54472	 66.07819	710.03998	 34.20	
 16.000	180.000	 58.16338	 -6.81816	 56.09828	 20.62098	 20.64615	 -2.48559	 66.08636	710.06000	 34.20	
 15.990	-165.604	 58.30006	 -5.92969	 54.67649	 12.92191	 28.87484	 -2.14255	 66.06435	710.02002	 34.20	
 16.002	-151.165	 58.39132	 -3.45457	 51.14895	  6.22079	 37.40484	 -1.75163	 66.07581	710.04999	 34.20	
 16.002	-136.836	 58.48845	  0.85741	 45.45532	  0.68036	 44.40673	 -1.51589	 66.06711	709.94000	 34.20	
 15.995	-122.439	 58.44646	  6.27753	 38.40981	 -3.44430	 50.31852	 -1.35405	 66.08157	710.13000	 34.20	
 15.993	-107.966	 58.38816	 13.15757	 30.00031	 -5.94775	 54.00927	 -1.21895	 66.10714	710.09998	 34.20	
 16.005	-93.629	 58.35035	 20.92855	 21.77611	 -6.66759	 55.47980	 -1.27352	 66.05846	710.09003	 34.20	
 15.992	-79.234	 58.25418	 28.96012	 13.81467	 -6.34675	 54.55944	 -1.37774	 66.06339	710.06000	 34.20	
 16.009	-64.774	 58.16624	 37.42907	  6.82127	 -4.23369	 51.41686	 -1.45383	 66.08598	710.16998	 34.20	
 15.997	-50.364	 58.10521	 44.67464	  0.69482	 -0.53360	 45.90821	 -1.61140	 66.06824	710.19000	 34.20	
 15.997	-36.045	 57.98534	 50.77794	 -3.68019	  4.71937	 39.17590	 -1.74657	 66.11511	710.10999	 34.20	
 16.000	-21.597	 57.86982	 54.79311	 -6.38233	 11.20737	 30.80196	 -1.76485	 66.10642	710.19000	 34.20	
 16.003	 -7.169	 57.76381	 56.70705	 -7.79485	 18.83291	 22.40016	 -1.87618	 66.10032	710.27002	 34.20	
 16.003	  7.169	 57.63786	 56.26468	 -7.95854	 26.80338	 14.22362	 -1.96411	 66.09769	710.25000	 34.20	
 16.000	 21.597	 57.48084	 53.53863	 -6.32531	 35.19269	  6.98000	 -1.96357	 66.07847	710.15002	 34.20	
 15.997	 36.045	 57.43193	 48.77598	 -3.05569	 42.81739	  0.57172	 -2.33708	 66.11501	710.20001	 34.20	
 15.997	 50.364	 57.36866	 42.40487	  1.64458	 49.26544	 -3.98568	 -2.77179	 66.11433	710.13000	 34.20	
 16.009	 64.774	 57.33003	 34.56789	  7.82461	 53.83209	 -7.26956	 -2.96400	 66.09231	710.17999	 34.20	
 15.992	 79.234	 57.38496	 26.18193	 15.00340	 56.37099	 -8.88214	 -3.12851	 66.08688	710.15002	 34.20	
 16.005	 93.629	 57.55016	 18.28233	 22.89114	 56.69158	 -8.92862	 -3.29337	 66.10811	710.46002	 34.20	
 15.993	107.966	 57.61807	 10.92380	 31.33984	 54.62017	 -7.64212	 -3.18781	 66.09334	710.12000	 34.20	
 15.995	122.439	 57.66796	  4.10524	 39.57436	 50.51947	 -4.74260	 -3.20381	 66.08486	710.35999	 34.20	
 16.002	136.836	 57.78153	 -0.85873	 46.47252	 44.30602	 -0.28705	 -3.25478	 66.08247	710.17999	 34.20	
 16.002	151.165	 57.90731	 -4.54322	 51.82058	 37.02397	  5.70085	 -2.92329	 66.08076	710.16998	 34.20	
 15.990	165.604	 58.11538	 -6.39028	 55.11776	 28.64152	 12.78406	 -2.60046	 66.12215	710.60999	 34.20	
 20.003	168.362	 52.95512	-15.62178	 59.74178	 24.02004	  9.45720	 -2.59063	 66.08800	710.78998	 34.20	
 20.008	156.764	 52.88911	-13.95945	 57.12540	 32.27689	  2.19012	 -3.00883	 66.07903	710.56000	 34.20	
 20.000	145.147	 52.77795	-11.25413	 52.64101	 40.38929	 -3.73105	 -3.45637	 66.08462	711.02002	 34.20	
 19.995	133.545	 52.71083	 -7.45943	 46.70249	 47.44845	 -8.71241	 -3.85973	 66.07927	710.96997	 34.20	
 20.009	121.926	 52.57291	 -2.55536	 39.51619	 53.42698	-12.76090	 -4.10738	 66.07632	710.21002	 34.20	
 20.005	110.327	 52.48721	  3.26275	 31.18491	 57.78926	-15.43683	 -4.39109	 66.04614	710.08002	 34.20	
 19.989	 98.733	 52.48649	 10.37891	 22.88948	 60.29009	-17.07950	 -4.64115	 66.06327	710.17999	 34.20	
 19.999	 87.075	 52.28370	 18.10508	 14.45959	 61.05954	-17.61298	 -4.76837	 66.04576	710.26001	 34.20	
 19.992	 75.457	 52.22576	 25.46388	  7.80875	 59.95098	-17.29049	 -4.41900	 66.06609	710.29999	 34.20	
 20.009	 63.844	 52.14501	 33.75641	  0.94837	 57.13367	-15.44914	 -4.20472	 66.09476	710.21002	 34.20	
 19.989	 52.269	 52.14119	 41.82323	 -4.71652	 52.41776	-12.32474	 -4.02417	 66.05130	710.16998	 34.20	
 19.999	 40.602	 52.12757	 48.70633	 -9.56121	 46.11396	 -8.36791	 -3.63584	 66.05533	710.15997	 34.20	
 20.004	 29.051	 52.21627	 54.29677	-13.09380	 39.11037	 -3.21543	 -3.12428	 66.05390	710.27002	 34.20	
 20.005	 17.433	 52.25646	 58.31925	-15.59981	 30.90469	  3.10784	 -2.74063	 66.05481	710.64001	 34.20	
 20.006	  5.780	 52.37113	 60.67562	-16.87018	 22.68322	 10.43740	 -2.41727	 66.07071	710.39001	 34.20	
 20.006	 -5.780	 52.52903	 61.11047	-16.77653	 15.17688	 17.58022	 -2.22969	 66.07311	710.13000	 34.20	
 20.005	-17.433	 52.59360	 59.63658	-15.82756	  7.70988	 26.17494	 -1.86099	 66.07027	710.27002	 34.20	
 20.004	-29.051	 52.69757	 56.31586	-13.67987	  0.95782	 34.58906	 -1.58378	 66.06461	710.34003	 34.20	
 19.999	-40.602	 52.82765	 51.47913	-10.35187	 -4.70864	 42.52987	 -1.39413	 66.08823	710.65997	 34.20	
 19.989	-52.269	 52.95568	 44.86403	 -5.89854	 -9.30056	 49.26739	 -1.19333	 66.07969	710.12000	 34.20	
 20.009	-63.844	 53.01665	 37.46515	 -0.30589	-12.50296	 54.49905	 -1.09873	 66.06554	710.15997	 34.20	
 19.992	-75.457	 53.06514	 29.10268	  6.28534	-14.80360	 58.18818	 -1.01348	 66.06369	710.27002	 34.20	
 19.999	-87.075	 53.14362	 20.72557	 13.78847	-15.91825	 59.99634	 -0.99980	 66.10935	710.31000	 34.20	
 19.989	-98.733	 53.18341	 13.45910	 21.26492	-15.72130	 59.82836	 -0.88625	 66.05844	710.28003	 34.20	
 20.005	-110.327	 53.28464	  6.19503	 29.65035	-14.38996	 57.71742	 -0.89312	 66.10629	710.16998	 34.30	
 20.009	-121.926	 53.39549	 -0.24447	 38.02556	-11.94326	 53.78862	 -0.97251	 66.09592	710.10999	 34.20	
 19.995	-133.545	 53.44529	 -5.53600	 45.31552	 -8.39937	 48.25723	 -1.08067	 66.07663	710.14001	 34.20	
 20.000	-145.147	 53.48989	 -9.69609	 51.67868	 -3.56719	 41.35143	 -1.29721	 66.07625	710.16998	 34.20	
 20.008	-156.764	 53.35508	-12.94534	 56.35427	  2.21253	 33.21386	 -1.53647	 66.00138	710.13000	 34.20	
 20.003	-168.362	 53.24384	-15.03670	 59.38553	  9.04101	 24.87867	 -1.86952	 66.08337	710.21002	 34.20	
 20.000	180.000	 53.06987	-15.81714	 60.53511	 16.45120	 16.55631	 -2.22268	 66.06615	710.19000	 34.20	
