FileType=PCF
NHL=14
Date=03/18/19	11:20:00
Facility=APL
Serial=16071-8
Customer=NASA
NP=6
Mach=0.300000
Calibration=1:1
CalPts=490
TstPts=95
PortNumbering=AP Standard
Units=Torr C m/s kg/m^3 deg mm 
Theta[deg]	Phi[deg]	P1[Torr]	P2[Torr]	P3[Torr]	P4[Torr]	P5[Torr]	P6[Torr]	Pt[Torr]	Ps[Abs,Torr]	Ts[C]	
  0.000	  0.000	 42.68368	 18.50673	 17.94108	 18.69493	 17.21113	  1.04855	 42.72717	710.20001	 33.00	
  1.691	128.401	 42.65635	 17.07850	 19.43001	 20.47358	 15.53659	  0.99143	 42.73310	710.13000	 33.00	
  1.692	 77.194	 42.66260	 18.87090	 17.39244	 21.02334	 15.01723	  1.05266	 42.73811	710.27002	 33.00	
  1.699	 26.182	 42.66856	 20.59446	 15.86139	 19.79369	 16.15781	  1.09169	 42.70890	710.14001	 32.90	
  1.699	-26.182	 42.66199	 20.67982	 15.83245	 17.64159	 18.02696	  1.06995	 42.71564	710.23999	 32.90	
  1.692	-77.194	 42.67477	 19.09937	 17.29887	 16.38754	 19.39902	  1.00124	 42.73468	710.07001	 32.90	
  1.691	-128.401	 42.62350	 17.21778	 19.33669	 16.69716	 18.98998	  0.94708	 42.70451	710.82001	 32.90	
  1.700	180.000	 42.62690	 16.32099	 20.31634	 18.51767	 17.22814	  0.93425	 42.69707	710.06000	 32.80	
  3.400	180.000	 42.57320	 13.86762	 22.64751	 18.24410	 17.19243	  0.78191	 42.71735	710.22998	 32.80	
  3.388	-152.325	 42.56456	 14.48478	 21.99314	 16.14353	 19.28855	  0.77386	 42.68937	710.13000	 32.80	
  3.397	-124.529	 42.59050	 16.02459	 20.37847	 14.63751	 21.06045	  0.80360	 42.69210	710.84998	 32.80	
  3.399	-96.763	 42.60423	 17.96023	 18.13483	 13.95939	 21.83609	  0.82949	 42.70169	710.85999	 32.70	
  3.394	-69.283	 42.60523	 20.20092	 16.00134	 14.28952	 21.47342	  0.91841	 42.71268	710.06000	 32.70	
  3.400	-41.398	 42.59627	 22.12044	 14.28246	 15.60718	 20.01127	  0.99561	 42.70873	710.54999	 32.70	
  3.401	-14.021	 42.60402	 23.12530	 13.33417	 17.44540	 17.88172	  1.04312	 42.72795	710.08002	 32.60	
  3.401	 14.021	 42.55960	 23.00242	 13.34961	 19.79280	 15.79947	  1.07474	 42.70546	710.77002	 32.60	
  3.400	 41.398	 42.52367	 21.79334	 14.37092	 21.81859	 13.88312	  1.05756	 42.69496	710.46002	 32.60	
  3.394	 69.283	 42.49422	 19.74017	 16.14624	 23.08083	 12.71928	  1.02574	 42.68253	710.04999	 32.60	
  3.399	 96.763	 42.46446	 17.54269	 18.30462	 23.26178	 12.51627	  0.92436	 42.65685	710.22998	 32.50	
  3.397	124.529	 42.48074	 15.65863	 20.52065	 22.36806	 13.37217	  0.86611	 42.66259	710.16998	 32.50	
  3.388	152.325	 42.51376	 14.29839	 22.08198	 20.52697	 15.12113	  0.81912	 42.67881	710.17999	 32.50	
  5.099	161.165	 42.29174	 11.65145	 24.42709	 20.19820	 14.84216	  0.56287	 42.66657	710.13000	 32.50	
  5.109	142.013	 42.25735	 12.59500	 23.30038	 22.42595	 12.77808	  0.55011	 42.67527	710.15997	 32.40	
  5.095	123.033	 42.24166	 14.18978	 21.49102	 24.14263	 11.24471	  0.65904	 42.67179	710.15997	 32.40	
  5.105	104.191	 42.21978	 16.16768	 19.27724	 25.17650	 10.29951	  0.72220	 42.66128	710.12000	 32.40	
  5.093	 85.207	 42.23863	 18.22083	 16.90914	 25.45245	 10.05606	  0.80500	 42.68372	710.21002	 32.40	
  5.104	 66.290	 42.22976	 20.55490	 14.83012	 24.95483	 10.46027	  0.88348	 42.68945	710.13000	 32.30	
  5.094	 47.331	 42.22345	 22.66702	 12.94000	 23.70076	 11.56404	  0.88856	 42.66218	710.10999	 32.30	
  5.089	 28.397	 42.27116	 24.28232	 11.57208	 21.86049	 13.27483	  0.97374	 42.67627	710.15997	 32.30	
  5.096	  9.576	 42.28366	 25.17741	 10.82521	 19.58784	 15.39312	  0.95656	 42.65798	710.26001	 32.30	
  5.096	 -9.576	 42.31253	 25.28571	 10.81569	 17.16606	 17.54039	  0.92638	 42.66028	710.26001	 32.20	
  5.089	-28.397	 42.36349	 24.61934	 11.48538	 15.18785	 19.82968	  0.87563	 42.67880	710.19000	 32.20	
  5.094	-47.331	 42.38607	 23.20006	 12.77332	 13.35348	 21.90933	  0.79298	 42.67495	710.19000	 32.20	
  5.104	-66.290	 42.40110	 21.18473	 14.59761	 12.06864	 23.35758	  0.72306	 42.66640	710.13000	 32.20	
  5.093	-85.207	 42.39891	 18.87760	 16.59052	 11.47027	 24.02537	  0.64280	 42.64227	710.15997	 32.20	
  5.105	-104.191	 42.41734	 16.72775	 18.98346	 11.56381	 23.95642	  0.60306	 42.67010	710.23999	 32.20	
  5.095	-123.033	 42.37723	 14.65672	 21.25015	 12.35295	 23.00180	  0.56778	 42.65588	710.15997	 32.10	
  5.109	-142.013	 42.35880	 12.92069	 23.13534	 13.76216	 21.36527	  0.55432	 42.65483	710.14001	 32.10	
  5.099	-161.165	 42.31623	 11.81013	 24.32500	 15.69937	 19.15912	  0.53387	 42.64103	710.06000	 32.10	
  5.100	180.000	 42.28643	 11.37449	 24.76094	 17.80578	 16.97034	  0.54516	 42.62989	710.10999	 32.10	
  6.800	180.000	 41.93755	  8.90672	 26.81185	 17.27768	 16.70428	  0.23871	 42.64450	710.06000	 32.10	
  6.796	-166.229	 41.95731	  9.23653	 26.46808	 15.26599	 18.76465	  0.23143	 42.61517	710.20001	 32.00	
  6.808	-152.311	 41.98975	 10.02577	 25.58355	 13.27526	 21.04087	  0.26328	 42.62835	710.15002	 32.00	
  6.795	-138.383	 42.04462	 11.29804	 24.17871	 11.58995	 23.04787	  0.27368	 42.65493	710.17999	 32.00	
  6.792	-124.591	 42.03613	 12.95543	 22.30471	 10.30551	 24.57273	  0.18750	 42.61786	710.15997	 32.00	
  6.787	-110.754	 42.06263	 14.90215	 20.18762	  9.45312	 25.61843	  0.30446	 42.62656	710.09003	 32.00	
  6.800	-96.985	 42.07952	 17.01941	 17.82399	  9.09114	 26.12892	  0.33911	 42.64699	710.85999	 32.00	
  6.800	-83.015	 42.06765	 19.12837	 15.71309	  9.16901	 26.03362	  0.37272	 42.63845	710.06000	 31.90	
  6.787	-69.246	 42.02375	 21.36062	 13.69575	  9.69025	 25.36626	  0.42962	 42.60479	710.12000	 31.90	
  6.792	-55.409	 42.01084	 23.42590	 11.82459	 10.64500	 24.20177	  0.49071	 42.62463	710.20001	 31.90	
  6.795	-41.617	 41.97572	 25.15765	 10.28655	 12.06221	 22.48849	  0.41285	 42.61129	710.20001	 31.90	
  6.808	-27.689	 41.93805	 26.43489	  9.15703	 13.85648	 20.39522	  0.62604	 42.61174	710.15997	 31.90	
  6.796	-13.771	 41.91370	 27.16308	  8.49276	 15.91915	 18.08363	  0.70128	 42.61688	710.78003	 31.90	
  6.800	  0.000	 41.88792	 27.34821	  8.26342	 17.96494	 16.06664	  0.75233	 42.62504	710.09998	 31.80	
  6.796	 13.771	 41.84524	 26.94659	  8.54082	 20.31945	 13.89432	  0.78650	 42.62188	710.09003	 31.80	
  6.808	 27.689	 41.79827	 26.01226	  9.25827	 22.51982	 11.85513	  0.78268	 42.62707	710.12000	 31.80	
  6.795	 41.617	 41.78420	 24.53323	 10.47226	 24.39961	 10.17029	  0.56627	 42.60883	710.15002	 31.80	
  6.792	 55.409	 41.73602	 22.63842	 12.07715	 25.90030	  8.86267	  0.58170	 42.59412	710.10999	 31.80	
  6.787	 69.246	 41.73405	 20.46219	 13.99407	 26.93806	  7.99169	  0.62524	 42.60310	710.01001	 31.70	
  6.800	 83.015	 41.76175	 18.25059	 16.01855	 27.47390	  7.58826	  0.54750	 42.63491	710.12000	 31.70	
  6.800	 96.985	 41.72629	 16.18022	 18.23388	 27.32865	  7.64408	  0.38906	 42.58657	710.07001	 31.70	
  6.787	110.754	 41.75903	 14.14556	 20.54199	 26.69447	  8.23712	  0.40870	 42.60644	710.02002	 31.70	
  6.792	124.591	 41.76237	 12.29304	 22.64001	 25.51868	  9.22820	  0.37697	 42.59486	710.06000	 31.70	
  6.795	138.383	 41.80895	 10.81805	 24.38483	 23.88937	 10.68887	  0.18382	 42.61161	710.08002	 31.70	
  6.808	152.311	 41.83045	  9.69574	 25.73918	 21.89737	 12.47102	  0.23348	 42.62000	710.13000	 31.70	
  6.796	166.229	 41.87381	  9.03846	 26.55318	 19.60798	 14.54920	  0.27734	 42.60988	710.17999	 31.60	
  8.491	168.704	 41.36675	  6.52681	 28.51875	 19.00242	 14.09074	 -0.19089	 42.60888	710.09003	 31.70	
  8.502	157.493	 41.31555	  6.96680	 27.85643	 21.36364	 11.94701	 -0.23366	 42.59942	710.03998	 31.60	
  8.494	146.194	 41.27798	  7.84899	 26.70594	 23.52693	 10.02719	 -0.25809	 42.59840	710.10999	 31.60	
  8.495	135.039	 41.25304	  9.08425	 25.23731	 25.46523	  8.35650	 -0.21528	 42.60560	710.19000	 31.60	
  8.487	123.723	 41.21337	 10.63753	 23.36048	 27.04703	  6.95343	 -0.02729	 42.58980	710.09998	 31.60	
  8.492	112.575	 41.21399	 12.42855	 21.25146	 28.25739	  5.91941	 -0.15077	 42.62093	710.01001	 31.60	
  8.510	101.220	 41.16843	 14.47645	 18.84874	 29.05489	  5.23005	  0.00280	 42.59195	710.09998	 31.60	
  8.500	 90.000	 41.15570	 16.63890	 16.56699	 29.36293	  4.97196	 -0.10519	 42.59152	710.08002	 31.60	
  8.510	 78.780	 41.15421	 18.72591	 14.48530	 29.22179	  5.12856	  0.14851	 42.60041	710.15997	 31.50	
  8.492	 67.425	 41.15815	 21.06587	 12.38714	 28.58085	  5.67003	  0.08683	 42.59653	710.14001	 31.50	
  8.487	 56.277	 41.16104	 23.24605	 10.50827	 27.50690	  6.50786	  0.14890	 42.58659	710.87000	 31.50	
  8.495	 44.961	 41.18945	 25.21823	  8.87938	 26.02634	  7.78719	  0.18431	 42.58976	710.84003	 31.50	
  8.494	 33.806	 41.22044	 26.84451	  7.56372	 24.23540	  9.36457	  0.30933	 42.59798	710.87000	 31.50	
  8.502	 22.507	 41.22849	 28.07578	  6.55451	 22.16430	 11.16102	  0.38536	 42.58976	710.87000	 31.50	
  8.491	 11.296	 41.25518	 28.85632	  6.01236	 19.84916	 13.23027	  0.30865	 42.57185	710.84003	 31.40	
  8.500	  0.000	 41.29332	 29.22487	  5.78801	 17.48252	 15.46838	  0.39600	 42.58165	710.78998	 31.40	
  8.491	-11.296	 41.33918	 29.11232	  5.94776	 15.41279	 17.59072	  0.35883	 42.58693	710.48999	 31.40	
  8.502	-22.507	 41.36641	 28.51653	  6.48531	 13.30305	 19.84278	  0.20096	 42.58033	710.00000	 31.40	
  8.494	-33.806	 41.40221	 27.46180	  7.38264	 11.36957	 22.13685	  0.14442	 42.57644	710.03003	 31.40	
  8.495	-44.961	 41.41240	 25.99941	  8.60495	  9.74603	 24.08909	 -0.01465	 42.56714	710.76001	 31.40	
  8.487	-56.277	 41.44287	 24.17551	 10.18615	  8.40797	 25.74925	  0.01221	 42.55626	710.07001	 31.40	
  8.492	-67.425	 41.47509	 22.10879	 12.02052	  7.42181	 26.97185	 -0.09162	 42.55729	710.13000	 31.40	
  8.510	-78.780	 41.48479	 19.78441	 14.08981	  6.77411	 27.78565	 -0.14714	 42.55331	709.96997	 31.40	
  8.500	-90.000	 41.50813	 17.63463	 16.20788	  6.56976	 28.10891	 -0.06099	 42.56421	710.07001	 31.30	
  8.510	-101.220	 41.50312	 15.49150	 18.37746	  6.67522	 27.96103	 -0.02698	 42.55431	710.04999	 31.30	
  8.492	-112.575	 41.52208	 13.32246	 20.79995	  7.14961	 27.31419	 -0.13264	 42.57576	710.13000	 31.30	
  8.487	-123.723	 41.52145	 11.41970	 22.94108	  8.02374	 26.22452	 -0.23804	 42.58345	710.48999	 31.30	
  8.495	-135.039	 41.50242	  9.73155	 24.87200	  9.24257	 24.71301	 -0.22433	 42.56951	709.96997	 31.30	
  8.494	-146.194	 41.48113	  8.35133	 26.45403	 10.75713	 22.87459	 -0.07656	 42.57122	710.16998	 31.30	
  8.502	-157.493	 41.43669	  7.30260	 27.65478	 12.57850	 20.67742	 -0.12489	 42.56757	710.01001	 31.30	
  8.491	-168.704	 41.38615	  6.70234	 28.37602	 14.60400	 18.36253	 -0.23395	 42.53623	710.03003	 31.30	
  8.500	180.000	 41.36188	  6.40676	 28.69232	 16.67509	 16.29608	 -0.27617	 42.56142	709.96002	 31.30	
 10.200	180.000	 40.71066	  3.82111	 30.56892	 16.02813	 15.78596	 -0.71446	 42.57874	710.65002	 31.30	
 10.191	-170.497	 40.74697	  4.09211	 30.28650	 13.91035	 17.88444	 -0.68351	 42.55922	710.10999	 31.20	
 10.210	-161.034	 40.76539	  4.58613	 29.61574	 11.77431	 20.21015	 -0.64519	 42.54966	710.72998	 31.20	
 10.194	-151.526	 40.80837	  5.43343	 28.55860	  9.86556	 22.51147	 -0.58186	 42.57050	710.73999	 31.20	
 10.190	-142.105	 40.81148	  6.62889	 27.12311	  8.25545	 24.51478	 -0.45972	 42.54167	710.82001	 31.20	
 10.215	-132.646	 40.82952	  8.06344	 25.44788	  6.77538	 26.32180	 -0.57594	 42.55150	710.50000	 31.20	
 10.203	-123.092	 40.85419	  9.78771	 23.43214	  5.60048	 27.79924	 -0.59862	 42.55316	710.75000	 31.20	
 10.192	-113.678	 40.85866	 11.70014	 21.23943	  4.80175	 28.89985	 -0.53461	 42.56352	710.76001	 31.20	
 10.208	-104.249	 40.83122	 13.77850	 18.93165	  4.23783	 29.62466	 -0.56047	 42.53753	710.13000	 31.20	
 10.210	-94.801	 40.84211	 15.99965	 16.64408	  3.98481	 29.96781	 -0.54316	 42.55960	710.82001	 31.20	
 10.210	-85.199	 40.83168	 18.17174	 14.42792	  4.05686	 29.88692	 -0.56515	 42.55785	710.28998	 31.20	
 10.208	-75.751	 40.79743	 20.42646	 12.27204	  4.39601	 29.39604	 -0.43100	 42.54425	710.82001	 31.20	
 10.192	-66.322	 40.78918	 22.73271	 10.27844	  5.07345	 28.47796	 -0.50670	 42.55204	710.06000	 31.20	
 10.203	-56.908	 40.76501	 24.84707	  8.46938	  6.05713	 27.23394	 -0.46889	 42.55188	710.78998	 31.20	
 10.215	-47.354	 40.72343	 26.73907	  6.82098	  7.31557	 25.62266	 -0.43059	 42.53925	710.09003	 31.10	
 10.190	-37.895	 40.69583	 28.28566	  5.51894	  8.89954	 23.68036	 -0.35753	 42.53786	710.58002	 31.10	
 10.194	-28.474	 40.65781	 29.51909	  4.49779	 10.63899	 21.54042	 -0.27771	 42.53617	709.96997	 31.10	
 10.210	-18.966	 40.61721	 30.43057	  3.74299	 12.63316	 19.12866	 -0.21915	 42.53952	710.63000	 31.10	
 10.191	 -9.503	 40.58298	 30.93513	  3.30271	 14.80408	 16.97845	 -0.15538	 42.52913	710.51001	 31.10	
 10.200	  0.000	 40.56491	 31.05421	  3.20020	 16.94813	 14.75696	 -0.10740	 42.55071	710.70001	 31.10	
 10.191	  9.503	 40.53538	 30.70080	  3.41417	 19.26118	 12.49333	 -0.06084	 42.55479	710.70001	 31.10	
 10.210	 18.966	 40.45941	 29.96635	  3.89509	 21.60037	 10.36031	 -0.02981	 42.52649	710.72998	 31.10	
 10.194	 28.474	 40.43414	 28.87701	  4.67614	 23.80182	  8.44441	 -0.03922	 42.52981	710.71997	 31.10	
 10.190	 37.895	 40.42363	 27.48113	  5.79510	 25.80591	  6.72682	 -0.17272	 42.54255	710.78998	 31.10	
 10.215	 47.354	 40.38337	 25.72984	  7.15910	 27.55933	  5.17591	 -0.29812	 42.52889	710.72998	 31.10	
 10.203	 56.908	 40.37654	 23.69509	  8.84698	 28.98536	  4.00683	 -0.33658	 42.53611	709.96002	 31.10	
 10.192	 66.322	 40.39462	 21.48586	 10.68954	 30.05754	  3.20835	 -0.36196	 42.56187	709.96002	 31.10	
 10.208	 75.751	 40.39008	 19.14359	 12.74675	 30.80791	  2.62510	 -0.43021	 42.55188	710.78003	 31.00	
 10.210	 85.199	 40.39463	 17.06306	 14.90496	 31.14462	  2.36758	 -0.52744	 42.54220	710.06000	 31.00	
 10.210	 94.801	 40.40231	 14.79600	 17.09066	 31.04706	  2.47214	 -0.61716	 42.52286	710.35999	 31.00	
 10.208	104.249	 40.42478	 12.63191	 19.46027	 30.55552	  2.88205	 -0.61715	 42.53570	710.41998	 31.00	
 10.192	113.678	 40.44474	 10.64787	 21.76551	 29.64163	  3.54492	 -0.59645	 42.53376	710.01001	 31.00	
 10.203	123.092	 40.46452	  8.82785	 23.91825	 28.43755	  4.50363	 -0.64365	 42.55018	710.04999	 31.00	
 10.215	132.646	 40.47442	  7.22979	 25.87108	 26.88145	  5.81474	 -0.70247	 42.54056	710.35999	 31.00	
 10.190	142.105	 40.52275	  5.94811	 27.48986	 25.01014	  7.45071	 -0.72612	 42.53952	710.82001	 31.00	
 10.194	151.526	 40.56224	  4.95608	 28.80300	 22.91439	  9.28343	 -0.70369	 42.53869	710.70001	 31.00	
 10.210	161.034	 40.58399	  4.24824	 29.80869	 20.65786	 11.27592	 -0.65499	 42.52670	710.78998	 31.00	
 10.191	170.497	 40.64173	  3.89365	 30.38085	 18.27114	 13.48062	 -0.67709	 42.54229	710.75000	 31.00	
 11.899	171.783	 39.82778	  1.19634	 32.17526	 17.45360	 12.84263	 -1.07065	 42.53644	710.75000	 31.00	
 11.890	163.610	 39.77320	  1.49638	 31.66120	 19.78105	 10.64377	 -1.03371	 42.52030	710.45001	 31.00	
 11.889	155.445	 39.75776	  2.09474	 30.79791	 22.13697	  8.61683	 -1.08633	 42.54214	710.65002	 31.00	
 11.909	147.299	 39.67666	  2.87514	 29.57654	 24.33929	  6.62659	 -1.16314	 42.50883	710.47998	 31.00	
 11.902	139.148	 39.65391	  3.98443	 28.11077	 26.36889	  4.86005	 -1.18926	 42.53959	709.95001	 31.00	
 11.894	130.867	 39.62423	  5.37065	 26.38120	 28.15208	  3.32437	 -1.14344	 42.53163	710.65002	 30.90	
 11.897	122.732	 39.61710	  6.99064	 24.40080	 29.68684	  2.08807	 -1.05947	 42.53860	710.76001	 30.90	
 11.903	114.597	 39.60237	  8.78617	 22.25764	 30.97753	  1.10055	 -1.03535	 42.53730	710.08002	 30.90	
 11.893	106.346	 39.57674	 10.78891	 19.91806	 31.95918	  0.32797	 -1.05819	 42.52071	710.66998	 30.90	
 11.892	 98.155	 39.57030	 12.95366	 17.53446	 32.61420	 -0.11901	 -1.09028	 42.52326	710.67999	 30.90	
 11.900	 90.000	 39.52303	 15.16896	 15.33208	 32.88224	 -0.31563	 -1.04473	 42.51162	710.72998	 30.90	
 11.892	 81.845	 39.52099	 17.37424	 13.14803	 32.75301	 -0.15555	 -0.93498	 42.51277	710.72998	 30.90	
 11.893	 73.654	 39.50662	 19.49670	 10.98941	 32.28608	  0.18322	 -0.84573	 42.52068	710.82001	 30.90	
 11.903	 65.403	 39.49806	 21.83760	  8.95106	 31.47292	  0.73833	 -0.80693	 42.51398	710.87000	 30.90	
 11.897	 57.268	 39.48925	 24.08173	  7.11005	 30.30787	  1.57902	 -0.80713	 42.50928	710.16998	 30.90	
 11.894	 49.133	 39.51241	 26.13449	  5.43865	 28.91808	  2.63418	 -0.77973	 42.52890	710.71997	 30.90	
 11.902	 40.852	 39.51034	 27.96420	  3.93898	 27.25013	  3.98494	 -0.62908	 42.51250	710.75000	 30.90	
 11.909	 32.701	 39.53326	 29.47771	  2.75768	 25.34585	  5.62261	 -0.45740	 42.50837	710.76001	 30.80	
 11.889	 24.555	 39.55667	 30.77230	  1.88249	 23.18993	  7.50189	 -0.37280	 42.50359	710.63000	 30.80	
 11.890	 16.390	 39.62390	 31.80543	  1.21888	 20.94782	  9.50693	 -0.39279	 42.52542	710.72998	 30.80	
 11.899	  8.217	 39.65346	 32.46115	  0.79817	 18.53707	 11.68103	 -0.44238	 42.50226	710.71002	 30.80	
 11.900	  0.000	 39.69925	 32.80614	  0.60901	 16.35230	 13.96377	 -0.47665	 42.52697	710.66998	 30.80	
 11.899	 -8.217	 39.72221	 32.70729	  0.72891	 14.14146	 16.24609	 -0.52344	 42.50931	710.65002	 30.80	
 11.890	-16.390	 39.76616	 32.25052	  1.13751	 11.99126	 18.38573	 -0.55723	 42.51752	710.78003	 30.80	
 11.889	-24.555	 39.79377	 31.45279	  1.68061	  9.92253	 20.73377	 -0.58329	 42.51123	710.56000	 30.80	
 11.909	-32.701	 39.80586	 30.34401	  2.49313	  8.07919	 22.98542	 -0.66649	 42.49019	710.77002	 30.80	
 11.902	-40.852	 39.83863	 28.95843	  3.58294	  6.35507	 25.10188	 -0.74480	 42.50779	710.77002	 30.80	
 11.894	-49.133	 39.85962	 27.26521	  5.00447	  4.82921	 26.98365	 -0.77289	 42.49305	710.28003	 30.80	
 11.897	-57.268	 39.89334	 25.35010	  6.64341	  3.61981	 28.55273	 -0.77126	 42.51033	710.60999	 30.80	
 11.903	-65.403	 39.92324	 23.22401	  8.41545	  2.67481	 29.82331	 -0.80297	 42.50529	710.79999	 30.80	
 11.893	-73.654	 39.96694	 20.94205	 10.41486	  2.03001	 30.82536	 -0.80702	 42.51103	710.78003	 30.80	
 11.892	-81.845	 39.96507	 18.57575	 12.54120	  1.60195	 31.45788	 -0.80591	 42.49379	710.71002	 30.80	
 11.900	-90.000	 39.99808	 16.46132	 14.76478	  1.36612	 31.76111	 -0.78923	 42.51472	710.65997	 30.80	
 11.892	-98.155	 39.99429	 14.24264	 16.94693	  1.53250	 31.64627	 -0.77872	 42.48696	710.64001	 30.80	
 11.893	-106.346	 40.02845	 12.06456	 19.25964	  1.88316	 31.17928	 -0.78040	 42.49959	710.70001	 30.80	
 11.903	-114.597	 40.01102	  9.97107	 21.63703	  2.41557	 30.32152	 -0.80166	 42.50497	709.96997	 30.70	
 11.897	-122.732	 40.02080	  8.08798	 23.82788	  3.21909	 29.18376	 -0.84674	 42.51180	710.72998	 30.70	
 11.894	-130.867	 40.01178	  6.34000	 25.86969	  4.26300	 27.77429	 -0.87330	 42.52160	710.69000	 30.70	
 11.902	-139.148	 39.99168	  4.83075	 27.65453	  5.63569	 26.02604	 -0.87496	 42.49976	710.70001	 30.70	
 11.909	-147.299	 39.98501	  3.60668	 29.20754	  7.22992	 24.06163	 -0.88506	 42.50908	710.67999	 30.70	
 11.889	-155.445	 39.97204	  2.65947	 30.45554	  8.98333	 21.90193	 -0.93787	 42.50885	710.69000	 30.70	
 11.890	-163.610	 39.92755	  1.93731	 31.43676	 10.96302	 19.53129	 -1.01384	 42.49724	710.51001	 30.70	
 11.899	-171.783	 39.89108	  1.39769	 32.07220	 13.06954	 17.34197	 -1.09448	 42.51411	710.71997	 30.70	
 11.900	180.000	 39.85366	  1.12847	 32.31476	 15.26592	 15.14192	 -1.11011	 42.51281	710.71002	 30.70	
 13.600	180.000	 38.87249	 -1.30766	 33.94033	 14.36521	 14.38616	 -1.38511	 42.48898	710.29999	 30.70	
 13.608	-172.853	 38.93692	 -1.07733	 33.74482	 12.24915	 16.61979	 -1.36126	 42.51637	710.81000	 30.70	
 13.611	-165.583	 38.95207	 -0.65538	 33.17533	 10.08928	 18.74501	 -1.26526	 42.48730	710.04999	 30.70	
 13.601	-158.353	 38.99681	 -0.07380	 32.29469	  8.09622	 21.11099	 -1.18535	 42.49135	709.85999	 30.70	
 13.609	-151.210	 39.04437	  0.71954	 31.15389	  6.25812	 23.39394	 -1.09673	 42.51472	709.90002	 30.70	
 13.611	-143.999	 39.06868	  1.73285	 29.70693	  4.52551	 25.54135	 -1.05530	 42.51680	710.20001	 30.70	
 13.601	-136.825	 39.05827	  3.02515	 28.02460	  3.02134	 27.42145	 -1.03240	 42.50470	710.03003	 30.70	
 13.596	-129.640	 39.07502	  4.55340	 26.18653	  1.76899	 29.04023	 -1.00423	 42.50663	710.00000	 30.70	
 13.611	-122.431	 39.07407	  6.28091	 24.12624	  0.77966	 30.48491	 -0.95509	 42.50714	710.08002	 30.70	
 13.604	-115.211	 39.04427	  8.20901	 21.86633	 -0.02139	 31.69393	 -0.89603	 42.48207	710.48999	 30.70	
 13.595	-108.042	 39.05337	 10.22724	 19.50077	 -0.62414	 32.62779	 -0.86679	 42.50080	710.01001	 30.70	
 13.607	-100.793	 39.03313	 12.34132	 17.26262	 -1.03260	 33.23631	 -0.89291	 42.49973	710.03998	 30.70	
 13.601	-93.617	 39.02620	 14.56941	 15.02626	 -1.25968	 33.49175	 -0.89681	 42.50024	710.03998	 30.70	
 13.601	-86.383	 38.99038	 16.81786	 12.76154	 -1.22142	 33.38524	 -0.92815	 42.48919	710.00000	 30.60	
 13.607	-79.207	 38.98121	 18.97722	 10.57578	 -0.92020	 32.96928	 -0.95696	 42.49554	710.01001	 30.60	
 13.595	-71.958	 38.97720	 21.33858	  8.50493	 -0.44168	 32.19900	 -0.96101	 42.51199	710.20001	 30.60	
 13.604	-64.789	 38.93984	 23.60244	  6.58044	  0.25008	 31.13147	 -0.95788	 42.49371	710.01001	 30.60	
 13.611	-57.569	 38.90439	 25.76383	  4.74065	  1.16443	 29.74493	 -0.96294	 42.47800	710.07001	 30.60	
 13.596	-50.360	 38.86623	 27.71066	  3.08844	  2.35494	 28.17761	 -0.99415	 42.49047	710.02002	 30.60	
 13.601	-43.175	 38.85832	 29.43131	  1.60871	  3.77823	 26.42106	 -0.99987	 42.50036	710.03003	 30.60	
 13.611	-36.001	 38.83919	 30.97295	  0.39446	  5.39309	 24.40089	 -0.96339	 42.49990	710.13000	 30.60	
 13.609	-28.790	 38.81081	 32.27929	 -0.52457	  7.21022	 22.14506	 -0.90829	 42.49918	710.10999	 30.60	
 13.601	-21.647	 38.76756	 33.28421	 -1.17984	  9.08970	 19.76927	 -0.87602	 42.49649	710.13000	 30.60	
 13.611	-14.417	 38.71490	 34.00544	 -1.67741	 11.15940	 17.63755	 -0.84925	 42.49268	710.72998	 30.60	
 13.608	 -7.147	 38.68563	 34.36878	 -1.94618	 13.36703	 15.34781	 -0.85238	 42.48874	710.01001	 30.60	
 13.600	  0.000	 38.66144	 34.42546	 -2.01444	 15.54339	 13.10567	 -0.83079	 42.49733	709.92999	 30.60	
 13.608	  7.147	 38.60919	 34.12381	 -1.80714	 17.74724	 10.80963	 -0.80289	 42.46731	710.00000	 30.60	
 13.611	 14.417	 38.58262	 33.54193	 -1.48119	 20.08508	  8.56419	 -0.75670	 42.51349	710.10999	 30.60	
 13.601	 21.647	 38.57684	 32.60749	 -0.91425	 22.44699	  6.51687	 -0.72425	 42.52222	710.04999	 30.60	
 13.609	 28.790	 38.52790	 31.34713	 -0.15604	 24.66669	  4.55966	 -0.76916	 42.50312	709.97998	 30.60	
 13.611	 36.001	 38.50498	 29.87037	  0.86589	 26.74529	  2.78900	 -0.91182	 42.51371	710.03998	 30.60	
 13.601	 43.175	 38.48883	 28.29772	  2.16546	 28.51788	  1.36948	 -1.11310	 42.49242	710.04999	 30.60	
 13.596	 50.360	 38.48440	 26.45894	  3.61424	 30.15229	  0.14597	 -1.22322	 42.51987	710.08002	 30.60	
 13.611	 57.569	 38.46378	 24.32200	  5.28618	 31.61795	 -0.84165	 -1.24577	 42.51458	710.08002	 30.60	
 13.604	 64.789	 38.45679	 22.00747	  7.14858	 32.80726	 -1.60696	 -1.25345	 42.50422	710.03003	 30.60	
 13.595	 71.958	 38.47439	 19.75935	  9.10347	 33.69022	 -2.09921	 -1.30845	 42.51434	710.03998	 30.60	
 13.607	 79.207	 38.45919	 17.62267	 11.19593	 34.23497	 -2.47350	 -1.36197	 42.49294	710.08002	 30.60	
 13.601	 86.383	 38.50413	 15.39842	 13.41305	 34.47604	 -2.60551	 -1.44302	 42.50129	710.02002	 30.60	
 13.601	 93.617	 38.53012	 13.13483	 15.64708	 34.38109	 -2.56402	 -1.51301	 42.48999	710.02002	 30.60	
 13.607	100.793	 38.55455	 10.93834	 17.88132	 33.98306	 -2.29048	 -1.53143	 42.50591	710.03003	 30.60	
 13.595	108.042	 38.54133	  8.83809	 20.23185	 33.22678	 -1.84269	 -1.47917	 42.48320	710.09998	 30.60	
 13.604	115.211	 38.57267	  6.89133	 22.54832	 32.21164	 -1.26286	 -1.46917	 42.50509	710.06000	 30.60	
 13.611	122.431	 38.60370	  5.09094	 24.74714	 30.89502	 -0.43188	 -1.49205	 42.50957	710.06000	 30.60	
 13.596	129.640	 38.60210	  3.45034	 26.74600	 29.29562	  0.71070	 -1.54212	 42.47751	710.52002	 30.60	
 13.601	136.825	 38.65658	  2.03564	 28.55436	 27.58228	  2.24316	 -1.59867	 42.51100	710.77002	 30.60	
 13.611	143.999	 38.67379	  0.90498	 30.16477	 25.65948	  3.89086	 -1.56405	 42.49236	710.06000	 30.50	
 13.609	151.210	 38.71112	  0.02757	 31.55537	 23.50324	  5.75423	 -1.47549	 42.50435	710.03003	 30.50	
 13.601	158.353	 38.74068	 -0.61684	 32.61668	 21.19338	  7.74594	 -1.38263	 42.49037	710.29999	 30.50	
 13.611	165.583	 38.77538	 -1.07644	 33.40643	 18.84781	  9.84798	 -1.34746	 42.48752	710.70001	 30.50	
 13.608	172.853	 38.83081	 -1.26387	 33.84483	 16.61223	 12.10850	 -1.35250	 42.50220	710.70001	 30.50	
 15.298	173.587	 37.75379	 -3.60410	 35.37648	 15.64757	 11.26563	 -1.55997	 42.49992	710.46002	 30.50	
 15.291	167.167	 37.71546	 -3.35959	 34.93000	 17.85327	  9.03237	 -1.58975	 42.49468	710.29999	 30.50	
 15.307	160.676	 37.67045	 -2.98622	 34.25529	 20.15566	  6.91246	 -1.65473	 42.49778	710.51001	 30.50	
 15.300	154.261	 37.62088	 -2.46525	 33.31633	 22.47345	  4.84756	 -1.74241	 42.48703	710.46997	 30.50	
 15.288	147.854	 37.59672	 -1.73442	 32.04658	 24.74002	  2.94280	 -1.86439	 42.49913	710.70001	 30.50	
 15.293	141.428	 37.59283	 -0.80823	 30.56675	 26.77551	  1.20242	 -1.96085	 42.50333	710.00000	 30.50	
 15.299	134.985	 37.55160	  0.29455	 28.88247	 28.69452	 -0.26638	 -1.97764	 42.50953	710.03998	 30.50	
 15.305	128.583	 37.50635	  1.56761	 26.97713	 30.44539	 -1.52296	 -1.94894	 42.50857	710.09998	 30.50	
 15.309	122.142	 37.47866	  3.14385	 24.99793	 32.00013	 -2.53112	 -1.90947	 42.49185	710.03998	 30.50	
 15.304	115.711	 37.49916	  4.92649	 22.80569	 33.33678	 -3.34403	 -1.88506	 42.53665	710.47998	 30.50	
 15.297	109.291	 37.46816	  6.81224	 20.49744	 34.33632	 -3.86515	 -1.90001	 42.50951	710.57001	 30.50	
 15.293	102.897	 37.47308	  8.89616	 18.17378	 35.12948	 -4.31146	 -1.95115	 42.50687	710.83002	 30.50	
 15.293	 96.458	 37.44460	 11.06847	 15.92937	 35.66225	 -4.71966	 -1.94668	 42.50190	710.78003	 30.50	
 15.300	 90.000	 37.40751	 13.29536	 13.64730	 35.92746	 -4.92417	 -1.92529	 42.50717	709.98999	 30.50	
 15.293	 83.542	 37.36211	 15.52927	 11.41561	 35.84927	 -4.93920	 -1.86742	 42.49612	710.09003	 30.50	
 15.293	 77.103	 37.34401	 17.80927	  9.24294	 35.50816	 -4.70542	 -1.80275	 42.49483	710.37000	 30.50	
 15.297	 70.709	 37.32561	 19.89638	  7.20269	 34.84676	 -4.29974	 -1.76721	 42.49007	710.12000	 30.50	
 15.304	 64.289	 37.31341	 22.10843	  5.25810	 33.95368	 -3.80254	 -1.70708	 42.51154	710.03003	 30.50	
 15.309	 57.858	 37.28897	 24.41174	  3.40177	 32.74796	 -3.13268	 -1.69152	 42.49229	710.00000	 30.40	
 15.305	 51.417	 37.32054	 26.57280	  1.75784	 31.35292	 -2.23174	 -1.65258	 42.52145	709.96997	 30.40	
 15.299	 45.015	 37.34694	 28.48147	  0.26426	 29.67266	 -1.08587	 -1.55663	 42.52870	709.98999	 30.40	
 15.293	 38.572	 37.38039	 30.12405	 -0.92424	 27.92218	  0.25496	 -1.36912	 42.51182	710.77002	 30.40	
 15.288	 32.146	 37.37361	 31.71408	 -1.97935	 25.97636	  1.70869	 -1.21330	 42.51166	710.03003	 30.50	
 15.300	 25.739	 37.38985	 33.10969	 -2.82735	 23.82826	  3.46968	 -1.11661	 42.51142	710.08002	 30.50	
 15.307	 19.324	 37.41953	 34.23360	 -3.46480	 21.50645	  5.43718	 -1.07616	 42.50226	710.13000	 30.50	
 15.291	 12.833	 37.46466	 35.06500	 -3.86864	 19.15003	  7.58639	 -1.09478	 42.50756	710.06000	 30.40	
 15.298	  6.413	 37.51095	 35.67817	 -4.20496	 16.96870	  9.80656	 -1.12670	 42.50606	710.22998	 30.40	
 15.300	  0.000	 37.53778	 35.96647	 -4.36220	 14.69902	 12.10127	 -1.12308	 42.52221	710.84998	 30.40	
 15.298	 -6.413	 37.56269	 35.91080	 -4.29116	 12.51500	 14.36357	 -1.12064	 42.50439	710.83002	 30.40	
 15.291	-12.833	 37.58307	 35.57479	 -4.04697	 10.32968	 16.67077	 -1.09495	 42.49152	710.91998	 30.40	
 15.307	-19.324	 37.61990	 34.91710	 -3.60366	  8.21119	 18.88927	 -1.09572	 42.50143	710.85999	 30.40	
 15.300	-25.739	 37.66344	 34.02836	 -3.08427	  6.32511	 21.03364	 -1.08107	 42.50615	710.82001	 30.40	
 15.288	-32.146	 37.70331	 32.85627	 -2.39948	  4.50172	 23.41840	 -1.09776	 42.50058	710.91998	 30.40	
 15.293	-38.572	 37.71826	 31.41897	 -1.44420	  2.74809	 25.62048	 -1.11217	 42.49522	710.79999	 30.40	
 15.299	-45.015	 37.76259	 29.79633	 -0.26414	  1.18054	 27.58048	 -1.10185	 42.51020	710.66998	 30.40	
 15.305	-51.417	 37.79068	 28.04809	  1.09804	 -0.11526	 29.27718	 -1.05322	 42.51772	710.91998	 30.40	
 15.309	-57.858	 37.80186	 26.06185	  2.83490	 -1.23134	 30.88048	 -1.01742	 42.50149	710.82001	 30.40	
 15.304	-64.289	 37.82726	 23.89321	  4.64753	 -2.07602	 32.31711	 -0.99409	 42.49525	710.56000	 30.40	
 15.297	-70.709	 37.84591	 21.57561	  6.54371	 -2.70783	 33.43409	 -0.95997	 42.49237	710.15002	 30.40	
 15.293	-77.103	 37.85530	 19.27990	  8.53813	 -3.15143	 34.24375	 -0.96146	 42.49581	710.90002	 30.40	
 15.293	-83.542	 37.87206	 17.11875	 10.71327	 -3.53440	 34.77822	 -0.92993	 42.49940	710.69000	 30.40	
 15.300	-90.000	 37.88918	 14.85616	 12.94788	 -3.63498	 35.01310	 -0.88800	 42.48851	710.84003	 30.40	
 15.293	-96.458	 37.90973	 12.60441	 15.22153	 -3.57991	 34.95204	 -0.86833	 42.47775	710.21997	 30.30	
 15.293	-102.897	 37.93573	 10.41454	 17.43628	 -3.27944	 34.57536	 -0.85949	 42.47971	710.16998	 30.40	
 15.297	-109.291	 37.95184	  8.32660	 19.65240	 -2.89013	 33.92914	 -0.83945	 42.49679	710.76001	 30.40	
 15.304	-115.711	 37.96056	  6.35343	 22.01410	 -2.35961	 32.98838	 -0.88086	 42.49963	710.84998	 30.30	
 15.309	-122.142	 37.97399	  4.47739	 24.28944	 -1.63740	 31.74131	 -0.90580	 42.49593	710.13000	 30.40	
 15.305	-128.583	 38.00444	  2.78420	 26.37234	 -0.65458	 30.24156	 -1.00164	 42.50258	710.85999	 30.40	
 15.299	-134.985	 37.98013	  1.29688	 28.23381	  0.49711	 28.61200	 -1.00835	 42.49078	710.19000	 30.40	
 15.293	-141.428	 37.98534	  0.05809	 29.96778	  1.85724	 26.84712	 -1.09228	 42.49738	710.10999	 30.40	
 15.288	-147.854	 37.96722	 -1.02714	 31.59665	  3.43618	 24.77936	 -1.11367	 42.50324	710.16998	 30.30	
 15.300	-154.261	 37.94947	 -1.90525	 32.92564	  5.20229	 22.56081	 -1.20214	 42.49743	710.20001	 30.30	
 15.307	-160.676	 37.91158	 -2.57871	 33.97725	  7.04443	 20.24545	 -1.28823	 42.50994	710.10999	 30.30	
 15.291	-167.167	 37.87468	 -3.12750	 34.72789	  9.09604	 18.04908	 -1.40335	 42.49854	710.13000	 30.30	
 15.298	-173.587	 37.82538	 -3.49698	 35.28763	 11.23650	 15.79739	 -1.49064	 42.49705	710.09003	 30.30	
 15.300	180.000	 37.77575	 -3.64319	 35.45662	 13.39165	 13.54996	 -1.54879	 42.47935	710.22998	 30.30	
 17.000	180.000	 36.54457	 -5.93760	 36.80580	 12.33605	 12.59977	 -1.61375	 42.47308	710.23999	 30.30	
 16.990	-174.179	 36.60000	 -5.79108	 36.63468	 10.20297	 14.86201	 -1.54264	 42.47481	710.15002	 30.30	
 17.009	-168.383	 36.63268	 -5.52621	 36.15399	  8.07529	 17.14448	 -1.43570	 42.48859	710.15997	 30.30	
 17.000	-162.596	 36.69400	 -4.97678	 35.44908	  6.03655	 19.32148	 -1.33777	 42.49217	710.16998	 30.30	
 16.990	-156.759	 36.74672	 -4.31831	 34.50396	  4.13079	 21.58329	 -1.24137	 42.50311	710.12000	 30.30	
 16.995	-150.919	 36.75418	 -3.60811	 33.28650	  2.33484	 23.89057	 -1.14215	 42.49866	710.22998	 30.30	
 16.988	-145.161	 36.77409	 -2.65783	 31.82284	  0.74913	 26.03498	 -1.04773	 42.50573	710.81000	 30.30	
 17.014	-139.343	 36.78628	 -1.59641	 30.18433	 -0.69252	 27.97670	 -0.97296	 42.50975	710.28998	 30.30	
 17.007	-133.546	 36.77661	 -0.37266	 28.37141	 -1.90525	 29.75473	 -0.91507	 42.50729	710.15002	 30.30	
 17.001	-127.699	 36.77756	  1.07108	 26.43285	 -2.92319	 31.40387	 -0.87117	 42.51365	710.21002	 30.30	
 17.006	-121.937	 36.76788	  2.59011	 24.35619	 -3.76456	 32.87955	 -0.83048	 42.53132	710.96002	 30.30	
 17.002	-116.134	 36.72282	  4.38303	 22.07749	 -4.47807	 34.08876	 -0.79580	 42.49878	710.15002	 30.30	
 17.001	-110.310	 36.71449	  6.36739	 19.73601	 -5.04574	 35.04467	 -0.77384	 42.48232	710.10999	 30.30	
 16.988	-104.517	 36.71988	  8.43919	 17.56181	 -5.45720	 35.81690	 -0.77839	 42.48839	710.02002	 30.30	
 17.008	-98.662	 36.66895	 10.57045	 15.30982	 -5.77047	 36.27875	 -0.78957	 42.46916	710.64001	 30.30	
 16.996	-92.909	 36.68641	 12.82244	 13.04624	 -5.87275	 36.48759	 -0.80471	 42.49639	710.13000	 30.30	
 16.996	-87.091	 36.63452	 15.07699	 10.79737	 -5.82757	 36.37436	 -0.81623	 42.47136	710.08002	 30.30	
 17.012	-81.253	 36.62534	 17.33716	  8.58118	 -5.64707	 35.98573	 -0.84654	 42.48624	710.07001	 30.30	
 16.988	-75.483	 36.62354	 19.44912	  6.50628	 -5.20062	 35.34908	 -0.87272	 42.49661	710.91998	 30.30	
 17.001	-69.690	 36.59374	 21.73696	  4.50713	 -4.76210	 34.48840	 -0.91165	 42.50266	710.09998	 30.30	
 17.002	-63.866	 36.55452	 24.04284	  2.61828	 -4.18479	 33.35500	 -0.93685	 42.49734	710.15002	 30.30	
 17.006	-58.063	 36.51184	 26.19742	  0.83458	 -3.41874	 31.92595	 -0.96427	 42.48398	710.20001	 30.30	
 17.001	-52.301	 36.51634	 28.16585	 -0.70274	 -2.45795	 30.32106	 -1.01103	 42.49590	710.51001	 30.30	
 17.007	-46.454	 36.50328	 29.99687	 -2.05192	 -1.28258	 28.55939	 -1.06308	 42.50395	710.65002	 30.30	
 17.014	-40.657	 36.45390	 31.73775	 -3.24267	  0.06798	 26.69393	 -1.11370	 42.49196	710.09003	 30.30	
 16.988	-34.839	 36.42297	 33.26154	 -4.19910	  1.62386	 24.58470	 -1.14051	 42.49164	710.81000	 30.20	
 16.995	-29.081	 36.37804	 34.52594	 -4.90219	  3.37714	 22.32233	 -1.15612	 42.46843	710.09003	 30.20	
 16.990	-23.241	 36.37348	 35.56908	 -5.45739	  5.28157	 19.94065	 -1.17877	 42.48693	710.09003	 30.20	
 17.000	-17.404	 36.31462	 36.36609	 -5.98847	  7.24257	 17.88955	 -1.21681	 42.47392	710.22998	 30.20	
 17.009	-11.617	 36.27937	 36.95136	 -6.41017	  9.34847	 15.58287	 -1.24996	 42.49115	710.09003	 30.20	
 16.990	 -5.821	 36.28183	 37.20869	 -6.59534	 11.54851	 13.26597	 -1.30496	 42.47625	710.53003	 30.20	
 17.000	  0.000	 36.23095	 37.25488	 -6.70203	 13.72121	 10.96453	 -1.35956	 42.46439	710.14001	 30.20	
 16.990	  5.821	 36.22593	 36.98386	 -6.54497	 16.01582	  8.68412	 -1.41244	 42.46621	710.03003	 30.20	
 17.009	 11.617	 36.18785	 36.44175	 -6.31567	 18.18572	  6.41572	 -1.42938	 42.47966	710.42999	 30.20	
 17.000	 17.404	 36.15225	 35.66765	 -5.95748	 20.35107	  4.33424	 -1.40983	 42.46015	710.07001	 30.20	
 16.990	 23.241	 36.14185	 34.65278	 -5.37143	 22.71774	  2.41068	 -1.46101	 42.48524	709.97998	 30.20	
 16.995	 29.081	 36.11689	 33.37141	 -4.63028	 25.07055	  0.67502	 -1.53353	 42.49150	710.09003	 30.20	
 16.988	 34.839	 36.09755	 31.87350	 -3.73784	 27.07305	 -0.81595	 -1.65269	 42.47034	710.72998	 30.20	
 17.014	 40.657	 36.04866	 30.25291	 -2.71301	 28.95942	 -2.24771	 -1.81072	 42.47752	710.03998	 30.20	
 17.007	 46.454	 36.02979	 28.48193	 -1.44870	 30.77932	 -3.45188	 -1.96953	 42.47702	710.03998	 30.20	
 17.001	 52.301	 35.99827	 26.50197	 -0.02977	 32.41567	 -4.48189	 -2.06859	 42.48666	710.19000	 30.20	
 17.006	 58.063	 36.00303	 24.37388	  1.57820	 33.78951	 -5.27721	 -2.10899	 42.47663	710.12000	 30.20	
 17.002	 63.866	 36.01384	 22.09191	  3.30141	 34.94769	 -6.00366	 -2.13737	 42.48960	710.31000	 30.20	
 17.001	 69.690	 36.00861	 19.90840	  5.21008	 35.90524	 -6.60984	 -2.20386	 42.46939	710.42999	 30.20	
 16.988	 75.483	 36.03986	 17.75952	  7.23226	 36.62117	 -7.02355	 -2.23557	 42.49243	710.21997	 30.20	
 17.012	 81.253	 36.01736	 15.46578	  9.31197	 37.07370	 -7.33667	 -2.30305	 42.47593	709.97998	 30.20	
 16.996	 87.091	 36.06464	 13.22892	 11.54030	 37.23922	 -7.37131	 -2.33345	 42.45951	710.48999	 30.20	
 16.996	 92.909	 36.14149	 11.05598	 13.79078	 37.16556	 -7.19949	 -2.39675	 42.48834	710.12000	 30.20	
 17.008	 98.662	 36.17715	  8.89351	 16.04789	 36.83911	 -6.93860	 -2.40416	 42.49363	710.13000	 30.20	
 16.988	104.517	 36.18030	  6.74334	 18.25530	 36.19482	 -6.48034	 -2.37841	 42.46857	710.07001	 30.20	
 17.001	110.310	 36.22578	  4.72306	 20.62098	 35.36243	 -5.93300	 -2.33876	 42.49687	710.77002	 30.20	
 17.002	116.134	 36.22454	  2.93230	 22.93315	 34.26288	 -5.34247	 -2.28566	 42.48204	710.78003	 30.20	
 17.006	121.937	 36.22684	  1.28182	 25.13000	 32.94337	 -4.57679	 -2.26807	 42.48681	710.77002	 30.20	
 17.001	127.699	 36.22021	 -0.17352	 27.07784	 31.43014	 -3.64726	 -2.28317	 42.46659	710.78003	 30.20	
 17.007	133.546	 36.24742	 -1.49304	 29.00711	 29.68493	 -2.47724	 -2.27773	 42.48251	710.51001	 30.20	
 17.014	139.343	 36.28984	 -2.59088	 30.77169	 27.78623	 -1.15212	 -2.24726	 42.46977	710.59003	 30.20	
 16.988	145.161	 36.35502	 -3.50457	 32.36974	 25.73926	  0.41596	 -2.15516	 42.47685	710.75000	 30.20	
 16.995	150.919	 36.38817	 -4.25135	 33.70535	 23.64317	  1.95278	 -2.06511	 42.48102	710.34003	 30.20	
 16.990	156.759	 36.42204	 -4.90040	 34.84331	 21.35841	  3.87244	 -1.94004	 42.47857	710.75000	 30.10	
 17.000	162.596	 36.44186	 -5.32252	 35.70930	 19.02150	  5.94424	 -1.82522	 42.47161	710.67999	 30.20	
 17.009	168.383	 36.47149	 -5.67218	 36.34579	 16.84269	  8.03257	 -1.76920	 42.49108	710.70001	 30.20	
 16.990	174.179	 36.48354	 -5.86518	 36.68843	 14.57164	 10.30223	 -1.69076	 42.45261	710.65002	 30.20	
 18.709	174.675	 35.14091	 -8.21817	 37.98428	 13.38712	  9.25575	 -1.66974	 42.49646	710.72998	 30.20	
 18.703	169.441	 35.13716	 -7.99896	 37.64173	 15.61932	  7.03017	 -1.78877	 42.48633	710.67999	 30.20	
 18.691	164.085	 35.13250	 -7.79227	 37.07979	 17.82294	  4.89325	 -1.92529	 42.48609	710.65997	 30.20	
 18.706	158.818	 35.08971	 -7.50708	 36.31567	 20.02456	  2.86526	 -1.99648	 42.48548	710.77002	 30.20	
 18.695	153.537	 35.05460	 -6.87808	 35.26127	 22.37199	  1.11909	 -2.11439	 42.48269	710.72998	 30.20	
 18.704	148.255	 35.03091	 -6.11519	 34.02224	 24.59469	 -0.51606	 -2.24291	 42.47878	710.71002	 30.10	
 18.698	142.952	 34.94632	 -5.25619	 32.51406	 26.70028	 -2.06046	 -2.36759	 42.45643	710.44000	 30.10	
 18.699	137.625	 34.94836	 -4.25653	 30.86802	 28.72369	 -3.46446	 -2.46910	 42.49038	710.71997	 30.10	
 18.705	132.343	 34.90329	 -3.20135	 29.14109	 30.53694	 -4.57242	 -2.52336	 42.47230	710.77002	 30.10	
 18.713	127.067	 34.87290	 -1.99515	 27.20207	 32.23521	 -5.62871	 -2.56833	 42.48220	710.67999	 30.10	
 18.700	121.794	 34.84826	 -0.62432	 25.17408	 33.78105	 -6.68446	 -2.57616	 42.49565	710.71997	 30.10	
 18.698	116.504	 34.83414	  0.90595	 22.97072	 35.12556	 -7.62103	 -2.61318	 42.50023	710.67999	 30.10	
 18.707	111.165	 34.80227	  2.67511	 20.60756	 36.25756	 -8.28146	 -2.70223	 42.46589	710.73999	 30.10	
 18.690	105.863	 34.77322	  4.58802	 18.24884	 37.16641	 -8.88798	 -2.76221	 42.49963	710.00000	 30.10	
 18.696	100.583	 34.73783	  6.58196	 16.00160	 37.81750	 -9.37923	 -2.78817	 42.46935	710.71997	 30.10	
 18.700	 95.309	 34.75539	  8.76338	 13.78256	 38.25667	 -9.45533	 -2.81309	 42.49829	709.94000	 30.10	
 18.700	 90.000	 34.69429	 10.93997	 11.53799	 38.43286	 -9.58805	 -2.78602	 42.47194	710.31000	 30.10	
 18.700	 84.691	 34.62644	 13.05412	  9.33623	 38.40286	 -9.77439	 -2.72690	 42.47550	709.94000	 30.10	
 18.696	 79.417	 34.59319	 15.28902	  7.18261	 38.12231	 -9.68123	 -2.69330	 42.47385	710.03003	 30.10	
 18.690	 74.137	 34.58619	 17.53735	  5.14278	 37.60700	 -9.40618	 -2.62590	 42.47193	709.96002	 30.10	
 18.707	 68.835	 34.58737	 19.75492	  3.16131	 36.89355	 -9.05847	 -2.57815	 42.49491	710.01001	 30.10	
 18.698	 63.496	 34.59326	 21.93680	  1.36671	 35.93981	 -8.35065	 -2.52922	 42.49958	710.75000	 30.10	
 18.700	 58.206	 34.60828	 24.26822	 -0.28237	 34.73514	 -7.52087	 -2.47328	 42.50369	710.03003	 30.10	
 18.713	 52.933	 34.61419	 26.42148	 -1.79198	 33.34156	 -6.68320	 -2.43093	 42.49791	710.07001	 30.10	
 18.705	 47.657	 34.61778	 28.40463	 -3.19314	 31.73756	 -5.70635	 -2.34739	 42.47279	710.82001	 30.10	
 18.699	 42.375	 34.63929	 30.22640	 -4.40432	 29.96786	 -4.59231	 -2.24083	 42.49561	710.15002	 30.10	
 18.698	 37.048	 34.64800	 31.94280	 -5.45348	 27.99888	 -3.31772	 -2.10742	 42.47078	710.02002	 30.10	
 18.704	 31.745	 34.69033	 33.55530	 -6.41374	 25.97418	 -1.87457	 -1.94951	 42.50087	710.56000	 30.10	
 18.695	 26.463	 34.66883	 34.88006	 -7.26610	 23.83592	 -0.36093	 -1.83099	 42.46798	710.00000	 30.10	
 18.706	 21.182	 34.69329	 36.06247	 -7.94651	 21.56142	  1.36170	 -1.75064	 42.48343	710.03998	 30.10	
 18.691	 15.915	 34.74733	 37.01292	 -8.42054	 19.26851	  3.23450	 -1.69143	 42.50298	710.12000	 30.10	
 18.703	 10.559	 34.76370	 37.75253	 -8.83838	 17.13057	  5.24940	 -1.64598	 42.50417	709.97998	 30.10	
 18.709	  5.325	 34.77871	 38.19995	 -8.95910	 14.90489	  7.48457	 -1.61072	 42.47670	710.71997	 30.10	
 18.700	  0.000	 34.82559	 38.44040	 -9.01582	 12.65065	  9.76521	 -1.51857	 42.48352	710.60999	 30.10	
 18.709	 -5.325	 34.85956	 38.44559	 -8.95006	 10.48805	 12.02592	 -1.44023	 42.50533	710.01001	 30.10	
 18.703	-10.559	 34.86839	 38.18330	 -8.75561	  8.33984	 14.30334	 -1.36391	 42.48238	710.19000	 30.10	
 18.691	-15.915	 34.90535	 37.69054	 -8.37493	  6.21778	 16.69354	 -1.29239	 42.49535	710.62000	 30.10	
 18.706	-21.182	 34.96462	 36.96351	 -7.86179	  4.23148	 18.95747	 -1.26069	 42.49406	710.76001	 30.10	
 18.695	-26.463	 35.01262	 35.96989	 -7.28008	  2.33395	 21.13373	 -1.20736	 42.49797	710.76001	 30.10	
 18.704	-31.745	 35.03066	 34.81446	 -6.61742	  0.57207	 23.40624	 -1.15925	 42.50752	710.71002	 30.10	
 18.698	-37.048	 35.03147	 33.44814	 -5.83874	 -0.92201	 25.59121	 -1.07478	 42.46682	710.67999	 30.10	
 18.699	-42.375	 35.07185	 31.87361	 -4.97590	 -2.29278	 27.63856	 -1.02066	 42.49538	710.65002	 30.10	
 18.705	-47.657	 35.12096	 30.10030	 -3.81052	 -3.50766	 29.52086	 -0.97801	 42.49871	710.69000	 30.10	
 18.713	-52.933	 35.11597	 28.20918	 -2.48494	 -4.53825	 31.26326	 -0.91324	 42.47182	710.66998	 30.10	
 18.700	-58.206	 35.18554	 26.29170	 -0.99410	 -5.42372	 32.78322	 -0.89302	 42.48839	710.65002	 30.10	
 18.698	-63.496	 35.18703	 24.07076	  0.61698	 -6.29007	 34.17184	 -0.86176	 42.47613	710.71002	 30.10	
 18.707	-68.835	 35.19821	 21.71821	  2.39578	 -7.03175	 35.38134	 -0.83602	 42.48680	710.64001	 30.10	
 18.690	-74.137	 35.22301	 19.47177	  4.35921	 -7.46987	 36.32157	 -0.79880	 42.46974	710.71997	 30.10	
 18.696	-79.417	 35.25354	 17.39238	  6.41897	 -7.84589	 37.03516	 -0.77881	 42.48395	710.72998	 30.10	
 18.700	-84.691	 35.26624	 15.14132	  8.54903	 -8.07201	 37.48392	 -0.75155	 42.49299	710.69000	 30.10	
 18.700	-90.000	 35.29564	 12.89965	 10.76389	 -8.12985	 37.71859	 -0.70554	 42.47034	710.42999	 30.10	
 18.700	-95.309	 35.30841	 10.64729	 13.02666	 -8.12030	 37.68892	 -0.69764	 42.47481	710.67999	 30.10	
 18.696	-100.583	 35.30239	  8.45630	 15.25470	 -8.06882	 37.37783	 -0.71771	 42.47166	710.72998	 30.10	
 18.690	-105.863	 35.32585	  6.37244	 17.50239	 -7.77906	 36.82629	 -0.72562	 42.48159	710.71002	 30.10	
 18.707	-111.165	 35.34672	  4.37265	 19.65052	 -7.30931	 36.05370	 -0.71520	 42.48078	710.75000	 30.10	
 18.698	-116.504	 35.37368	  2.48711	 22.00516	 -6.75640	 35.03519	 -0.71347	 42.48340	710.73999	 30.10	
 18.700	-121.794	 35.38017	  0.82058	 24.25857	 -6.08577	 33.82140	 -0.74503	 42.49242	710.76001	 30.00	
 18.713	-127.067	 35.37836	 -0.67291	 26.36086	 -5.22479	 32.44290	 -0.78974	 42.48763	710.73999	 30.10	
 18.705	-132.343	 35.40387	 -1.99684	 28.32179	 -4.16487	 30.78634	 -0.83064	 42.47102	710.65997	 30.00	
 18.699	-137.625	 35.43720	 -3.14063	 30.15180	 -3.03379	 29.01137	 -0.87927	 42.48476	710.66998	 30.00	
 18.698	-142.952	 35.42444	 -4.27467	 31.88987	 -1.77927	 27.09643	 -0.95207	 42.48360	710.53003	 30.10	
 18.704	-148.255	 35.39177	 -5.37958	 33.42488	 -0.41901	 25.03771	 -0.99724	 42.48194	710.75000	 30.10	
 18.695	-153.537	 35.36105	 -6.21485	 34.75170	  1.18947	 22.78863	 -1.10792	 42.47123	710.72998	 30.10	
 18.706	-158.818	 35.32671	 -6.90618	 35.89298	  2.95745	 20.48054	 -1.19884	 42.47092	710.00000	 30.10	
 18.691	-164.085	 35.29214	 -7.50436	 36.77736	  4.86118	 18.34996	 -1.29203	 42.47096	710.35999	 30.00	
 18.703	-169.441	 35.22419	 -8.01515	 37.44762	  6.94977	 16.01812	 -1.38755	 42.47017	710.28003	 30.00	
 18.709	-174.675	 35.19783	 -8.26253	 37.87004	  9.04168	 13.74838	 -1.49427	 42.49131	710.70001	 30.10	
 18.700	180.000	 35.17873	 -8.32884	 38.05305	 11.19269	 11.50743	 -1.56979	 42.50375	710.75000	 30.00	
 20.400	180.000	 33.66806	-10.74261	 39.13617	  9.98510	 10.22934	 -1.46096	 42.49504	710.65997	 30.00	
 20.401	-175.153	 33.67981	-10.70787	 38.97744	  7.90315	 12.43084	 -1.37361	 42.47190	710.81000	 30.00	
 20.407	-170.264	 33.72064	-10.52502	 38.60695	  5.76140	 14.75134	 -1.27050	 42.48414	710.73999	 30.00	
 20.410	-165.423	 33.77625	-10.09181	 37.99809	  3.73737	 17.08734	 -1.20923	 42.48445	710.82001	 30.00	
 20.392	-160.496	 33.85184	 -9.53170	 37.20344	  1.85698	 19.34317	 -1.11189	 42.49824	710.75000	 30.00	
 20.401	-155.705	 33.84713	 -8.96641	 36.16346	  0.09075	 21.50794	 -1.03918	 42.47310	710.75000	 30.00	
 20.405	-150.835	 33.86459	 -8.24715	 34.92667	 -1.54491	 23.79587	 -0.92986	 42.49208	710.73999	 30.10	
 20.397	-145.903	 33.90052	 -7.21638	 33.43893	 -2.89742	 25.98115	 -0.87554	 42.45574	710.71002	 30.00	
 20.392	-141.062	 33.93814	 -6.05601	 31.82258	 -4.13076	 28.02432	 -0.82614	 42.47730	710.72998	 30.00	
 20.396	-136.227	 33.94065	 -4.84582	 30.09121	 -5.31841	 29.92728	 -0.76554	 42.48703	710.78998	 30.00	
 20.408	-131.372	 33.89993	 -3.68084	 28.21119	 -6.50061	 31.70798	 -0.74217	 42.46807	710.75000	 30.00	
 20.410	-126.511	 33.87383	 -2.38410	 26.18839	 -7.55428	 33.29431	 -0.69220	 42.47273	710.73999	 30.00	
 20.400	-121.604	 33.83878	 -0.93715	 24.00353	 -8.49227	 34.73625	 -0.66052	 42.47870	710.71002	 30.10	
 20.403	-116.741	 33.79232	  0.64110	 21.75660	 -9.22110	 35.96753	 -0.63081	 42.49329	710.08002	 30.00	
 20.413	-111.900	 33.74212	  2.39613	 19.45318	 -9.76023	 36.95298	 -0.63105	 42.46330	710.81000	 30.10	
 20.398	-107.004	 33.74626	  4.30466	 17.22820	-10.21580	 37.78413	 -0.63860	 42.47950	709.96997	 30.10	
 20.394	-102.132	 33.71742	  6.34680	 14.96160	-10.56847	 38.35812	 -0.62636	 42.48156	710.77002	 30.10	
 20.403	-97.332	 33.67762	  8.46842	 12.73644	-10.64337	 38.69268	 -0.63038	 42.44902	710.71997	 30.00	
 20.392	-92.440	 33.71956	 10.67210	 10.57278	-10.47003	 38.83195	 -0.63326	 42.46967	710.81000	 30.00	
 20.392	-87.560	 33.68666	 12.81951	  8.42675	-10.45084	 38.74933	 -0.64974	 42.48143	710.77002	 30.00	
 20.403	-82.668	 33.61533	 14.98684	  6.25629	-10.55456	 38.46694	 -0.67352	 42.47032	710.76001	 30.00	
 20.394	-77.868	 33.60595	 17.20348	  4.20817	-10.33767	 37.96284	 -0.67242	 42.48079	710.87000	 30.00	
 20.398	-72.996	 33.59159	 19.34746	  2.23607	 -9.95680	 37.20507	 -0.70782	 42.47775	710.88000	 30.00	
 20.413	-68.100	 33.56334	 21.61131	  0.40525	 -9.42748	 36.21371	 -0.72239	 42.47453	710.87000	 30.00	
 20.403	-63.259	 33.55602	 23.87161	 -1.27301	 -8.68611	 35.05602	 -0.74654	 42.46693	710.94000	 30.00	
 20.400	-58.396	 33.56419	 26.07596	 -2.78748	 -7.76688	 33.64899	 -0.78345	 42.46126	710.95001	 30.00	
 20.410	-53.489	 33.57353	 28.14572	 -4.25317	 -6.75051	 32.07961	 -0.83796	 42.48774	710.90997	 30.00	
 20.408	-48.628	 33.51397	 30.05823	 -5.54880	 -5.65207	 30.29726	 -0.85186	 42.46725	710.79999	 30.00	
 20.396	-43.773	 33.51657	 31.86608	 -6.57958	 -4.52202	 28.43267	 -0.89950	 42.47518	710.84003	 30.00	
 20.392	-38.938	 33.47787	 33.50459	 -7.59082	 -3.35411	 26.44230	 -0.94968	 42.46951	710.90002	 30.00	
 20.397	-34.097	 33.44797	 34.97510	 -8.48630	 -1.98686	 24.31809	 -1.01548	 42.47325	710.85999	 30.00	
 20.405	-29.165	 33.39036	 36.29605	 -9.36625	 -0.46431	 22.04134	 -1.07771	 42.48164	710.78998	 30.00	
 20.401	-24.295	 33.35915	 37.32878	-10.03228	  1.29513	 19.79904	 -1.15043	 42.46991	710.83002	 30.00	
 20.392	-19.504	 33.34722	 38.20150	-10.49989	  3.17248	 17.57698	 -1.22731	 42.46657	710.81000	 30.00	
 20.410	-14.577	 33.28126	 38.87648	-11.01062	  5.17315	 15.21619	 -1.30519	 42.46928	710.81000	 30.00	
 20.407	 -9.736	 33.27413	 39.28570	-11.21334	  7.27781	 12.88029	 -1.39769	 42.46824	710.76001	 30.00	
 20.401	 -4.847	 33.27816	 39.49013	-11.23398	  9.41785	 10.63202	 -1.47155	 42.47808	710.22998	 30.00	
 20.400	  0.000	 33.25512	 39.48800	-11.31743	 11.47340	  8.49372	 -1.54877	 42.46691	710.69000	 30.00	
 20.401	  4.847	 33.20728	 39.28736	-11.45237	 13.61373	  6.25690	 -1.66586	 42.48007	710.07001	 30.00	
 20.407	  9.736	 33.13988	 38.86192	-11.41980	 15.86525	  4.14321	 -1.73467	 42.47011	710.82001	 30.00	
 20.410	 14.577	 33.10748	 38.19664	-11.05151	 18.00991	  2.20683	 -1.82059	 42.48532	710.70001	 30.00	
 20.392	 19.504	 33.09028	 37.27211	-10.53298	 20.25875	  0.28123	 -1.91229	 42.48061	710.59998	 30.00	
 20.401	 24.295	 33.05635	 36.19495	 -9.94761	 22.50926	 -1.44854	 -2.03151	 42.46970	710.78998	 30.00	
 20.405	 29.165	 33.04232	 34.94189	 -9.17028	 24.74549	 -3.03327	 -2.13759	 42.46650	710.77002	 30.00	
 20.397	 34.097	 33.04785	 33.42884	 -8.24419	 26.89601	 -4.44833	 -2.28496	 42.47150	710.76001	 30.00	
 20.392	 38.938	 33.06446	 31.77425	 -7.14780	 28.90267	 -5.74745	 -2.42081	 42.45643	710.79999	 30.00	
 20.396	 43.773	 33.04536	 30.08441	 -6.05395	 30.73561	 -6.93509	 -2.53985	 42.47001	710.01001	 30.00	
 20.408	 48.628	 33.01022	 28.17369	 -4.84965	 32.46594	 -8.03465	 -2.62025	 42.46751	710.77002	 30.00	
 20.410	 53.489	 32.98757	 26.11850	 -3.55264	 34.06838	 -9.03439	 -2.70196	 42.46116	710.09003	 30.00	
 20.400	 58.396	 33.00068	 23.94081	 -2.11011	 35.54263	 -9.87361	 -2.75183	 42.46463	710.48999	 30.00	
 20.403	 63.259	 32.98665	 21.58225	 -0.56553	 36.74308	-10.69597	 -2.78782	 42.47578	710.03998	 30.00	
 20.413	 68.100	 32.99242	 19.45456	  1.19890	 37.73642	-11.39698	 -2.83273	 42.48151	710.72998	 30.00	
 20.398	 72.996	 33.02531	 17.19351	  3.03834	 38.45811	-11.81662	 -2.86552	 42.46845	710.78003	 30.00	
 20.394	 77.868	 33.04269	 14.91973	  5.07529	 39.01403	-12.08858	 -2.90392	 42.47092	710.67999	 30.00	
 20.403	 82.668	 33.05704	 12.70781	  7.12052	 39.35387	-12.21253	 -2.98320	 42.46030	710.09003	 30.00	
 20.392	 87.560	 33.14261	 10.64815	  9.26412	 39.47301	-11.96200	 -3.07558	 42.47665	710.78003	 30.00	
 20.392	 92.440	 33.19601	  8.57343	 11.43253	 39.37963	-11.77935	 -3.11810	 42.44928	710.76001	 30.00	
 20.403	 97.332	 33.19798	  6.39917	 13.58879	 39.12893	-11.91416	 -3.11418	 42.45712	710.53003	 30.00	
 20.394	102.132	 33.22421	  4.42587	 15.87189	 38.63929	-11.64532	 -3.04319	 42.47466	710.50000	 30.00	
 20.398	107.004	 33.23153	  2.55415	 18.14903	 37.92196	-11.16035	 -2.98710	 42.46466	710.85999	 30.00	
 20.413	111.900	 33.23762	  0.67617	 20.47791	 37.01758	-10.70834	 -2.90887	 42.48680	710.21002	 30.00	
 20.403	116.741	 33.26862	 -0.94639	 22.77960	 35.85684	 -9.95120	 -2.82613	 42.46750	710.12000	 30.00	
 20.400	121.604	 33.32004	 -2.35161	 25.00566	 34.48387	 -8.90451	 -2.80237	 42.45444	710.77002	 29.90	
 20.410	126.511	 33.36306	 -3.71222	 27.13349	 32.95179	 -7.86435	 -2.72714	 42.47649	710.03998	 29.90	
 20.408	131.372	 33.36983	 -4.93586	 29.07665	 31.20613	 -6.74132	 -2.66132	 42.47330	710.12000	 30.00	
 20.396	136.227	 33.43021	 -5.97062	 30.90094	 29.39584	 -5.61116	 -2.57441	 42.47793	710.77002	 29.90	
 20.392	141.062	 33.44929	 -6.98510	 32.58283	 27.50177	 -4.41606	 -2.43893	 42.48206	710.21002	 30.00	
 20.397	145.903	 33.43625	 -7.96808	 34.09360	 25.42065	 -3.00620	 -2.30910	 42.46446	710.83002	 30.00	
 20.405	150.835	 33.46359	 -8.83208	 35.50282	 23.17813	 -1.46410	 -2.18300	 42.48112	710.25000	 30.00	
 20.401	155.705	 33.46849	 -9.56672	 36.65725	 20.79763	  0.16656	 -2.05833	 42.47022	710.81000	 30.00	
 20.392	160.496	 33.50407	-10.13507	 37.59256	 18.66846	  1.94303	 -1.92533	 42.48435	710.75000	 30.00	
 20.410	165.423	 33.53123	-10.40404	 38.28551	 16.36746	  3.89122	 -1.87321	 42.45555	710.69000	 30.00	
 20.407	170.264	 33.55744	-10.53700	 38.78786	 14.20129	  5.98128	 -1.72565	 42.47434	710.33002	 30.00	
 20.401	175.153	 33.60782	-10.59002	 39.05176	 12.03221	  8.14533	 -1.62023	 42.46150	710.32001	 30.00	
  0.141	 45.000	 42.43117	 18.53130	 17.68386	 18.76094	 16.95853	  1.04664	 42.46641	710.71997	 30.00	
  4.001	128.691	 42.22635	 14.69103	 21.18268	 22.62667	 12.79620	  0.77467	 42.46689	710.01001	 30.00	
  4.002	 76.995	 42.23677	 19.05900	 16.36897	 23.90758	 11.64289	  0.94401	 42.50064	710.25000	 30.00	
  4.002	 25.892	 42.26850	 23.14038	 12.82284	 20.96953	 14.35086	  1.03659	 42.48422	710.46997	 29.90	
  4.002	-25.892	 42.32243	 23.38594	 12.74387	 16.13202	 18.96433	  0.97024	 42.47713	710.77002	 30.00	
  4.002	-76.995	 42.33697	 19.57798	 16.14470	 13.16764	 22.33250	  0.80741	 42.46869	710.72998	 30.00	
  4.001	-128.691	 42.33565	 15.06703	 21.01657	 14.01781	 21.35925	  0.71422	 42.48643	710.79999	 30.00	
  4.000	180.000	 42.28763	 12.89975	 23.29268	 18.03629	 17.00358	  0.68867	 42.48003	710.76001	 30.00	
  8.000	180.000	 41.43015	  7.12793	 28.07737	 16.80281	 16.36626	 -0.14743	 42.47820	710.87000	 30.00	
  7.991	-152.370	 41.52312	  8.39139	 26.62850	 12.15387	 21.44815	  0.04256	 42.47409	710.65002	 30.00	
  7.997	-124.550	 41.56050	 11.73121	 22.80832	  8.71188	 25.59091	 -0.11721	 42.45687	710.77002	 30.00	
  8.006	-96.837	 41.56597	 16.51310	 17.51140	  7.30826	 27.41054	  0.08960	 42.45504	710.77002	 30.00	
  7.988	-69.228	 41.53861	 21.58414	 12.69101	  7.94710	 26.55101	  0.17960	 42.46842	710.78998	 30.00	
  7.997	-41.563	 41.50074	 26.05086	  8.78408	 10.70245	 23.20652	  0.12068	 42.49140	710.75000	 30.00	
  8.008	-13.821	 41.41865	 28.43015	  6.71149	 15.18047	 17.99697	  0.46855	 42.48548	710.71997	 30.00	
  8.008	 13.821	 41.31791	 28.13820	  6.77651	 20.33693	 13.03338	  0.43094	 42.47518	710.85999	 29.90	
  7.997	 41.563	 41.27695	 25.33723	  9.00986	 25.14825	  8.75900	  0.35695	 42.49257	710.90997	 30.00	
  7.988	 69.228	 41.24130	 20.57792	 13.05063	 28.13859	  6.22331	  0.19670	 42.49389	710.71002	 29.90	
  8.006	 96.837	 41.21687	 15.53465	 17.93015	 28.60656	  5.81783	 -0.01124	 42.46556	710.71002	 29.90	
  7.997	124.550	 41.28292	 11.01369	 23.19394	 26.49349	  7.64149	  0.14098	 42.49386	710.81000	 29.90	
  7.991	152.370	 41.32854	  7.97012	 26.82106	 22.17075	 11.41345	 -0.09746	 42.46114	710.79999	 29.90	
 12.009	161.059	 39.63809	  1.45718	 31.49712	 20.50940	  9.86346	 -1.05748	 42.46130	710.78998	 29.90	
 12.013	142.081	 39.57869	  3.44450	 28.69124	 25.68601	  5.34325	 -1.21608	 42.48426	710.71997	 29.90	
 12.006	123.113	 39.50063	  6.78491	 24.49090	 29.65681	  1.98370	 -1.08553	 42.47631	710.46002	 29.90	
 12.007	104.200	 39.45377	 11.21526	 19.24749	 32.22578	  0.00021	 -1.08729	 42.47355	710.70001	 29.90	
 11.989	 85.301	 39.43028	 16.38540	 14.00024	 32.93524	 -0.41626	 -1.00803	 42.48408	710.77002	 29.90	
 12.013	 66.294	 39.39298	 21.55634	  9.04564	 31.65037	  0.50489	 -0.83623	 42.49016	710.91998	 29.90	
 12.012	 47.388	 39.40914	 26.58213	  4.93583	 28.64541	  2.70078	 -0.78977	 42.49625	710.76001	 29.90	
 11.990	 28.440	 39.45174	 30.24674	  2.10897	 24.23746	  6.47624	 -0.40779	 42.47501	710.72998	 29.90	
 11.991	  9.464	 39.55006	 32.45448	  0.68531	 18.85482	 11.26065	 -0.44313	 42.48244	710.71997	 29.90	
 11.991	 -9.464	 39.64664	 32.74522	  0.61238	 13.73716	 16.55208	 -0.53630	 42.48427	710.72998	 29.90	
 11.990	-28.440	 39.72193	 31.02974	  1.89781	  8.94182	 21.80768	 -0.63248	 42.48199	710.87000	 29.90	
 12.012	-47.388	 39.77263	 27.70319	  4.54563	  5.02166	 26.64652	 -0.77187	 42.47292	710.69000	 29.90	
 12.013	-66.294	 39.83945	 22.99150	  8.51885	  2.45159	 30.01116	 -0.79816	 42.46972	710.71997	 29.90	
 11.989	-85.301	 39.91382	 17.68072	 13.42620	  1.35012	 31.70634	 -0.82174	 42.48033	710.65002	 29.90	
 12.007	-104.200	 39.93488	 12.52134	 18.63423	  1.59918	 31.42146	 -0.77953	 42.47835	710.85999	 29.90	
 12.006	-123.113	 39.91795	  7.86503	 23.92841	  3.09318	 29.17097	 -0.86289	 42.46892	710.78003	 29.90	
 12.013	-142.081	 39.91372	  4.23892	 28.28285	  6.07435	 25.37246	 -0.88844	 42.47567	710.77002	 29.90	
 12.009	-161.059	 39.85217	  1.96688	 31.25708	 10.22357	 20.26598	 -0.99463	 42.47484	710.75000	 30.00	
 16.000	180.000	 37.26269	 -4.59360	 36.02199	 12.96036	 13.14939	 -1.58507	 42.47227	710.78003	 30.00	
 15.990	-165.604	 37.40648	 -3.90788	 35.09344	  8.03034	 18.43143	 -1.41920	 42.50391	710.73999	 30.00	
 16.002	-151.165	 37.43481	 -2.41745	 32.73213	  3.54827	 23.69612	 -1.16826	 42.46386	710.67999	 30.00	
 16.002	-136.836	 37.47710	  0.09700	 29.00302	  0.00289	 28.36901	 -1.01543	 42.46202	710.71997	 30.00	
 15.995	-122.439	 37.47093	  3.58608	 24.44885	 -2.46166	 32.10756	 -0.88440	 42.47553	710.75000	 30.00	
 15.993	-107.966	 37.41747	  8.09448	 19.02104	 -3.90663	 34.60415	 -0.82098	 42.46377	710.82001	 30.00	
 16.005	-93.629	 37.41443	 13.16772	 13.86196	 -4.54402	 35.68650	 -0.85503	 42.49221	710.77002	 29.90	
 15.992	-79.234	 37.35465	 18.41828	  8.66733	 -4.19357	 35.00116	 -0.92148	 42.47629	710.76001	 29.90	
 16.009	-64.774	 37.28128	 23.72020	  4.00161	 -3.04045	 32.86509	 -0.97436	 42.46333	710.70001	 29.90	
 15.997	-50.364	 37.23782	 28.51636	 -0.01214	 -0.83347	 29.29439	 -1.07205	 42.48916	710.65002	 29.90	
 15.997	-36.045	 37.16847	 32.40253	 -2.74423	  2.49995	 24.89768	 -1.14202	 42.46895	710.84003	 29.90	
 16.000	-21.597	 37.09835	 35.12968	 -4.34105	  6.82262	 19.47904	 -1.14597	 42.47404	710.65997	 29.90	
 16.003	 -7.169	 37.02123	 36.44562	 -5.25202	 11.74114	 14.28877	 -1.18715	 42.48714	710.71002	 29.90	
 16.003	  7.169	 36.95881	 36.15221	 -5.14781	 16.94838	  8.97664	 -1.25485	 42.48597	710.73999	 29.90	
 16.000	 21.597	 36.87513	 34.31509	 -4.18489	 22.26331	  3.96883	 -1.23107	 42.48106	710.83002	 29.90	
 15.997	 36.045	 36.82606	 31.10912	 -2.27709	 27.31837	 -0.00920	 -1.45636	 42.49470	710.83002	 29.90	
 15.997	 50.364	 36.77328	 27.00874	  0.66481	 31.41381	 -2.90574	 -1.79578	 42.47045	710.75000	 29.90	
 16.009	 64.774	 36.77958	 21.85974	  4.65521	 34.45504	 -4.74403	 -1.89159	 42.47482	710.47998	 29.90	
 15.992	 79.234	 36.79664	 16.74740	  9.36346	 36.16821	 -5.79895	 -2.02320	 42.46624	710.76001	 29.90	
 16.005	 93.629	 36.87616	 11.51744	 14.55744	 36.35197	 -5.81691	 -2.14456	 42.46249	710.79999	 29.90	
 15.993	107.966	 36.93071	  6.53666	 19.86167	 35.00636	 -4.82830	 -2.08677	 42.45685	710.66998	 29.90	
 15.995	122.439	 36.94539	  2.24611	 25.16009	 32.30677	 -3.34585	 -2.07388	 42.47070	710.70001	 29.90	
 16.002	136.836	 37.01818	 -0.90451	 29.64414	 28.33829	 -0.63147	 -2.10769	 42.47548	710.73999	 29.90	
 16.002	151.165	 37.07225	 -3.03863	 33.17232	 23.57440	  3.09412	 -1.92134	 42.46850	710.76001	 30.00	
 15.990	165.604	 37.18229	 -4.18208	 35.28201	 18.20060	  7.88189	 -1.67743	 42.45308	710.72998	 29.90	
 20.003	168.362	 33.93853	 -9.82014	 38.36488	 15.33630	  5.47683	 -1.77762	 42.46907	710.78998	 30.00	
 20.008	156.764	 33.83897	 -9.13787	 36.65429	 20.43984	  0.93523	 -2.01939	 42.47267	710.81000	 30.00	
 20.000	145.147	 33.81199	 -7.31488	 33.69519	 25.79852	 -2.80726	 -2.33217	 42.47298	710.19000	 30.00	
 19.995	133.545	 33.76227	 -4.92595	 29.83552	 30.31702	 -5.71980	 -2.59615	 42.45965	710.12000	 30.00	
 20.009	121.926	 33.68199	 -2.03632	 25.17831	 34.26611	 -8.32128	 -2.74458	 42.46055	710.16998	 30.00	
 20.005	110.327	 33.60790	  1.68706	 19.85752	 37.12339	-10.25381	 -2.88383	 42.46550	710.13000	 30.00	
 19.989	 98.733	 33.58554	  6.17145	 14.50347	 38.75297	-11.30744	 -3.00910	 42.44837	710.20001	 30.00	
 19.999	 87.075	 33.48320	 11.16026	  9.34495	 39.21536	-11.44680	 -2.99673	 42.45160	710.02002	 30.00	
 19.992	 75.457	 33.41528	 16.28508	  4.42545	 38.54726	-11.39200	 -2.84730	 42.47873	710.16998	 30.00	
 20.009	 63.844	 33.35291	 21.42508	  0.07455	 36.67938	-10.23520	 -2.74394	 42.46756	710.83002	 30.00	
 19.989	 52.269	 33.39819	 26.66702	 -3.44621	 33.53468	 -8.24715	 -2.62732	 42.45703	710.81000	 30.00	
 19.999	 40.602	 33.43394	 31.12264	 -6.30606	 29.52377	 -5.71181	 -2.40673	 42.48665	710.76001	 30.00	
 20.004	 29.051	 33.42550	 34.81976	 -8.63991	 24.75048	 -2.54177	 -2.08720	 42.46888	710.88000	 30.00	
 20.005	 17.433	 33.48623	 37.47949	-10.14409	 19.45206	  1.46930	 -1.83660	 42.47393	710.75000	 30.00	
 20.006	  5.780	 33.55990	 38.98797	-10.90903	 14.27424	  6.16773	 -1.63318	 42.46870	710.84003	 30.00	
 20.006	 -5.780	 33.66013	 39.22756	-10.65484	  9.32909	 11.34330	 -1.43430	 42.47231	710.83002	 30.00	
 20.005	-17.433	 33.70667	 38.27388	-10.07580	  4.38631	 16.79266	 -1.24963	 42.46955	710.09998	 30.00	
 20.004	-29.051	 33.80748	 36.11726	 -8.72820	  0.03586	 22.04870	 -1.09254	 42.47686	710.03998	 30.00	
 19.999	-40.602	 33.87047	 32.84560	 -6.78968	 -3.30785	 27.10075	 -0.94911	 42.46531	710.08002	 30.00	
 19.989	-52.269	 33.96634	 28.64781	 -4.09721	 -5.86471	 31.48563	 -0.84010	 42.48340	710.83002	 30.00	
 20.009	-63.844	 33.95041	 23.67765	 -0.62491	 -8.20218	 34.93526	 -0.72783	 42.45948	710.77002	 29.90	
 19.992	-75.457	 33.99101	 18.48228	  3.61654	 -9.54311	 37.35543	 -0.71098	 42.46818	710.10999	 30.00	
 19.999	-87.075	 34.05454	 13.27979	  8.56437	 -9.90044	 38.46941	 -0.65664	 42.47860	710.06000	 30.00	
 19.989	-98.733	 34.10384	  8.19253	 13.66655	-10.01233	 38.34770	 -0.61452	 42.45854	710.78003	 30.00	
 20.005	-110.327	 34.13517	  3.38687	 18.89234	 -9.29478	 36.99323	 -0.64791	 42.47060	710.20001	 29.90	
 20.009	-121.926	 34.20139	 -0.59262	 24.18974	 -7.88555	 34.45993	 -0.64553	 42.47126	710.22998	 29.90	
 19.995	-133.545	 34.25782	 -3.71530	 29.00189	 -5.48740	 30.81216	 -0.76322	 42.45071	710.81000	 29.90	
 20.000	-145.147	 34.26465	 -6.47708	 33.03276	 -2.66419	 26.30745	 -0.87167	 42.44921	710.48999	 29.90	
 20.008	-156.764	 34.19106	 -8.53819	 36.20165	  0.84371	 21.11454	 -1.06035	 42.45051	710.04999	 29.90	
 20.003	-168.362	 34.10916	 -9.76986	 38.14325	  5.32754	 15.89192	 -1.26913	 42.46954	710.04999	 29.90	
 20.000	180.000	 33.99484	-10.14452	 38.85301	 10.25621	 10.54387	 -1.47224	 42.44891	709.98999	 29.90	
