FileType=PCF
NHL=14
Date=03/18/19	11:55:40
Facility=APL
Serial=16071-8
Customer=NASA
NP=6
Mach=0.230000
Calibration=1:1
CalPts=490
TstPts=95
PortNumbering=AP Standard
Units=Torr C m/s kg/m^3 deg mm 
Theta[deg]	Phi[deg]	P1[Torr]	P2[Torr]	P3[Torr]	P4[Torr]	P5[Torr]	P6[Torr]	Pt[Torr]	Ps[Abs,Torr]	Ts[C]	
  0.000	  0.000	 25.57465	 11.02531	 10.61824	 11.00463	 10.23027	  0.63429	 25.61258	710.01001	 29.60	
  1.691	128.401	 25.55798	 10.11871	 11.46060	 12.03316	  9.15590	  0.60392	 25.61172	709.97998	 29.50	
  1.692	 77.194	 25.55713	 11.21176	 10.31955	 12.35159	  8.86309	  0.64799	 25.60530	709.90002	 29.50	
  1.699	 26.182	 25.57277	 12.16831	  9.41004	 11.62731	  9.55480	  0.67306	 25.62367	709.90997	 29.50	
  1.699	-26.182	 25.58090	 12.22100	  9.38797	 10.44122	 10.75307	  0.64789	 25.61116	710.70001	 29.50	
  1.692	-77.194	 25.57114	 11.33023	 10.26590	  9.71371	 11.51407	  0.61672	 25.61969	710.58002	 29.50	
  1.691	-128.401	 25.56546	 10.20796	 11.41664	  9.93077	 11.28032	  0.58381	 25.60447	710.75000	 29.40	
  1.700	180.000	 25.56113	  9.65407	 11.99361	 10.94267	 10.24001	  0.57792	 25.60827	710.16998	 29.40	
  3.400	180.000	 25.50994	  8.26797	 13.36426	 10.78411	 10.20369	  0.47503	 25.59733	710.00000	 29.40	
  3.388	-152.325	 25.53502	  8.64315	 12.98831	  9.58667	 11.45036	  0.47317	 25.61295	709.98999	 29.40	
  3.397	-124.529	 25.53624	  9.50608	 12.01846	  8.67832	 12.45677	  0.48423	 25.60819	710.70001	 29.40	
  3.399	-96.763	 25.53303	 10.69719	 10.74144	  8.28750	 12.92649	  0.51405	 25.59955	709.91998	 29.40	
  3.394	-69.283	 25.52718	 11.92264	  9.48216	  8.48154	 12.72062	  0.55171	 25.59112	709.96997	 29.30	
  3.400	-41.398	 25.54161	 13.03853	  8.47745	  9.23852	 11.88097	  0.60011	 25.60586	710.15002	 29.30	
  3.401	-14.021	 25.50886	 13.62763	  7.91103	 10.32978	 10.65331	  0.63364	 25.58918	710.72998	 29.30	
  3.401	 14.021	 25.50098	 13.57243	  7.94921	 11.61505	  9.35114	  0.65117	 25.58504	710.07001	 29.30	
  3.400	 41.398	 25.48921	 12.87568	  8.55044	 12.78551	  8.24914	  0.65310	 25.59596	709.96002	 29.30	
  3.394	 69.283	 25.47803	 11.67700	  9.60397	 13.56966	  7.55247	  0.61946	 25.60045	710.08002	 29.20	
  3.399	 96.763	 25.46489	 10.42399	 10.85112	 13.69249	  7.44121	  0.57539	 25.58483	710.10999	 29.20	
  3.397	124.529	 25.46881	  9.28320	 12.10097	 13.15113	  7.91534	  0.53681	 25.58305	710.02002	 29.20	
  3.388	152.325	 25.48827	  8.50914	 13.03761	 12.06213	  8.90940	  0.50285	 25.59583	710.06000	 29.20	
  5.099	161.165	 25.34087	  6.98153	 14.45965	 11.88481	  8.73606	  0.34334	 25.57401	709.96997	 29.20	
  5.109	142.013	 25.33559	  7.50584	 13.75556	 13.19980	  7.54606	  0.31632	 25.58761	709.94000	 29.20	
  5.095	123.033	 25.31414	  8.40964	 12.65838	 14.22200	  6.66498	  0.40937	 25.57567	709.97998	 29.10	
  5.105	104.191	 25.31184	  9.56395	 11.35655	 14.84760	  6.14039	  0.44754	 25.57584	710.32001	 29.10	
  5.093	 85.207	 25.30885	 10.83705	 10.03393	 14.99389	  5.99460	  0.43698	 25.57652	710.02002	 29.10	
  5.104	 66.290	 25.30746	 12.14058	  8.80164	 14.67945	  6.27620	  0.53786	 25.56678	710.04999	 29.10	
  5.094	 47.331	 25.32142	 13.38566	  7.74087	 13.92724	  6.92555	  0.51674	 25.58426	709.95001	 29.10	
  5.089	 28.397	 25.33463	 14.35764	  6.95515	 12.79450	  7.90769	  0.60465	 25.58312	709.89001	 29.10	
  5.096	  9.576	 25.35804	 14.88440	  6.52920	 11.49369	  9.12446	  0.54086	 25.58717	709.91998	 29.00	
  5.096	 -9.576	 25.36253	 14.95457	  6.49190	 10.17501	 10.45940	  0.50146	 25.58097	709.92999	 29.00	
  5.089	-28.397	 25.38620	 14.52526	  6.88130	  8.98375	 11.76117	  0.50895	 25.57988	709.96002	 29.00	
  5.094	-47.331	 25.39364	 13.66901	  7.60888	  7.95623	 12.96820	  0.48070	 25.56624	710.03003	 29.00	
  5.104	-66.290	 25.39271	 12.49123	  8.62660	  7.22969	 13.84732	  0.43230	 25.56311	709.91998	 29.00	
  5.093	-85.207	 25.41103	 11.21752	  9.85900	  6.90642	 14.23283	  0.35690	 25.56951	709.95001	 29.00	
  5.105	-104.191	 25.41142	  9.91553	 11.18758	  6.95476	 14.17220	  0.36040	 25.57479	709.84998	 28.90	
  5.095	-123.033	 25.40712	  8.75970	 12.48553	  7.44374	 13.57229	  0.31088	 25.56592	709.96002	 28.90	
  5.109	-142.013	 25.39264	  7.75569	 13.65338	  8.20521	 12.60494	  0.33623	 25.58020	710.01001	 28.90	
  5.099	-161.165	 25.37668	  7.12094	 14.39184	  9.31134	 11.36792	  0.33216	 25.56529	709.96002	 28.90	
  5.100	180.000	 25.36061	  6.86530	 14.66828	 10.56577	 10.06255	  0.33323	 25.57020	709.97998	 28.90	
  6.800	180.000	 25.15619	  5.41812	 15.91291	 10.27900	  9.87726	  0.08625	 25.57876	709.95001	 28.80	
  6.796	-166.229	 25.16195	  5.61422	 15.68916	  9.03922	 11.14238	  0.09708	 25.56242	709.88000	 28.80	
  6.808	-152.311	 25.18486	  6.05704	 15.17549	  7.89065	 12.44633	  0.15865	 25.56029	709.90997	 28.80	
  6.795	-138.383	 25.20856	  6.76438	 14.29408	  6.91228	 13.59915	  0.10583	 25.57541	709.90002	 28.80	
  6.792	-124.591	 25.21804	  7.72431	 13.17460	  6.19431	 14.55500	  0.09406	 25.58577	709.96997	 28.80	
  6.787	-110.754	 25.21397	  8.83484	 11.91256	  5.72414	 15.19797	  0.11627	 25.56819	709.91998	 28.80	
  6.800	-96.985	 25.20258	 10.05496	 10.57288	  5.45769	 15.51680	  0.16912	 25.54818	710.01001	 28.80	
  6.800	-83.015	 25.21402	 11.35291	  9.26625	  5.50027	 15.47392	  0.13095	 25.56091	709.89001	 28.80	
  6.787	-69.246	 25.19899	 12.62125	  8.06644	  5.81862	 15.07981	  0.23753	 25.56427	709.92999	 28.80	
  6.792	-55.409	 25.18157	 13.81220	  7.01012	  6.36751	 14.37367	  0.20282	 25.55412	709.85999	 28.70	
  6.795	-41.617	 25.15881	 14.85136	  6.14982	  7.17699	 13.32958	  0.24418	 25.54333	709.90997	 28.70	
  6.808	-27.689	 25.15698	 15.68994	  5.49787	  8.20336	 12.10428	  0.37106	 25.56430	709.95001	 28.70	
  6.796	-13.771	 25.13958	 16.14931	  5.13002	  9.38059	 10.78558	  0.34728	 25.57366	709.90002	 28.70	
  6.800	  0.000	 25.11189	 16.25463	  5.00452	 10.61862	  9.50547	  0.38781	 25.55620	709.95001	 28.70	
  6.796	 13.771	 25.09505	 15.99701	  5.17303	 11.91587	  8.20630	  0.38803	 25.55161	709.95001	 28.70	
  6.808	 27.689	 25.06477	 15.43004	  5.56348	 13.22519	  7.00796	  0.46160	 25.56451	709.95001	 28.70	
  6.795	 41.617	 25.06669	 14.53617	  6.25933	 14.35584	  6.05516	  0.35175	 25.56673	709.97998	 28.60	
  6.792	 55.409	 25.04591	 13.41065	  7.17045	 15.27775	  5.28865	  0.32098	 25.55662	709.96997	 28.60	
  6.787	 69.246	 25.04478	 12.12357	  8.26867	 15.93447	  4.77550	  0.32038	 25.55347	709.98999	 28.60	
  6.800	 83.015	 25.03606	 10.84510	  9.45107	 16.25222	  4.50677	  0.28820	 25.55593	709.85999	 28.60	
  6.800	 96.985	 25.04888	  9.55922	 10.76322	 16.20110	  4.56956	  0.18614	 25.55824	709.83002	 28.60	
  6.787	110.754	 25.06103	  8.38815	 12.09718	 15.79583	  4.88713	  0.17613	 25.55933	710.00000	 28.60	
  6.792	124.591	 25.05885	  7.30562	 13.34869	 15.08523	  5.45259	  0.21480	 25.55711	709.94000	 28.60	
  6.795	138.383	 25.07893	  6.44463	 14.40067	 14.09490	  6.30652	  0.11472	 25.55692	709.97998	 28.50	
  6.808	152.311	 25.09063	  5.80170	 15.26185	 12.90121	  7.33327	  0.10034	 25.54983	709.96002	 28.50	
  6.796	166.229	 25.12065	  5.48285	 15.77101	 11.58253	  8.56275	  0.14461	 25.56183	709.96002	 28.50	
  8.491	168.704	 24.80576	  3.90249	 16.98469	 11.25401	  8.27302	 -0.13999	 25.55312	709.92999	 28.50	
  8.502	157.493	 24.77695	  4.13976	 16.58035	 12.61399	  6.98746	 -0.13398	 25.55038	709.97998	 28.50	
  8.494	146.194	 24.75218	  4.63344	 15.86801	 13.88694	  5.83835	 -0.13325	 25.53766	709.91998	 28.50	
  8.495	135.039	 24.75048	  5.34419	 14.93346	 15.05645	  4.84476	 -0.13582	 25.55691	710.02002	 28.50	
  8.487	123.723	 24.72314	  6.27620	 13.79183	 16.03812	  4.03562	 -0.09842	 25.55355	710.04999	 28.50	
  8.492	112.575	 24.72446	  7.33977	 12.52350	 16.79913	  3.45344	 -0.06929	 25.56496	710.01001	 28.50	
  8.510	101.220	 24.69920	  8.56225	 11.13302	 17.29502	  3.09023	 -0.06981	 25.55456	710.03998	 28.40	
  8.500	 90.000	 24.70120	  9.83174	  9.79344	 17.48031	  2.94615	 -0.04517	 25.55991	710.02002	 28.40	
  8.510	 78.780	 24.68997	 11.14778	  8.50958	 17.38781	  3.02216	  0.02138	 25.55264	709.94000	 28.40	
  8.492	 67.425	 24.68440	 12.48518	  7.28270	 16.96787	  3.35377	  0.07650	 25.54858	709.90997	 28.40	
  8.487	 56.277	 24.69557	 13.77314	  6.20608	 16.29597	  3.84766	  0.08914	 25.54809	709.91998	 28.40	
  8.495	 44.961	 24.69605	 14.95432	  5.24106	 15.37471	  4.56078	  0.12171	 25.54230	709.91998	 28.40	
  8.494	 33.806	 24.72536	 15.95520	  4.49549	 14.26848	  5.46071	  0.17355	 25.55666	709.91998	 28.40	
  8.502	 22.507	 24.73993	 16.73746	  3.91843	 13.02856	  6.52726	  0.21072	 25.56222	709.95001	 28.40	
  8.491	 11.296	 24.75025	 17.22962	  3.59072	 11.66767	  7.77478	  0.19878	 25.55736	710.00000	 28.40	
  8.500	  0.000	 24.75711	 17.45463	  3.43605	 10.32802	  9.12079	  0.17035	 25.53595	710.00000	 28.40	
  8.491	-11.296	 24.78843	 17.36618	  3.55958	  9.05198	 10.45314	  0.13545	 25.54033	709.91998	 28.30	
  8.502	-22.507	 24.81076	 16.99885	  3.84330	  7.83993	 11.79135	  0.09441	 25.54742	709.96997	 28.30	
  8.494	-33.806	 24.82953	 16.30163	  4.36861	  6.70477	 13.12888	  0.05093	 25.53144	709.95001	 28.30	
  8.495	-44.961	 24.84308	 15.39327	  5.08614	  5.74612	 14.30591	  0.00472	 25.54968	709.96997	 28.30	
  8.487	-56.277	 24.85700	 14.28186	  6.00300	  4.97435	 15.32144	 -0.03183	 25.53646	709.96002	 28.30	
  8.492	-67.425	 24.88783	 13.05773	  7.05792	  4.42031	 16.09329	 -0.07219	 25.54654	709.87000	 28.30	
  8.510	-78.780	 24.88918	 11.71350	  8.28429	  4.05181	 16.58947	 -0.09849	 25.55025	709.85999	 28.30	
  8.500	-90.000	 24.89886	 10.42007	  9.56667	  3.91397	 16.76893	 -0.11674	 25.54458	710.03998	 28.30	
  8.510	-101.220	 24.90154	  9.12317	 10.87892	  3.98577	 16.68360	 -0.11936	 25.54414	709.89001	 28.30	
  8.492	-112.575	 24.90869	  7.91100	 12.27920	  4.31926	 16.26664	 -0.09700	 25.54859	709.97998	 28.30	
  8.487	-123.723	 24.89223	  6.77464	 13.54715	  4.78465	 15.58308	 -0.13282	 25.53267	709.89001	 28.30	
  8.495	-135.039	 24.87648	  5.77972	 14.72927	  5.46095	 14.63497	 -0.12242	 25.53640	709.84998	 28.30	
  8.494	-146.194	 24.85532	  5.00773	 15.68946	  6.33031	 13.51988	 -0.12947	 25.53057	709.91998	 28.30	
  8.502	-157.493	 24.85370	  4.42056	 16.44897	  7.42688	 12.23005	 -0.14112	 25.54218	709.94000	 28.20	
  8.491	-168.704	 24.83617	  4.02180	 16.90669	  8.61666	 10.90308	 -0.15743	 25.53773	710.02002	 28.20	
  8.500	180.000	 24.81511	  3.84204	 17.11146	  9.88664	  9.61922	 -0.15849	 25.54557	709.91998	 28.20	
 10.200	180.000	 24.39815	  2.23520	 18.24340	  9.46288	  9.27396	 -0.42423	 25.52186	709.91998	 28.20	
 10.191	-170.497	 24.43219	  2.41578	 18.08852	  8.18500	 10.59751	 -0.41055	 25.51897	709.87000	 28.20	
 10.210	-161.034	 24.45291	  2.77351	 17.67701	  6.93464	 11.94911	 -0.37485	 25.54275	709.82001	 28.20	
 10.194	-151.526	 24.47376	  3.26786	 17.02671	  5.77805	 13.30311	 -0.35476	 25.54332	709.91998	 28.20	
 10.190	-142.105	 24.48344	  3.93246	 16.15682	  4.78522	 14.51463	 -0.35036	 25.52897	709.85999	 28.20	
 10.215	-132.646	 24.49368	  4.77650	 15.10203	  3.94309	 15.63902	 -0.35415	 25.54199	709.90997	 28.20	
 10.203	-123.092	 24.50270	  5.79105	 13.85920	  3.28375	 16.56028	 -0.35674	 25.53273	709.96997	 28.20	
 10.192	-113.678	 24.50305	  6.91978	 12.55441	  2.83203	 17.25090	 -0.34010	 25.52986	709.85999	 28.20	
 10.208	-104.249	 24.50163	  8.12950	 11.18891	  2.48837	 17.73738	 -0.32699	 25.54741	709.90002	 28.10	
 10.210	-94.801	 24.48109	  9.40477	  9.81491	  2.32226	 17.93641	 -0.33064	 25.52078	709.98999	 28.10	
 10.210	-85.199	 24.48461	 10.76165	  8.46741	  2.35050	 17.89399	 -0.32933	 25.54198	710.04999	 28.10	
 10.208	-75.751	 24.47002	 12.08097	  7.20046	  2.58037	 17.58827	 -0.31255	 25.53478	710.00000	 28.10	
 10.192	-66.322	 24.46221	 13.43517	  6.00244	  2.96208	 17.02784	 -0.29819	 25.53519	709.92999	 28.10	
 10.203	-56.908	 24.45024	 14.70596	  4.91635	  3.53065	 16.24632	 -0.27037	 25.54091	709.97998	 28.10	
 10.215	-47.354	 24.43871	 15.87121	  3.95962	  4.26653	 15.23356	 -0.24662	 25.53343	710.01001	 28.10	
 10.190	-37.895	 24.41203	 16.85741	  3.19631	  5.19732	 14.05618	 -0.20313	 25.53098	709.97998	 28.10	
 10.194	-28.474	 24.38885	 17.63847	  2.57694	  6.24914	 12.77055	 -0.14832	 25.53707	709.95001	 28.10	
 10.210	-18.966	 24.38283	 18.22049	  2.15464	  7.43894	 11.39027	 -0.10498	 25.55157	710.00000	 28.10	
 10.191	 -9.503	 24.35432	 18.51382	  1.94338	  8.71555	 10.03568	 -0.07296	 25.53028	710.02002	 28.10	
 10.200	  0.000	 24.33275	 18.57697	  1.87873	 10.00432	  8.67889	 -0.05370	 25.53123	710.01001	 28.10	
 10.191	  9.503	 24.32616	 18.39033	  2.02752	 11.34571	  7.31014	 -0.02885	 25.54214	709.98999	 28.00	
 10.210	 18.966	 24.28739	 17.94801	  2.27714	 12.70824	  6.04945	 -0.00288	 25.54171	710.08002	 28.00	
 10.194	 28.474	 24.26905	 17.26389	  2.75929	 14.02041	  4.91024	 -0.01211	 25.52451	709.91998	 28.00	
 10.190	 37.895	 24.24262	 16.36134	  3.40691	 15.23885	  3.89455	 -0.07704	 25.51777	710.01001	 28.00	
 10.215	 47.354	 24.24495	 15.28711	  4.20198	 16.35145	  3.02926	 -0.16595	 25.52965	710.00000	 28.00	
 10.203	 56.908	 24.23269	 14.05440	  5.18875	 17.25047	  2.36728	 -0.19226	 25.53459	709.94000	 28.00	
 10.192	 66.322	 24.23359	 12.73922	  6.28208	 17.91803	  1.87474	 -0.19233	 25.52340	709.84998	 28.00	
 10.208	 75.751	 24.23990	 11.41031	  7.49009	 18.37591	  1.53947	 -0.23064	 25.52710	709.84998	 28.00	
 10.210	 85.199	 24.24034	 10.06434	  8.77469	 18.58359	  1.37687	 -0.29928	 25.52460	709.90997	 28.00	
 10.210	 94.801	 24.25350	  8.74142	 10.11399	 18.53393	  1.47393	 -0.35485	 25.52926	709.85999	 28.00	
 10.208	104.249	 24.26190	  7.47077	 11.50232	 18.23573	  1.66207	 -0.35277	 25.52648	709.84003	 28.00	
 10.192	113.678	 24.28007	  6.28233	 12.87570	 17.69678	  2.02972	 -0.33794	 25.53793	709.84998	 28.00	
 10.203	123.092	 24.27853	  5.19578	 14.15536	 16.95582	  2.57495	 -0.36253	 25.53479	709.90002	 27.90	
 10.215	132.646	 24.28819	  4.24462	 15.35563	 15.97333	  3.34761	 -0.41216	 25.52398	709.92999	 27.90	
 10.190	142.105	 24.32198	  3.47115	 16.37757	 14.83020	  4.29912	 -0.41580	 25.53208	710.03003	 27.90	
 10.194	151.526	 24.32193	  2.88282	 17.18846	 13.54596	  5.39635	 -0.39958	 25.51356	709.94000	 27.90	
 10.210	161.034	 24.34682	  2.47362	 17.80383	 12.22527	  6.60463	 -0.38292	 25.53199	709.95001	 27.90	
 10.191	170.497	 24.39649	  2.27863	 18.15677	 10.84746	  7.91685	 -0.39486	 25.54057	709.95001	 27.90	
 11.899	171.783	 23.88798	  0.65736	 19.25053	 10.36673	  7.50387	 -0.63202	 25.51450	710.00000	 27.90	
 11.890	163.610	 23.86748	  0.83658	 18.93254	 11.76925	  6.18955	 -0.60647	 25.51888	709.88000	 27.90	
 11.889	155.445	 23.84941	  1.17110	 18.41866	 13.11529	  5.00579	 -0.62941	 25.52995	710.09003	 27.90	
 11.909	147.299	 23.81083	  1.65878	 17.68704	 14.44111	  3.80464	 -0.67689	 25.51741	710.06000	 27.90	
 11.902	139.148	 23.80490	  2.32867	 16.78713	 15.68264	  2.78381	 -0.69467	 25.52826	710.06000	 27.90	
 11.894	130.867	 23.79566	  3.17310	 15.68474	 16.80845	  1.90642	 -0.66806	 25.54513	710.09003	 27.90	
 11.897	122.732	 23.77365	  4.12829	 14.46952	 17.74103	  1.19386	 -0.63024	 25.52017	710.04999	 27.90	
 11.903	114.597	 23.76265	  5.18891	 13.17208	 18.51941	  0.64036	 -0.59844	 25.52702	710.01001	 27.90	
 11.893	106.346	 23.75345	  6.36347	 11.79894	 19.10168	  0.23028	 -0.61228	 25.52398	710.01001	 27.90	
 11.892	 98.155	 23.75251	  7.61709	 10.37500	 19.49719	 -0.06059	 -0.63144	 25.53273	709.94000	 27.90	
 11.900	 90.000	 23.74142	  8.91625	  9.03517	 19.66185	 -0.20898	 -0.60219	 25.52377	709.87000	 27.80	
 11.892	 81.845	 23.73096	 10.26590	  7.74990	 19.59697	 -0.15380	 -0.53782	 25.53630	709.96997	 27.80	
 11.893	 73.654	 23.71595	 11.64456	  6.44260	 19.29921	  0.05617	 -0.48271	 25.51872	709.98999	 27.80	
 11.903	 65.403	 23.72007	 12.97820	  5.22017	 18.81207	  0.39719	 -0.46556	 25.53995	710.03003	 27.80	
 11.897	 57.268	 23.72365	 14.28874	  4.14930	 18.10535	  0.91193	 -0.45843	 25.54484	710.03998	 27.80	
 11.894	 49.133	 23.71976	 15.53710	  3.15062	 17.22915	  1.54824	 -0.43957	 25.53615	710.00000	 27.80	
 11.902	 40.852	 23.73269	 16.69142	  2.29486	 16.18881	  2.34225	 -0.36220	 25.54898	709.90997	 27.80	
 11.909	 32.701	 23.73063	 17.65873	  1.60648	 14.99081	  3.27360	 -0.27217	 25.52972	709.96997	 27.80	
 11.889	 24.555	 23.75442	 18.46360	  1.07928	 13.69060	  4.35326	 -0.21035	 25.53119	710.01001	 27.80	
 11.890	 16.390	 23.76721	 19.05304	  0.69442	 12.35552	  5.48766	 -0.21999	 25.52626	709.96997	 27.80	
 11.899	  8.217	 23.79333	 19.45646	  0.44812	 10.94550	  6.78957	 -0.24104	 25.52016	709.89001	 27.80	
 11.900	  0.000	 23.80788	 19.63924	  0.30244	  9.58999	  8.18604	 -0.27533	 25.51525	709.92999	 27.80	
 11.899	 -8.217	 23.82659	 19.59454	  0.34392	  8.28906	  9.55600	 -0.29443	 25.52617	709.94000	 27.80	
 11.890	-16.390	 23.85398	 19.31684	  0.55674	  6.99796	 10.90090	 -0.31179	 25.52202	709.91998	 27.80	
 11.889	-24.555	 23.87892	 18.84599	  0.89814	  5.78912	 12.31827	 -0.35062	 25.52887	709.96997	 27.70	
 11.909	-32.701	 23.89876	 18.17461	  1.38163	  4.69107	 13.64038	 -0.38235	 25.53341	709.96997	 27.80	
 11.902	-40.852	 23.91311	 17.30128	  2.04260	  3.70165	 14.91492	 -0.43572	 25.52890	710.00000	 27.70	
 11.894	-49.133	 23.92007	 16.20714	  2.87102	  2.81472	 16.08038	 -0.46073	 25.51587	709.90997	 27.70	
 11.897	-57.268	 23.94588	 15.02646	  3.83099	  2.08687	 17.09859	 -0.46663	 25.52843	709.84003	 27.70	
 11.903	-65.403	 23.94958	 13.74837	  4.91027	  1.54289	 17.86833	 -0.46589	 25.51569	709.95001	 27.70	
 11.893	-73.654	 23.97629	 12.38498	  6.11035	  1.15105	 18.47683	 -0.48212	 25.52466	710.07001	 27.70	
 11.892	-81.845	 24.00437	 11.04650	  7.40578	  0.86281	 18.86941	 -0.48589	 25.53150	710.03998	 27.70	
 11.900	-90.000	 23.98796	  9.70467	  8.70518	  0.71501	 19.02174	 -0.48521	 25.51634	710.00000	 27.70	
 11.892	-98.155	 24.02858	  8.38565	 10.07106	  0.77117	 18.97013	 -0.48149	 25.54512	709.92999	 27.70	
 11.893	-106.346	 24.00349	  7.07605	 11.41211	  0.97492	 18.66705	 -0.48044	 25.51194	710.01001	 27.70	
 11.903	-114.597	 24.00783	  5.84454	 12.81032	  1.30865	 18.16483	 -0.48280	 25.52535	709.97998	 27.70	
 11.897	-122.732	 24.01921	  4.75056	 14.12989	  1.82069	 17.45319	 -0.51122	 25.53044	710.03003	 27.70	
 11.894	-130.867	 24.00106	  3.74428	 15.37435	  2.46394	 16.54829	 -0.53764	 25.53035	710.02002	 27.70	
 11.902	-139.148	 23.99878	  2.85192	 16.51235	  3.28034	 15.45558	 -0.51707	 25.52184	709.96002	 27.70	
 11.909	-147.299	 23.98363	  2.12320	 17.46302	  4.18749	 14.24318	 -0.53129	 25.51017	710.07001	 27.70	
 11.889	-155.445	 23.97337	  1.52939	 18.22405	  5.24162	 12.96182	 -0.55278	 25.52550	709.97998	 27.70	
 11.890	-163.610	 23.95992	  1.07447	 18.81021	  6.43430	 11.57527	 -0.59130	 25.52085	710.03998	 27.70	
 11.899	-171.783	 23.93454	  0.76179	 19.18428	  7.70162	 10.22184	 -0.62969	 25.52879	710.03003	 27.70	
 11.900	180.000	 23.91368	  0.60680	 19.32516	  9.00986	  8.86570	 -0.65084	 25.51935	709.98999	 27.70	
 13.600	180.000	 23.34048	 -0.95224	 20.33899	  8.48048	  8.41720	 -0.82189	 25.52563	710.02002	 27.70	
 13.608	-172.853	 23.36668	 -0.81214	 20.21749	  7.17510	  9.77818	 -0.81248	 25.54234	710.06000	 27.70	
 13.611	-165.583	 23.38434	 -0.55212	 19.88795	  5.87738	 11.12959	 -0.77186	 25.53106	710.03003	 27.70	
 13.601	-158.353	 23.39279	 -0.19487	 19.33911	  4.68096	 12.53128	 -0.69548	 25.52241	710.09998	 27.60	
 13.609	-151.210	 23.42326	  0.32256	 18.65296	  3.62002	 13.86275	 -0.66422	 25.53164	710.10999	 27.70	
 13.611	-143.999	 23.43496	  0.98984	 17.77113	  2.60132	 15.16155	 -0.64291	 25.52739	710.06000	 27.60	
 13.601	-136.825	 23.44449	  1.78401	 16.73955	  1.73216	 16.33815	 -0.63566	 25.53088	710.02002	 27.60	
 13.596	-129.640	 23.43911	  2.67360	 15.57800	  0.95640	 17.38587	 -0.61964	 25.52156	710.03998	 27.60	
 13.611	-122.431	 23.45161	  3.67684	 14.31996	  0.32354	 18.28871	 -0.59395	 25.52987	710.09998	 27.60	
 13.604	-115.211	 23.44042	  4.78606	 12.97339	 -0.15016	 19.01323	 -0.57116	 25.52557	710.06000	 27.60	
 13.595	-108.042	 23.43166	  5.96344	 11.58657	 -0.51532	 19.55308	 -0.54965	 25.52266	710.10999	 27.60	
 13.607	-100.793	 23.43009	  7.24815	 10.19190	 -0.76716	 19.92492	 -0.53697	 25.53557	710.15997	 27.60	
 13.601	-93.617	 23.42149	  8.59315	  8.81721	 -0.88417	 20.07352	 -0.56882	 25.52785	710.09998	 27.60	
 13.601	-86.383	 23.40389	  9.94702	  7.47792	 -0.86420	 20.01719	 -0.56902	 25.52335	710.13000	 27.60	
 13.607	-79.207	 23.39664	 11.26590	  6.17928	 -0.67995	 19.77787	 -0.58256	 25.53543	710.06000	 27.60	
 13.595	-71.958	 23.38432	 12.65378	  4.92670	 -0.36108	 19.30332	 -0.58161	 25.51655	710.09003	 27.60	
 13.604	-64.789	 23.36894	 14.00030	  3.78067	  0.05936	 18.66414	 -0.57637	 25.52139	710.15002	 27.60	
 13.611	-57.569	 23.36043	 15.30601	  2.69094	  0.62789	 17.85123	 -0.58502	 25.53205	710.03003	 27.60	
 13.596	-50.360	 23.33035	 16.51012	  1.70300	  1.32286	 16.85829	 -0.60830	 25.52295	710.15002	 27.60	
 13.601	-43.175	 23.32483	 17.61391	  0.85175	  2.14912	 15.73479	 -0.60819	 25.53920	710.13000	 27.60	
 13.611	-36.001	 23.30431	 18.56675	  0.14341	  3.09158	 14.48530	 -0.58262	 25.53653	710.04999	 27.60	
 13.609	-28.790	 23.29022	 19.35652	 -0.39143	  4.15190	 13.15674	 -0.54158	 25.53440	710.07001	 27.60	
 13.601	-21.647	 23.26480	 19.95960	 -0.80747	  5.28790	 11.77959	 -0.52854	 25.53156	710.01001	 27.60	
 13.611	-14.417	 23.24364	 20.38621	 -1.10471	  6.51036	 10.37812	 -0.50208	 25.52942	710.12000	 27.60	
 13.608	 -7.147	 23.22626	 20.62693	 -1.28024	  7.83885	  8.99485	 -0.50480	 25.53846	710.02002	 27.60	
 13.600	  0.000	 23.19782	 20.64286	 -1.32019	  9.14466	  7.62101	 -0.49617	 25.52761	710.03998	 27.60	
 13.608	  7.147	 23.18591	 20.48640	 -1.19480	 10.48976	  6.24072	 -0.47400	 25.52775	710.08002	 27.60	
 13.611	 14.417	 23.16153	 20.12922	 -0.96281	 11.92358	  4.92079	 -0.44939	 25.53783	710.13000	 27.60	
 13.601	 21.647	 23.13959	 19.54986	 -0.57286	 13.27898	  3.75763	 -0.42639	 25.51873	710.03003	 27.50	
 13.609	 28.790	 23.12264	 18.82019	 -0.13272	 14.61817	  2.64903	 -0.45554	 25.52478	710.14001	 27.50	
 13.611	 36.001	 23.10226	 17.91416	  0.45668	 15.88228	  1.63264	 -0.54763	 25.52493	710.09998	 27.50	
 13.601	 43.175	 23.10426	 16.87869	  1.19693	 16.99453	  0.77931	 -0.64322	 25.52198	710.09003	 27.50	
 13.596	 50.360	 23.10664	 15.71273	  2.05722	 18.00967	  0.03809	 -0.71075	 25.53365	710.09998	 27.50	
 13.611	 57.569	 23.09998	 14.43497	  3.04563	 18.90927	 -0.59353	 -0.73414	 25.53329	710.09998	 27.50	
 13.604	 64.789	 23.07872	 13.07745	  4.12897	 19.61597	 -1.05508	 -0.75021	 25.51581	710.07001	 27.50	
 13.595	 71.958	 23.08569	 11.73659	  5.30890	 20.14685	 -1.39447	 -0.76949	 25.51634	710.25000	 27.50	
 13.607	 79.207	 23.10778	 10.39955	  6.57323	 20.50146	 -1.64582	 -0.81485	 25.52390	710.13000	 27.50	
 13.601	 86.383	 23.12139	  9.02902	  7.90509	 20.65414	 -1.73286	 -0.85448	 25.53236	710.13000	 27.50	
 13.601	 93.617	 23.14036	  7.67783	  9.21841	 20.60910	 -1.70635	 -0.90541	 25.52970	710.14001	 27.50	
 13.607	100.793	 23.14130	  6.39440	 10.62414	 20.35356	 -1.53791	 -0.91049	 25.52318	710.16998	 27.50	
 13.595	108.042	 23.14990	  5.17819	 12.03511	 19.91080	 -1.25895	 -0.88632	 25.51236	710.20001	 27.50	
 13.604	115.211	 23.16756	  4.04087	 13.41265	 19.29563	 -0.86625	 -0.87358	 25.52387	710.15002	 27.50	
 13.611	122.431	 23.17174	  2.97356	 14.74259	 18.49849	 -0.31076	 -0.89104	 25.52251	710.15002	 27.50	
 13.596	129.640	 23.17293	  2.01704	 15.98162	 17.52860	  0.44310	 -0.92251	 25.51221	710.08002	 27.50	
 13.601	136.825	 23.19717	  1.14212	 17.09472	 16.45282	  1.29735	 -0.93791	 25.51266	710.03003	 27.50	
 13.611	143.999	 23.23065	  0.46981	 18.07163	 15.29391	  2.22325	 -0.94127	 25.53517	710.15997	 27.50	
 13.609	151.210	 23.24445	 -0.05860	 18.87772	 13.99423	  3.30161	 -0.90100	 25.53159	710.03998	 27.50	
 13.601	158.353	 23.26572	 -0.46459	 19.52369	 12.62840	  4.47847	 -0.83973	 25.52709	710.03998	 27.50	
 13.611	165.583	 23.28157	 -0.77346	 20.01110	 11.24128	  5.69367	 -0.81814	 25.51637	710.09003	 27.50	
 13.608	172.853	 23.29813	 -0.95643	 20.28245	  9.84140	  7.03121	 -0.83519	 25.52113	710.03998	 27.50	
 15.298	173.587	 22.64558	 -2.36923	 21.19517	  9.26559	  6.51881	 -0.96293	 25.52107	710.07001	 27.50	
 15.291	167.167	 22.63575	 -2.20368	 20.95320	 10.63561	  5.22036	 -0.99392	 25.52441	710.09003	 27.50	
 15.307	160.676	 22.61125	 -1.98628	 20.54773	 12.01636	  3.99315	 -1.01381	 25.52903	710.09998	 27.50	
 15.300	154.261	 22.57874	 -1.63191	 19.94819	 13.40712	  2.78981	 -1.06945	 25.51950	710.04999	 27.50	
 15.288	147.854	 22.57570	 -1.17350	 19.21465	 14.74278	  1.70032	 -1.14243	 25.52460	710.06000	 27.40	
 15.293	141.428	 22.55713	 -0.61281	 18.31030	 15.97865	  0.64377	 -1.16367	 25.52517	710.13000	 27.40	
 15.299	134.985	 22.54265	  0.06025	 17.28451	 17.15995	 -0.24469	 -1.18557	 25.52485	710.03998	 27.40	
 15.305	128.583	 22.50436	  0.82886	 16.12707	 18.21837	 -0.99819	 -1.17065	 25.50803	710.08002	 27.40	
 15.309	122.142	 22.49467	  1.80758	 14.88236	 19.17506	 -1.66890	 -1.14287	 25.52058	710.10999	 27.40	
 15.304	115.711	 22.48478	  2.88207	 13.54114	 19.97961	 -2.19097	 -1.13739	 25.52159	710.03003	 27.40	
 15.297	109.291	 22.48514	  4.00240	 12.17665	 20.61221	 -2.54059	 -1.15221	 25.51905	710.01001	 27.40	
 15.293	102.897	 22.48798	  5.18704	 10.79936	 21.07542	 -2.77509	 -1.16888	 25.52807	710.04999	 27.40	
 15.293	 96.458	 22.48423	  6.44552	  9.39735	 21.39523	 -2.99381	 -1.19004	 25.53873	709.94000	 27.40	
 15.300	 90.000	 22.45763	  7.76636	  8.02313	 21.53822	 -3.10833	 -1.17704	 25.51740	710.12000	 27.40	
 15.293	 83.542	 22.44474	  9.12609	  6.70444	 21.49540	 -3.07145	 -1.11658	 25.52382	710.09003	 27.40	
 15.293	 77.103	 22.41694	 10.50122	  5.38356	 21.27769	 -2.95352	 -1.07579	 25.52260	710.06000	 27.40	
 15.297	 70.709	 22.41401	 11.85961	  4.16792	 20.90430	 -2.73938	 -1.05510	 25.52798	710.13000	 27.40	
 15.304	 64.289	 22.40711	 13.15312	  3.04871	 20.36023	 -2.39973	 -1.02364	 25.53670	710.08002	 27.40	
 15.309	 57.858	 22.38428	 14.49706	  1.92603	 19.63080	 -1.99261	 -1.01014	 25.51587	710.04999	 27.40	
 15.305	 51.417	 22.39722	 15.79168	  0.90547	 18.74971	 -1.42368	 -0.99050	 25.51742	710.06000	 27.40	
 15.299	 45.015	 22.41779	 16.99423	  0.01984	 17.76908	 -0.73726	 -0.91680	 25.53064	710.09998	 27.40	
 15.293	 38.572	 22.43105	 18.07718	 -0.72524	 16.64111	  0.04172	 -0.81584	 25.51953	710.10999	 27.40	
 15.288	 32.146	 22.43484	 19.03863	 -1.34024	 15.45367	  0.90610	 -0.73018	 25.52192	710.03998	 27.40	
 15.300	 25.739	 22.44919	 19.87349	 -1.83856	 14.15798	  2.01058	 -0.66875	 25.53282	710.04999	 27.40	
 15.307	 19.324	 22.44803	 20.54124	 -2.24019	 12.77600	  3.14199	 -0.65139	 25.52505	710.09003	 27.40	
 15.291	 12.833	 22.48961	 21.06605	 -2.51661	 11.39016	  4.35287	 -0.66788	 25.54226	710.02002	 27.40	
 15.298	  6.413	 22.48806	 21.38945	 -2.70283	  9.96170	  5.64778	 -0.68709	 25.52237	710.03998	 27.40	
 15.300	  0.000	 22.51933	 21.54465	 -2.78904	  8.61469	  7.03425	 -0.69020	 25.52268	709.96997	 27.40	
 15.298	 -6.413	 22.53016	 21.51978	 -2.75684	  7.30125	  8.39643	 -0.67000	 25.52107	710.07001	 27.40	
 15.291	-12.833	 22.54514	 21.30633	 -2.63044	  5.98819	  9.80885	 -0.65776	 25.50741	710.08002	 27.40	
 15.307	-19.324	 22.57203	 20.96594	 -2.38207	  4.73385	 11.23389	 -0.67154	 25.53333	710.04999	 27.40	
 15.300	-25.739	 22.60416	 20.42248	 -2.01406	  3.59286	 12.57660	 -0.68185	 25.52869	710.04999	 27.40	
 15.288	-32.146	 22.62643	 19.69391	 -1.54258	  2.49060	 13.94516	 -0.68774	 25.52386	710.08002	 27.40	
 15.293	-38.572	 22.63463	 18.81461	 -0.97169	  1.47304	 15.25340	 -0.69530	 25.52096	709.96997	 27.40	
 15.299	-45.015	 22.65549	 17.82853	 -0.28066	  0.57113	 16.45782	 -0.67353	 25.52583	710.00000	 27.40	
 15.305	-51.417	 22.66757	 16.72060	  0.56136	 -0.19704	 17.54564	 -0.65936	 25.52554	710.10999	 27.40	
 15.309	-57.858	 22.68310	 15.50143	  1.54996	 -0.82582	 18.53723	 -0.63782	 25.52563	710.01001	 27.30	
 15.304	-64.289	 22.70464	 14.21423	  2.62064	 -1.34168	 19.38967	 -0.60468	 25.53220	710.04999	 27.30	
 15.297	-70.709	 22.70421	 12.86363	  3.74186	 -1.73114	 20.04059	 -0.59126	 25.51152	710.02002	 27.30	
 15.293	-77.103	 22.71863	 11.47946	  4.96861	 -2.03655	 20.53840	 -0.59342	 25.52517	710.04999	 27.30	
 15.293	-83.542	 22.74220	 10.10235	  6.25094	 -2.26919	 20.86746	 -0.58435	 25.53484	710.03003	 27.30	
 15.300	-90.000	 22.74007	  8.74198	  7.57559	 -2.37742	 21.01624	 -0.56832	 25.53130	710.08002	 27.30	
 15.293	-96.458	 22.75080	  7.38738	  8.94626	 -2.35127	 20.97835	 -0.53863	 25.51960	710.02002	 27.30	
 15.293	-102.897	 22.75409	  6.06952	 10.35046	 -2.19187	 20.74156	 -0.54560	 25.51112	710.04999	 27.30	
 15.297	-109.291	 22.77094	  4.83255	 11.69941	 -1.90159	 20.34868	 -0.54218	 25.53315	710.09998	 27.30	
 15.304	-115.711	 22.78895	  3.66717	 13.07195	 -1.55101	 19.79372	 -0.57225	 25.53997	709.95001	 27.30	
 15.309	-122.142	 22.77920	  2.55835	 14.42147	 -1.10048	 19.04105	 -0.58224	 25.51640	709.90997	 27.30	
 15.305	-128.583	 22.79087	  1.55046	 15.70499	 -0.52333	 18.15178	 -0.61799	 25.53177	710.10999	 27.30	
 15.299	-134.985	 22.81119	  0.66366	 16.89385	  0.19146	 17.14068	 -0.65239	 25.53630	710.25000	 27.30	
 15.293	-141.428	 22.80134	 -0.08268	 17.96361	  1.03525	 15.99685	 -0.67080	 25.52927	710.09998	 27.30	
 15.288	-147.854	 22.78591	 -0.72935	 18.91073	  1.96874	 14.74617	 -0.69995	 25.52551	710.13000	 27.30	
 15.300	-154.261	 22.77533	 -1.27668	 19.71878	  2.97695	 13.44737	 -0.73593	 25.52861	710.15002	 27.30	
 15.307	-160.676	 22.74849	 -1.71434	 20.35231	  4.05880	 12.08920	 -0.79172	 25.52499	710.07001	 27.30	
 15.291	-167.167	 22.73261	 -2.03751	 20.83887	  5.30088	 10.64866	 -0.87720	 25.53139	710.10999	 27.30	
 15.298	-173.587	 22.71346	 -2.25944	 21.15875	  6.57943	  9.28118	 -0.92664	 25.53783	710.03003	 27.30	
 15.300	180.000	 22.68450	 -2.38325	 21.26804	  7.87817	  7.91529	 -0.95979	 25.52712	710.00000	 27.30	
 17.000	180.000	 21.93605	 -3.69996	 22.10792	  7.23970	  7.35064	 -1.00077	 25.52848	710.03998	 27.30	
 16.990	-174.179	 21.96484	 -3.59432	 21.98897	  5.93465	  8.72329	 -0.96315	 25.52978	709.97998	 27.30	
 17.009	-168.383	 21.98003	 -3.42250	 21.72336	  4.65867	 10.11722	 -0.88721	 25.53264	710.09003	 27.30	
 17.000	-162.596	 22.00813	 -3.10537	 21.27619	  3.45221	 11.50484	 -0.82446	 25.52183	710.01001	 27.30	
 16.990	-156.759	 22.03825	 -2.77687	 20.70215	  2.34993	 12.87099	 -0.75860	 25.53089	709.96002	 27.30	
 16.995	-150.919	 22.03627	 -2.34693	 19.96761	  1.28869	 14.25225	 -0.70950	 25.53367	710.04999	 27.30	
 16.988	-145.161	 22.05274	 -1.80886	 19.09008	  0.32694	 15.53294	 -0.66175	 25.51868	709.95001	 27.30	
 17.014	-139.343	 22.06078	 -1.17063	 18.11302	 -0.51684	 16.74584	 -0.62933	 25.53253	709.98999	 27.30	
 17.007	-133.546	 22.07092	 -0.40340	 16.99094	 -1.23654	 17.82212	 -0.59833	 25.52424	710.03998	 27.30	
 17.001	-127.699	 22.05570	  0.45840	 15.75762	 -1.88834	 18.85505	 -0.56580	 25.52991	710.09003	 27.30	
 17.006	-121.937	 22.04308	  1.40274	 14.48159	 -2.42353	 19.72727	 -0.54780	 25.52721	710.09003	 27.30	
 17.002	-116.134	 22.03536	  2.47157	 13.14111	 -2.86700	 20.46623	 -0.52082	 25.53203	710.08002	 27.30	
 17.001	-110.310	 22.03949	  3.66671	 11.74895	 -3.20710	 21.05567	 -0.49798	 25.53208	710.07001	 27.30	
 16.988	-104.517	 22.02738	  4.88757	 10.36091	 -3.48772	 21.47289	 -0.50109	 25.51893	710.03998	 27.30	
 17.008	-98.662	 22.00875	  6.17621	  8.97200	 -3.70215	 21.76059	 -0.50092	 25.51855	710.03998	 27.30	
 16.996	-92.909	 22.00309	  7.49958	  7.61078	 -3.76405	 21.86572	 -0.52760	 25.51479	710.01001	 27.20	
 16.996	-87.091	 21.97636	  8.85379	  6.25336	 -3.74658	 21.81699	 -0.52258	 25.50827	710.06000	 27.20	
 17.012	-81.253	 21.96936	 10.20757	  4.95800	 -3.60834	 21.61632	 -0.52556	 25.52593	710.09998	 27.30	
 16.988	-75.483	 21.97756	 11.60612	  3.72661	 -3.33217	 21.22776	 -0.55538	 25.53202	710.01001	 27.20	
 17.001	-69.690	 21.96320	 12.97999	  2.54292	 -3.04922	 20.71608	 -0.57170	 25.53526	709.96002	 27.20	
 17.002	-63.866	 21.93228	 14.33312	  1.41198	 -2.68046	 20.01086	 -0.57649	 25.53200	710.00000	 27.20	
 17.006	-58.063	 21.91735	 15.64131	  0.29257	 -2.17387	 19.15803	 -0.61487	 25.52247	710.14001	 27.20	
 17.001	-52.301	 21.91691	 16.88041	 -0.59105	 -1.56867	 18.20838	 -0.65627	 25.53127	710.03003	 27.20	
 17.007	-46.454	 21.91180	 18.02783	 -1.39333	 -0.86537	 17.11461	 -0.67410	 25.54428	710.06000	 27.20	
 17.014	-40.657	 21.86749	 19.04414	 -2.09812	 -0.09267	 15.94853	 -0.71747	 25.51859	710.10999	 27.20	
 16.988	-34.839	 21.86403	 19.93687	 -2.68328	  0.79079	 14.68881	 -0.72249	 25.52930	710.09998	 27.20	
 16.995	-29.081	 21.83722	 20.71404	 -3.15715	  1.83737	 13.34027	 -0.74039	 25.51633	710.09003	 27.20	
 16.990	-23.241	 21.82498	 21.36975	 -3.54253	  3.01887	 11.92829	 -0.75151	 25.52165	710.06000	 27.20	
 17.000	-17.404	 21.79672	 21.84491	 -3.80716	  4.16679	 10.53210	 -0.75727	 25.51035	710.00000	 27.20	
 17.009	-11.617	 21.77173	 22.18252	 -4.05188	  5.41164	  9.14775	 -0.77130	 25.53190	710.03998	 27.20	
 16.990	 -5.821	 21.77079	 22.35320	 -4.16402	  6.71417	  7.73808	 -0.79930	 25.52393	710.06000	 27.20	
 17.000	  0.000	 21.75622	 22.37648	 -4.19337	  8.04265	  6.34964	 -0.84390	 25.53796	710.15002	 27.20	
 16.990	  5.821	 21.74529	 22.22795	 -4.08913	  9.39842	  4.99458	 -0.86290	 25.53082	710.02002	 27.20	
 17.009	 11.617	 21.71694	 21.91950	 -3.92513	 10.80147	  3.71228	 -0.87273	 25.53359	710.09003	 27.20	
 17.000	 17.404	 21.70614	 21.45979	 -3.68456	 12.18092	  2.42948	 -0.88003	 25.53591	709.96997	 27.20	
 16.990	 23.241	 21.68588	 20.82404	 -3.36287	 13.57998	  1.28026	 -0.89865	 25.52832	710.13000	 27.20	
 16.995	 29.081	 21.65412	 20.05599	 -2.94481	 14.92127	  0.20847	 -0.94599	 25.52125	710.03998	 27.20	
 16.988	 34.839	 21.66654	 19.16710	 -2.39286	 16.15335	 -0.66982	 -1.01761	 25.53823	710.04999	 27.20	
 17.014	 40.657	 21.64095	 18.14572	 -1.78595	 17.36758	 -1.52617	 -1.12629	 25.53289	709.98999	 27.20	
 17.007	 46.454	 21.63881	 17.00165	 -1.02731	 18.46858	 -2.23272	 -1.20408	 25.53525	710.01001	 27.20	
 17.001	 52.301	 21.62603	 15.76604	 -0.17370	 19.47140	 -2.82115	 -1.25776	 25.53683	710.04999	 27.20	
 17.006	 58.063	 21.62983	 14.51033	  0.75713	 20.26471	 -3.25879	 -1.27985	 25.52624	709.94000	 27.20	
 17.002	 63.866	 21.62377	 13.17610	  1.87016	 20.97595	 -3.61672	 -1.29819	 25.51665	710.10999	 27.20	
 17.001	 69.690	 21.63460	 11.84393	  3.00378	 21.56317	 -3.96957	 -1.33102	 25.53598	710.06000	 27.20	
 16.988	 75.483	 21.65708	 10.49821	  4.18970	 21.98721	 -4.18663	 -1.37040	 25.53515	710.14001	 27.20	
 17.012	 81.253	 21.65878	  9.12496	  5.42542	 22.26860	 -4.35225	 -1.41213	 25.53910	710.07001	 27.20	
 16.996	 87.091	 21.68239	  7.76864	  6.75411	 22.36620	 -4.43009	 -1.43816	 25.53604	710.03998	 27.20	
 16.996	 92.909	 21.70814	  6.43334	  8.12426	 22.32389	 -4.39087	 -1.47853	 25.53439	710.03003	 27.20	
 17.008	 98.662	 21.70252	  5.13967	  9.50276	 22.10590	 -4.23931	 -1.47775	 25.52148	710.10999	 27.20	
 16.988	104.517	 21.73817	  3.91249	 10.88650	 21.74936	 -3.97220	 -1.45850	 25.54211	710.03998	 27.20	
 17.001	110.310	 21.73325	  2.74626	 12.26225	 21.22931	 -3.73142	 -1.43019	 25.52308	710.15002	 27.20	
 17.002	116.134	 21.75623	  1.65818	 13.64529	 20.57037	 -3.37356	 -1.39491	 25.53508	710.12000	 27.20	
 17.006	121.937	 21.75026	  0.60795	 14.97057	 19.78308	 -2.93871	 -1.38337	 25.53510	710.13000	 27.20	
 17.001	127.699	 21.75917	 -0.25889	 16.21221	 18.88227	 -2.39207	 -1.39967	 25.53283	710.10999	 27.20	
 17.007	133.546	 21.77680	 -1.06877	 17.41023	 17.80712	 -1.66688	 -1.40308	 25.54263	710.09998	 27.20	
 17.014	139.343	 21.79303	 -1.77121	 18.50310	 16.61681	 -0.83814	 -1.39045	 25.52780	710.20001	 27.10	
 16.988	145.161	 21.81174	 -2.32184	 19.44493	 15.36573	  0.09551	 -1.34591	 25.52470	710.10999	 27.20	
 16.995	150.919	 21.82917	 -2.75000	 20.26147	 14.09829	  1.06532	 -1.27908	 25.52654	710.08002	 27.20	
 16.990	156.759	 21.85876	 -3.07438	 20.93126	 12.75799	  2.23764	 -1.19778	 25.52847	710.07001	 27.20	
 17.000	162.596	 21.88095	 -3.34009	 21.46685	 11.35871	  3.41206	 -1.14957	 25.52946	710.14001	 27.10	
 17.009	168.383	 21.90516	 -3.52418	 21.82663	  9.99523	  4.65208	 -1.09988	 25.53251	710.12000	 27.10	
 16.990	174.179	 21.92601	 -3.67406	 22.05137	  8.63095	  5.97989	 -1.04734	 25.53241	710.10999	 27.10	
 18.709	174.675	 21.09445	 -4.94235	 22.82220	  7.93142	  5.39015	 -1.05424	 25.53428	710.07001	 27.10	
 18.703	169.441	 21.07175	 -4.82748	 22.61666	  9.26568	  4.10859	 -1.13328	 25.53242	710.15997	 27.10	
 18.691	164.085	 21.07251	 -4.62494	 22.27891	 10.62484	  2.81235	 -1.24111	 25.54205	710.10999	 27.10	
 18.706	158.818	 21.04681	 -4.42340	 21.81912	 12.00102	  1.59982	 -1.29846	 25.53682	710.14001	 27.10	
 18.695	153.537	 21.03931	 -4.11978	 21.19613	 13.37579	  0.51499	 -1.36607	 25.54751	710.12000	 27.10	
 18.704	148.255	 21.01651	 -3.74270	 20.44988	 14.67111	 -0.46560	 -1.42737	 25.54376	710.12000	 27.10	
 18.698	142.952	 20.98578	 -3.29421	 19.55088	 15.96338	 -1.41759	 -1.46812	 25.52938	710.16998	 27.10	
 18.699	137.625	 20.94980	 -2.75804	 18.54604	 17.18818	 -2.25832	 -1.53097	 25.51729	710.15002	 27.10	
 18.705	132.343	 20.93585	 -2.03669	 17.45090	 18.32097	 -2.96281	 -1.57122	 25.52096	710.08002	 27.10	
 18.713	127.067	 20.94300	 -1.27152	 16.25823	 19.34139	 -3.57574	 -1.58047	 25.53239	710.17999	 27.10	
 18.700	121.794	 20.91969	 -0.44155	 14.99766	 20.27383	 -4.08571	 -1.59554	 25.51680	710.02002	 27.10	
 18.698	116.504	 20.91484	  0.44676	 13.69673	 21.08280	 -4.51872	 -1.62511	 25.53056	710.19000	 27.10	
 18.707	111.165	 20.90509	  1.45628	 12.30980	 21.76707	 -4.88592	 -1.66550	 25.52678	710.13000	 27.10	
 18.690	105.863	 20.89920	  2.62007	 10.93955	 22.29286	 -5.15965	 -1.69798	 25.51234	710.03998	 27.10	
 18.696	100.583	 20.88539	  3.80534	  9.57365	 22.71274	 -5.43403	 -1.71270	 25.52622	710.15997	 27.10	
 18.700	 95.309	 20.86706	  5.05485	  8.20423	 22.97501	 -5.61231	 -1.71257	 25.52689	710.09998	 27.10	
 18.700	 90.000	 20.85242	  6.34947	  6.82212	 23.10689	 -5.72840	 -1.69188	 25.54005	710.02002	 27.10	
 18.700	 84.691	 20.81937	  7.72421	  5.46885	 23.07167	 -5.71853	 -1.66642	 25.52788	710.08002	 27.10	
 18.696	 79.417	 20.80402	  9.08341	  4.17682	 22.91475	 -5.58781	 -1.63587	 25.53498	710.03003	 27.10	
 18.690	 74.137	 20.79842	 10.43034	  2.93191	 22.58638	 -5.40286	 -1.60608	 25.52628	710.04999	 27.10	
 18.707	 68.835	 20.78917	 11.77335	  1.74584	 22.15508	 -5.17608	 -1.60684	 25.52147	710.04999	 27.10	
 18.698	 63.496	 20.78929	 13.14974	  0.65524	 21.55178	 -4.80329	 -1.55906	 25.51318	710.06000	 27.10	
 18.700	 58.206	 20.77736	 14.48429	 -0.34857	 20.83703	 -4.42589	 -1.53886	 25.51476	710.15002	 27.10	
 18.713	 52.933	 20.78212	 15.76198	 -1.24040	 20.01933	 -4.02127	 -1.50126	 25.53017	710.14001	 27.10	
 18.705	 47.657	 20.77866	 16.97050	 -2.05820	 19.07404	 -3.54749	 -1.44563	 25.52990	710.08002	 27.10	
 18.699	 42.375	 20.77846	 18.12763	 -2.78150	 18.00158	 -2.90383	 -1.36374	 25.52335	710.03998	 27.10	
 18.698	 37.048	 20.79049	 19.19069	 -3.44125	 16.81690	 -2.15447	 -1.27533	 25.51409	710.09003	 27.10	
 18.704	 31.745	 20.81343	 20.15113	 -3.98553	 15.56153	 -1.31914	 -1.18831	 25.54416	710.06000	 27.10	
 18.695	 26.463	 20.82803	 20.97562	 -4.41083	 14.28682	 -0.39425	 -1.13496	 25.53628	710.03998	 27.10	
 18.706	 21.182	 20.83471	 21.68105	 -4.75353	 12.92348	  0.63898	 -1.07609	 25.53171	710.00000	 27.10	
 18.691	 15.915	 20.84480	 22.25234	 -5.01825	 11.53624	  1.77258	 -1.03922	 25.52385	709.98999	 27.10	
 18.703	 10.559	 20.87606	 22.70127	 -5.20971	 10.14265	  2.97452	 -1.03772	 25.53512	709.91998	 27.10	
 18.709	  5.325	 20.88761	 22.98090	 -5.37363	  8.75278	  4.26456	 -0.99056	 25.52931	710.07001	 27.10	
 18.700	  0.000	 20.91178	 23.12445	 -5.46086	  7.40421	  5.67598	 -0.94518	 25.53293	709.96997	 27.10	
 18.709	 -5.325	 20.91125	 23.11106	 -5.45970	  6.09238	  7.01508	 -0.87702	 25.52427	710.06000	 27.10	
 18.703	-10.559	 20.93366	 22.95593	 -5.33816	  4.81791	  8.41850	 -0.83589	 25.52112	710.10999	 27.00	
 18.691	-15.915	 20.96602	 22.66631	 -5.14537	  3.55088	  9.86371	 -0.80233	 25.53726	710.12000	 27.10	
 18.706	-21.182	 20.98961	 22.22867	 -4.88232	  2.32066	 11.19067	 -0.77126	 25.52716	710.09003	 27.00	
 18.695	-26.463	 21.00943	 21.65181	 -4.60544	  1.24580	 12.58236	 -0.74826	 25.52929	710.06000	 27.00	
 18.704	-31.745	 21.01116	 20.93808	 -4.25774	  0.20795	 13.95216	 -0.71130	 25.54118	710.02002	 27.00	
 18.698	-37.048	 21.02719	 20.12875	 -3.77752	 -0.68379	 15.25683	 -0.68512	 25.52402	710.03003	 27.00	
 18.699	-42.375	 21.04957	 19.16238	 -3.16243	 -1.51846	 16.53106	 -0.63880	 25.52983	710.13000	 27.00	
 18.705	-47.657	 21.05644	 18.07769	 -2.45498	 -2.28145	 17.72029	 -0.61710	 25.52563	710.06000	 27.00	
 18.713	-52.933	 21.07756	 16.91455	 -1.66359	 -2.94654	 18.80354	 -0.60280	 25.53997	710.06000	 27.00	
 18.700	-58.206	 21.09441	 15.68360	 -0.78235	 -3.49752	 19.70700	 -0.56933	 25.52295	710.06000	 27.00	
 18.698	-63.496	 21.12112	 14.37827	  0.20488	 -3.98492	 20.55172	 -0.53446	 25.54460	709.97998	 27.00	
 18.707	-68.835	 21.12512	 13.02469	  1.33669	 -4.32777	 21.26873	 -0.49478	 25.52653	710.04999	 27.00	
 18.690	-74.137	 21.15434	 11.66092	  2.49788	 -4.59352	 21.84294	 -0.48083	 25.54126	710.04999	 27.00	
 18.696	-79.417	 21.15707	 10.27480	  3.68741	 -4.80442	 22.25507	 -0.46310	 25.54030	710.08002	 27.00	
 18.700	-84.691	 21.14248	  8.90822	  4.97973	 -5.00830	 22.51795	 -0.45260	 25.51700	710.06000	 27.00	
 18.700	-90.000	 21.16523	  7.56131	  6.27414	 -5.08517	 22.64869	 -0.43835	 25.53213	710.14001	 27.00	
 18.700	-95.309	 21.18172	  6.24543	  7.62024	 -5.05777	 22.62725	 -0.43031	 25.53712	710.00000	 27.00	
 18.696	-100.583	 21.18568	  4.92705	  9.00739	 -4.94664	 22.45238	 -0.42797	 25.53086	710.03003	 27.00	
 18.690	-105.863	 21.19139	  3.67678	 10.34608	 -4.75252	 22.12849	 -0.42727	 25.52514	709.96002	 27.00	
 18.707	-111.165	 21.22105	  2.50201	 11.73728	 -4.46499	 21.67441	 -0.43863	 25.54185	709.98999	 27.00	
 18.698	-116.504	 21.22995	  1.36759	 13.14172	 -4.11333	 21.04948	 -0.46302	 25.53070	710.12000	 27.00	
 18.700	-121.794	 21.24059	  0.36127	 14.47832	 -3.68956	 20.30226	 -0.47949	 25.52270	710.10999	 27.00	
 18.713	-127.067	 21.24246	 -0.56569	 15.74723	 -3.21872	 19.49930	 -0.50073	 25.54061	710.00000	 27.00	
 18.705	-132.343	 21.26223	 -1.39920	 16.97838	 -2.62760	 18.50345	 -0.53052	 25.53846	710.10999	 27.00	
 18.699	-137.625	 21.25289	 -2.12979	 18.12873	 -1.93619	 17.40319	 -0.55928	 25.53757	710.01001	 27.00	
 18.698	-142.952	 21.24893	 -2.77870	 19.17445	 -1.14023	 16.18128	 -0.58734	 25.52474	709.95001	 27.00	
 18.704	-148.255	 21.24249	 -3.30931	 20.10247	 -0.32338	 14.94133	 -0.64212	 25.53409	710.12000	 27.00	
 18.695	-153.537	 21.22049	 -3.74803	 20.89304	  0.64017	 13.61064	 -0.68028	 25.52068	710.09998	 27.00	
 18.706	-158.818	 21.20312	 -4.11162	 21.55817	  1.66463	 12.23931	 -0.75032	 25.51903	710.01001	 27.00	
 18.691	-164.085	 21.20341	 -4.39131	 22.09209	  2.77324	 10.89066	 -0.80528	 25.53120	709.98999	 27.00	
 18.703	-169.441	 21.17043	 -4.68070	 22.50393	  4.01477	  9.50022	 -0.85688	 25.52638	710.07001	 27.00	
 18.709	-174.675	 21.14911	 -4.87389	 22.76748	  5.28255	  8.10048	 -0.92327	 25.53005	710.03003	 27.00	
 18.700	180.000	 21.12562	 -4.95156	 22.86221	  6.57069	  6.73501	 -0.98812	 25.52283	709.96997	 27.00	
 20.400	180.000	 20.24003	 -6.16788	 23.51721	  5.85185	  6.11013	 -0.94982	 25.53734	710.04999	 27.00	
 20.401	-175.153	 20.25313	 -6.13135	 23.42563	  4.56045	  7.41757	 -0.86948	 25.53844	710.06000	 27.00	
 20.407	-170.264	 20.27656	 -5.98404	 23.17911	  3.29951	  8.82550	 -0.82390	 25.52447	709.92999	 27.00	
 20.410	-165.423	 20.29858	 -5.74411	 22.82892	  2.11786	 10.23811	 -0.78839	 25.52270	710.00000	 27.00	
 20.392	-160.496	 20.33487	 -5.40047	 22.33493	  1.00815	 11.59943	 -0.74303	 25.51606	710.13000	 27.00	
 20.401	-155.705	 20.34708	 -5.07248	 21.72219	 -0.03964	 12.94841	 -0.67870	 25.54184	710.09003	 27.00	
 20.405	-150.835	 20.33532	 -4.69804	 20.96911	 -0.98293	 14.29736	 -0.61858	 25.53055	710.07001	 27.00	
 20.397	-145.903	 20.36424	 -4.23247	 20.11045	 -1.81127	 15.56824	 -0.58326	 25.52526	710.10999	 27.00	
 20.392	-141.062	 20.36554	 -3.69540	 19.12112	 -2.60268	 16.79485	 -0.53484	 25.51979	710.10999	 27.00	
 20.396	-136.227	 20.35784	 -3.07861	 18.09412	 -3.30896	 17.96854	 -0.52088	 25.52246	710.06000	 27.00	
 20.408	-131.372	 20.33989	 -2.38450	 16.93407	 -3.94008	 19.02647	 -0.48451	 25.51654	709.95001	 27.00	
 20.410	-126.511	 20.36588	 -1.58645	 15.71209	 -4.50110	 20.00191	 -0.45487	 25.53243	709.98999	 27.00	
 20.400	-121.604	 20.34169	 -0.68517	 14.37504	 -4.98531	 20.86323	 -0.42885	 25.52803	710.09003	 27.00	
 20.403	-116.741	 20.33060	  0.28153	 13.04176	 -5.34410	 21.58230	 -0.43282	 25.53354	709.88000	 27.00	
 20.413	-111.900	 20.31104	  1.33471	 11.67489	 -5.64259	 22.19135	 -0.41741	 25.52834	710.02002	 27.00	
 20.398	-107.004	 20.30412	  2.47892	 10.29693	 -5.85038	 22.69086	 -0.42606	 25.52881	710.06000	 27.00	
 20.394	-102.132	 20.29196	  3.67635	  8.96672	 -6.07554	 23.04303	 -0.42633	 25.52154	710.07001	 27.00	
 20.403	-97.332	 20.27898	  4.96016	  7.61167	 -6.23086	 23.25725	 -0.39139	 25.53985	710.04999	 27.00	
 20.392	-92.440	 20.25925	  6.27029	  6.24600	 -6.26825	 23.34292	 -0.39794	 25.51971	709.95001	 27.00	
 20.392	-87.560	 20.23895	  7.57806	  4.92851	 -6.24498	 23.28897	 -0.39536	 25.51659	710.00000	 27.00	
 20.403	-82.668	 20.22021	  8.94547	  3.63288	 -6.16967	 23.11031	 -0.43308	 25.52332	709.97998	 27.00	
 20.394	-77.868	 20.22572	 10.27142	  2.40150	 -5.96350	 22.79180	 -0.43710	 25.52919	709.90002	 27.00	
 20.398	-72.996	 20.22264	 11.64528	  1.15499	 -5.75739	 22.34123	 -0.46747	 25.53591	709.94000	 27.00	
 20.413	-68.100	 20.18755	 13.00441	  0.03854	 -5.49692	 21.74068	 -0.48125	 25.53433	709.91998	 27.00	
 20.403	-63.259	 20.17935	 14.33689	 -0.95842	 -5.15824	 21.05054	 -0.49863	 25.51831	709.94000	 27.00	
 20.400	-58.396	 20.16192	 15.62522	 -1.88532	 -4.74954	 20.22710	 -0.50427	 25.52322	710.07001	 27.00	
 20.410	-53.489	 20.16266	 16.88789	 -2.74491	 -4.24226	 19.27807	 -0.52847	 25.54049	710.00000	 27.00	
 20.408	-48.628	 20.12486	 18.08583	 -3.54560	 -3.61923	 18.20219	 -0.54361	 25.52618	710.08002	 26.90	
 20.396	-43.773	 20.13276	 19.18669	 -4.20815	 -2.90624	 17.04193	 -0.57735	 25.54498	710.03003	 26.90	
 20.392	-38.938	 20.12206	 20.16929	 -4.75889	 -2.14545	 15.81534	 -0.62687	 25.53930	709.96997	 26.90	
 20.397	-34.097	 20.10649	 21.05577	 -5.20679	 -1.31126	 14.53780	 -0.64866	 25.53676	710.08002	 26.90	
 20.405	-29.165	 20.08275	 21.82974	 -5.62203	 -0.40837	 13.18223	 -0.70818	 25.53190	709.97998	 26.90	
 20.401	-24.295	 20.06219	 22.45563	 -5.93637	  0.59446	 11.81326	 -0.75317	 25.53204	710.03998	 26.90	
 20.392	-19.504	 20.06691	 22.96726	 -6.15725	  1.69075	 10.45319	 -0.79508	 25.53743	710.09003	 26.90	
 20.410	-14.577	 20.02631	 23.37274	 -6.43095	  2.84414	  9.07641	 -0.83908	 25.53814	710.03003	 26.90	
 20.407	 -9.736	 20.00058	 23.60630	 -6.57962	  4.10321	  7.65654	 -0.89030	 25.51416	710.07001	 26.90	
 20.401	 -4.847	 20.00724	 23.76342	 -6.65297	  5.42851	  6.27843	 -0.92986	 25.54246	710.03003	 26.90	
 20.400	  0.000	 19.99541	 23.76285	 -6.65898	  6.72026	  4.91423	 -0.99841	 25.54294	710.03998	 26.90	
 20.401	  4.847	 19.96214	 23.61460	 -6.59775	  8.05851	  3.57442	 -1.06146	 25.52709	710.07001	 26.90	
 20.407	  9.736	 19.94425	 23.36526	 -6.47568	  9.45253	  2.28455	 -1.12445	 25.53143	710.10999	 26.90	
 20.410	 14.577	 19.92609	 22.97762	 -6.30684	 10.81539	  1.10137	 -1.18037	 25.53395	710.08002	 26.90	
 20.392	 19.504	 19.93297	 22.43777	 -6.01394	 12.24782	 -0.05025	 -1.26040	 25.54603	710.04999	 26.90	
 20.401	 24.295	 19.90945	 21.78957	 -5.73908	 13.56838	 -1.07609	 -1.31415	 25.54764	710.02002	 26.90	
 20.405	 29.165	 19.88657	 21.01747	 -5.35032	 14.87880	 -1.95834	 -1.37217	 25.53649	710.03003	 26.90	
 20.397	 34.097	 19.89005	 20.11131	 -4.89313	 16.15318	 -2.81265	 -1.43650	 25.54357	710.03003	 26.90	
 20.392	 38.938	 19.87575	 19.11925	 -4.37943	 17.35825	 -3.53290	 -1.52356	 25.53391	710.03003	 26.90	
 20.396	 43.773	 19.88122	 18.06553	 -3.77178	 18.46913	 -4.13416	 -1.58879	 25.54774	709.97998	 26.90	
 20.408	 48.628	 19.87874	 16.90309	 -3.07825	 19.52186	 -4.68392	 -1.66903	 25.53824	710.06000	 26.90	
 20.410	 53.489	 19.87052	 15.65968	 -2.28829	 20.48201	 -5.16342	 -1.72679	 25.54448	710.01001	 26.90	
 20.400	 58.396	 19.86254	 14.35700	 -1.41549	 21.33504	 -5.60769	 -1.76559	 25.53221	709.97998	 26.90	
 20.403	 63.259	 19.86902	 13.02299	 -0.44941	 22.06018	 -6.00462	 -1.81445	 25.53653	710.04999	 26.90	
 20.413	 68.100	 19.86722	 11.66794	  0.58953	 22.64059	 -6.37636	 -1.83058	 25.53279	709.95001	 26.90	
 20.398	 72.996	 19.89227	 10.33739	  1.70877	 23.10637	 -6.60216	 -1.83782	 25.53158	710.01001	 26.90	
 20.394	 77.868	 19.90778	  8.98345	  2.88576	 23.44431	 -6.78329	 -1.87046	 25.54310	709.89001	 26.90	
 20.403	 82.668	 19.90748	  7.64660	  4.14852	 23.65349	 -6.92440	 -1.88240	 25.53730	709.91998	 26.90	
 20.392	 87.560	 19.93624	  6.30120	  5.51324	 23.73289	 -6.98065	 -1.89744	 25.52761	709.88000	 26.90	
 20.392	 92.440	 19.97646	  5.00144	  6.86786	 23.69060	 -6.89515	 -1.91749	 25.53676	709.95001	 26.90	
 20.403	 97.332	 19.99656	  3.69896	  8.25244	 23.53093	 -6.75733	 -1.92459	 25.54964	710.02002	 26.90	
 20.394	102.132	 20.00359	  2.48856	  9.58462	 23.20630	 -6.55302	 -1.93449	 25.53679	710.09003	 26.90	
 20.398	107.004	 19.99854	  1.33859	 10.96488	 22.75553	 -6.30772	 -1.91569	 25.52274	710.07001	 26.90	
 20.413	111.900	 19.99776	  0.28166	 12.36128	 22.20701	 -6.01301	 -1.88571	 25.53146	709.98999	 26.90	
 20.403	116.741	 20.01847	 -0.67099	 13.71135	 21.52673	 -5.63532	 -1.84421	 25.54181	710.08002	 26.90	
 20.400	121.604	 20.01759	 -1.54042	 15.00527	 20.71269	 -5.19021	 -1.77788	 25.53565	709.96997	 26.90	
 20.410	126.511	 20.02472	 -2.32859	 16.27086	 19.78266	 -4.70555	 -1.73972	 25.53328	709.92999	 26.90	
 20.408	131.372	 20.05424	 -3.02504	 17.47463	 18.77424	 -4.12445	 -1.68627	 25.54072	709.97998	 26.90	
 20.396	136.227	 20.08872	 -3.59735	 18.58047	 17.68082	 -3.47303	 -1.63604	 25.54766	710.06000	 26.90	
 20.392	141.062	 20.09958	 -4.15344	 19.58982	 16.51404	 -2.77855	 -1.58259	 25.55107	709.94000	 26.90	
 20.397	145.903	 20.11331	 -4.61621	 20.50208	 15.27552	 -1.96844	 -1.50451	 25.54611	710.01001	 26.90	
 20.405	150.835	 20.11803	 -5.06041	 21.32771	 13.92596	 -1.05841	 -1.46311	 25.53708	710.09003	 26.90	
 20.401	155.705	 20.15486	 -5.39781	 22.01771	 12.61705	 -0.05625	 -1.39889	 25.55474	709.92999	 26.90	
 20.392	160.496	 20.17782	 -5.65108	 22.56799	 11.27970	  1.01724	 -1.31988	 25.54171	710.00000	 26.90	
 20.410	165.423	 20.19210	 -5.86253	 23.01490	  9.88763	  2.20542	 -1.25094	 25.54303	709.98999	 26.90	
 20.407	170.264	 20.20456	 -6.01537	 23.30747	  8.54046	  3.42372	 -1.14990	 25.53918	709.97998	 26.90	
 20.401	175.153	 20.21877	 -6.14644	 23.48534	  7.20067	  4.79133	 -1.03324	 25.54884	710.03003	 26.90	
  0.141	 45.000	 25.51844	 11.08441	 10.53866	 11.12582	 10.08171	  0.65963	 25.54489	709.97998	 26.90	
  4.001	128.691	 25.40753	  8.76862	 12.52409	 13.40119	  7.59515	  0.48934	 25.55503	710.02002	 26.90	
  4.002	 76.995	 25.39269	 11.35715	  9.77400	 14.16370	  6.90591	  0.58515	 25.55196	710.03998	 26.90	
  4.002	 25.892	 25.41465	 13.73702	  7.68276	 12.36825	  8.51705	  0.65036	 25.55550	710.09003	 26.90	
  4.002	-25.892	 25.44334	 13.85630	  7.62074	  9.61355	 11.31672	  0.60218	 25.55075	710.03003	 26.90	
  4.002	-76.995	 25.46158	 11.64834	  9.64394	  7.88540	 13.25258	  0.51507	 25.55307	710.10999	 26.90	
  4.001	-128.691	 25.47825	  9.00695	 12.44662	  8.40099	 12.64237	  0.44835	 25.57017	710.14001	 26.90	
  4.000	180.000	 25.42346	  7.73958	 13.81543	 10.72954	 10.09981	  0.44496	 25.54427	709.96002	 26.90	
  8.000	180.000	 24.91951	  4.30261	 16.76115	 10.03785	  9.65506	 -0.08106	 25.55464	710.07001	 26.90	
  7.991	-152.370	 24.96849	  5.08889	 15.85821	  7.24446	 12.69530	 -0.03306	 25.54325	710.15997	 26.90	
  7.997	-124.550	 24.99923	  7.00693	 13.52072	  5.27000	 15.20329	 -0.05331	 25.55103	710.12000	 26.90	
  8.006	-96.837	 25.01410	  9.78280	 10.44306	  4.42615	 16.36633	 -0.02418	 25.54345	710.00000	 26.90	
  7.988	-69.228	 24.99917	 12.80758	  7.47997	  4.82744	 15.82996	  0.12157	 25.55259	710.01001	 26.90	
  7.997	-41.563	 24.96196	 15.46761	  5.23703	  6.38754	 13.76806	  0.10007	 25.55423	709.92999	 26.90	
  8.008	-13.821	 24.90095	 16.98129	  4.06744	  9.00089	 10.72437	  0.20687	 25.54832	710.00000	 26.90	
  8.008	 13.821	 24.83914	 16.80426	  4.10006	 11.99078	  7.65748	  0.26192	 25.53329	709.97998	 26.90	
  7.997	 41.563	 24.81213	 15.05436	  5.36423	 14.88057	  5.14749	  0.20947	 25.54576	710.00000	 26.90	
  7.988	 69.228	 24.79430	 12.23019	  7.70567	 16.76272	  3.69149	  0.14048	 25.54523	709.98999	 26.90	
  8.006	 96.837	 24.79529	  9.20768	 10.63773	 17.08464	  3.42955	  0.00379	 25.55398	709.95001	 26.90	
  7.997	124.550	 24.81020	  6.51660	 13.71602	 15.75153	  4.44630	 -0.03332	 25.54013	710.01001	 26.90	
  7.991	152.370	 24.85978	  4.76435	 15.97718	 13.15135	  6.67437	 -0.04548	 25.54163	709.95001	 26.90	
 12.009	161.059	 23.82847	  0.81451	 18.87032	 12.22451	  5.71814	 -0.61012	 25.54161	710.01001	 26.90	
 12.013	142.081	 23.77829	  1.97971	 17.18495	 15.30501	  3.03403	 -0.70520	 25.54815	710.00000	 26.90	
 12.006	123.113	 23.74874	  3.99016	 14.56814	 17.78445	  1.11623	 -0.64647	 25.55233	709.97998	 26.90	
 12.007	104.200	 23.72784	  6.63202	 11.41503	 19.33938	 -0.01641	 -0.64719	 25.55571	710.01001	 26.90	
 11.989	 85.301	 23.70690	  9.67399	  8.25047	 19.74140	 -0.32795	 -0.59006	 25.54805	710.03003	 26.90	
 12.013	 66.294	 23.68831	 12.82456	  5.27479	 18.96682	  0.20035	 -0.49256	 25.55105	710.09998	 26.90	
 12.012	 47.388	 23.69088	 15.82394	  2.87624	 17.09966	  1.56683	 -0.43698	 25.55633	709.96997	 26.90	
 11.990	 28.440	 23.74183	 18.16678	  1.24736	 14.36368	  3.74318	 -0.22828	 25.56530	710.07001	 26.90	
 11.991	  9.464	 23.79266	 19.48949	  0.40321	 11.18409	  6.53817	 -0.23725	 25.55647	710.08002	 26.90	
 11.991	 -9.464	 23.83842	 19.65444	  0.28737	  8.10242	  9.72960	 -0.29206	 25.55267	710.06000	 26.90	
 11.990	-28.440	 23.88137	 18.61774	  1.03578	  5.23908	 12.95312	 -0.36144	 25.55455	710.15002	 26.90	
 12.012	-47.388	 23.92410	 16.52714	  2.59986	  2.93268	 15.88305	 -0.45530	 25.56105	710.00000	 26.90	
 12.013	-66.294	 23.96601	 13.65567	  4.98346	  1.44286	 18.00002	 -0.47308	 25.55320	710.06000	 26.90	
 11.989	-85.301	 23.99245	 10.50074	  7.92210	  0.72556	 19.00331	 -0.48672	 25.54438	710.00000	 26.80	
 12.007	-104.200	 24.01615	  7.39367	 11.04938	  0.83744	 18.83428	 -0.46729	 25.56007	710.10999	 26.80	
 12.006	-123.113	 24.01885	  4.64863	 14.22788	  1.76639	 17.46325	 -0.52046	 25.55823	709.94000	 26.80	
 12.013	-142.081	 23.98936	  2.50817	 16.93583	  3.53953	 15.05737	 -0.52870	 25.54709	710.04999	 26.80	
 12.009	-161.059	 23.95230	  1.08972	 18.74642	  6.00858	 12.00670	 -0.58955	 25.55663	710.01001	 26.80	
 16.000	180.000	 22.39498	 -2.91898	 21.62612	  7.64555	  7.66947	 -0.97008	 25.53474	710.08002	 26.80	
 15.990	-165.604	 22.46754	 -2.47505	 21.08565	  4.62946	 10.89688	 -0.84412	 25.54607	710.12000	 26.80	
 16.002	-151.165	 22.51615	 -1.59297	 19.65966	  2.03403	 14.13019	 -0.70061	 25.55554	710.10999	 26.80	
 16.002	-136.836	 22.54461	 -0.06927	 17.42332	 -0.08260	 16.97874	 -0.64286	 25.56134	709.97998	 26.80	
 15.995	-122.439	 22.51869	  2.00377	 14.57069	 -1.57518	 19.26553	 -0.57385	 25.54284	709.97998	 26.80	
 15.993	-107.966	 22.48071	  4.70718	 11.34249	 -2.50708	 20.76975	 -0.51588	 25.52722	710.03003	 26.80	
 16.005	-93.629	 22.48772	  7.73765	  8.14713	 -2.94162	 21.38492	 -0.52391	 25.55152	710.09998	 26.80	
 15.992	-79.234	 22.46911	 10.91318	  5.04855	 -2.66289	 21.02359	 -0.56607	 25.55200	710.00000	 26.80	
 16.009	-64.774	 22.42369	 14.14440	  2.25180	 -1.93522	 19.74902	 -0.59057	 25.54872	710.01001	 26.80	
 15.997	-50.364	 22.40778	 17.11178	 -0.11834	 -0.56768	 17.58994	 -0.66432	 25.56237	710.03998	 26.80	
 15.997	-36.045	 22.35099	 19.45734	 -1.76374	  1.34338	 14.86790	 -0.70718	 25.55526	710.02002	 26.80	
 16.000	-21.597	 22.31096	 21.14575	 -2.83780	  3.94290	 11.63687	 -0.69632	 25.56190	710.13000	 26.80	
 16.003	 -7.169	 22.25540	 21.88729	 -3.34093	  6.87079	  8.34974	 -0.70705	 25.55114	710.00000	 26.80	
 16.003	  7.169	 22.22884	 21.75193	 -3.27138	 10.00640	  5.14657	 -0.75319	 25.57956	710.09998	 26.80	
 16.000	 21.597	 22.16460	 20.62979	 -2.67217	 13.28034	  2.24028	 -0.74923	 25.54827	710.01001	 26.80	
 15.997	 36.045	 22.14419	 18.71054	 -1.52381	 16.32074	 -0.16265	 -0.89474	 25.55820	710.06000	 26.80	
 15.997	 50.364	 22.11408	 16.09873	  0.22546	 18.87332	 -1.88859	 -1.07675	 25.55212	709.95001	 26.80	
 16.009	 64.774	 22.12464	 13.03131	  2.65520	 20.72854	 -2.96961	 -1.13208	 25.56281	709.94000	 26.80	
 15.992	 79.234	 22.13753	  9.87381	  5.48752	 21.74694	 -3.54686	 -1.21460	 25.55463	710.01001	 26.80	
 16.005	 93.629	 22.16544	  6.72083	  8.58188	 21.85294	 -3.62281	 -1.29720	 25.54469	710.03998	 26.80	
 15.993	107.966	 22.20191	  3.83600	 11.82209	 21.06938	 -3.13191	 -1.27190	 25.54740	709.92999	 26.80	
 15.995	122.439	 22.20951	  1.27513	 15.00820	 19.40474	 -2.21678	 -1.23941	 25.55010	710.01001	 26.80	
 16.002	136.836	 22.25742	 -0.68749	 17.79042	 17.01307	 -0.51876	 -1.27318	 25.55436	709.97998	 26.80	
 16.002	151.165	 22.28470	 -2.00760	 19.91588	 14.07976	  1.77337	 -1.16414	 25.54844	709.90997	 26.80	
 15.990	165.604	 22.35451	 -2.68575	 21.22659	 10.87084	  4.55437	 -1.03658	 25.55174	710.01001	 26.80	
 20.003	168.362	 20.41857	 -5.66432	 23.06769	  9.19011	  3.13011	 -1.18179	 25.53817	710.02002	 26.80	
 20.008	156.764	 20.37513	 -5.19886	 22.03124	 12.38460	  0.38148	 -1.35436	 25.55948	709.96997	 26.80	
 20.000	145.147	 20.33402	 -4.29917	 20.25902	 15.48177	 -1.86644	 -1.50797	 25.55065	710.02002	 26.80	
 19.995	133.545	 20.28794	 -3.02541	 17.93262	 18.25353	 -3.59801	 -1.63136	 25.54442	709.98999	 26.80	
 20.009	121.926	 20.23718	 -1.32879	 15.08670	 20.58277	 -4.92471	 -1.73700	 25.53974	710.04999	 26.80	
 20.005	110.327	 20.23102	  0.85692	 11.97304	 22.30918	 -5.83196	 -1.84513	 25.55289	709.88000	 26.80	
 19.989	 98.733	 20.20609	  3.55626	  8.77372	 23.29239	 -6.40946	 -1.87632	 25.52628	709.94000	 26.80	
 19.999	 87.075	 20.16253	  6.60150	  5.55297	 23.59203	 -6.68405	 -1.85661	 25.54310	709.94000	 26.80	
 19.992	 75.457	 20.12887	  9.76079	  2.51174	 23.17541	 -6.41193	 -1.81120	 25.55541	709.95001	 26.80	
 20.009	 63.844	 20.08707	 12.92080	 -0.09990	 22.03660	 -5.77662	 -1.77377	 25.54537	709.97998	 26.80	
 19.989	 52.269	 20.09324	 15.95619	 -2.20165	 20.17072	 -4.79940	 -1.67251	 25.53594	709.90002	 26.80	
 19.999	 40.602	 20.09781	 18.70429	 -3.91830	 17.72854	 -3.52358	 -1.51027	 25.54612	709.78998	 26.80	
 20.004	 29.051	 20.12135	 20.93916	 -5.09707	 14.84988	 -1.70772	 -1.31243	 25.53638	709.88000	 26.80	
 20.005	 17.433	 20.15094	 22.55919	 -5.86087	 11.69975	  0.65160	 -1.18238	 25.54440	709.83002	 26.80	
 20.006	  5.780	 20.19462	 23.45530	 -6.29267	  8.45955	  3.52157	 -1.05160	 25.54082	709.89001	 26.80	
 20.006	 -5.780	 20.24323	 23.60559	 -6.36945	  5.39700	  6.66067	 -0.90334	 25.54079	709.89001	 26.80	
 20.005	-17.433	 20.27711	 23.02773	 -5.98263	  2.40466	  9.93102	 -0.82228	 25.54546	709.96002	 26.80	
 20.004	-29.051	 20.30523	 21.72567	 -5.34208	 -0.09919	 13.17574	 -0.70502	 25.52818	709.87000	 26.80	
 19.999	-40.602	 20.35446	 19.78228	 -4.31611	 -2.12517	 16.21728	 -0.60317	 25.54502	709.98999	 26.80	
 19.989	-52.269	 20.40782	 17.18297	 -2.64843	 -3.78809	 18.93350	 -0.54424	 25.54990	709.92999	 26.80	
 20.009	-63.844	 20.43226	 14.22163	 -0.57578	 -4.92030	 21.00480	 -0.48915	 25.54380	709.98999	 26.80	
 19.992	-75.457	 20.46778	 11.05566	  2.03597	 -5.57050	 22.45477	 -0.44421	 25.54950	709.98999	 26.80	
 19.999	-87.075	 20.47572	  7.85915	  4.98906	 -5.96456	 23.13141	 -0.39298	 25.53622	709.97998	 26.80	
 19.989	-98.733	 20.50926	  4.79554	  8.14567	 -5.89144	 23.05807	 -0.42068	 25.53610	710.02002	 26.80	
 20.005	-110.327	 20.53516	  1.93356	 11.30465	 -5.42386	 22.22912	 -0.42795	 25.52946	710.13000	 26.80	
 20.009	-121.926	 20.56936	 -0.49432	 14.49968	 -4.66627	 20.70566	 -0.44835	 25.54115	709.98999	 26.80	
 19.995	-133.545	 20.58087	 -2.43893	 17.43445	 -3.38061	 18.49529	 -0.47884	 25.52991	710.03998	 26.80	
 20.000	-145.147	 20.59850	 -3.88134	 19.88032	 -1.66218	 15.75225	 -0.59023	 25.53423	709.91998	 26.80	
 20.008	-156.764	 20.57529	 -4.88072	 21.76594	  0.43515	 12.69784	 -0.71177	 25.55468	710.08002	 26.80	
 20.003	-168.362	 20.51033	 -5.58570	 22.91897	  3.05366	  9.47418	 -0.83328	 25.53371	710.00000	 26.80	
 20.000	180.000	 20.46204	 -5.89099	 23.36651	  6.03928	  6.25124	 -0.93770	 25.53887	710.00000	 26.80	
