FileType=PCF
NHL=14
Date=05/29/19	14:57:30
Facility=APL
Serial=16071-8
Customer=NASA
NP=6
Mach=0.550000
Calibration=1:1
CalPts=490
TstPts=95
PortNumbering=AP Standard
Units=Torr C m/s kg/m^3 deg mm 
Theta[deg]	Phi[deg]	P1[Torr]	P2[Torr]	P3[Torr]	P4[Torr]	P5[Torr]	P6[Torr]	Pt[Torr]	Ps[Abs,Torr]	Ts[C]	
  0.000	  0.000	160.25809	 76.05371	 74.84584	 72.51651	 74.47898	  6.63465	160.13940	700.59998	 43.20	
  1.691	128.401	160.32352	 71.03152	 79.91792	 78.57568	 68.42260	  6.48495	160.19566	700.67999	 43.30	
  1.692	 77.194	160.31075	 77.42912	 73.21690	 80.48469	 66.63211	  6.53275	160.21385	700.72998	 43.30	
  1.699	 26.182	160.25262	 82.85085	 67.79729	 76.46514	 70.29610	  6.53114	160.15485	700.63000	 43.30	
  1.699	-26.182	160.30226	 83.14833	 67.54065	 69.33106	 77.38818	  6.52147	160.20068	700.62000	 43.30	
  1.692	-77.194	160.35176	 77.87058	 72.55266	 64.93351	 81.99560	  6.48551	160.22461	700.65997	 43.30	
  1.691	-128.401	160.38533	 71.41877	 79.34150	 66.10836	 80.76537	  6.44732	160.26999	700.75000	 43.30	
  1.700	180.000	160.40375	 68.22466	 82.79899	 72.13923	 74.67533	  6.45314	160.29652	700.65997	 43.40	
  3.400	180.000	160.25044	 60.21928	 90.40350	 71.06825	 74.60065	  5.92650	160.34396	700.59003	 43.40	
  3.388	-152.325	160.24556	 62.18476	 88.07489	 64.00681	 81.96149	  5.97920	160.35587	700.70001	 43.40	
  3.397	-124.529	160.32051	 67.13862	 82.69822	 58.96527	 87.61823	  6.03524	160.41130	700.60999	 43.40	
  3.399	-96.763	160.29263	 74.15957	 75.22376	 56.83180	 89.93350	  6.06373	160.40721	700.65002	 43.50	
  3.394	-69.283	160.28563	 81.57130	 68.01958	 58.03947	 88.61040	  6.12411	160.42996	700.70001	 43.50	
  3.400	-41.398	160.31538	 88.04628	 62.25182	 62.38616	 83.75902	  6.17449	160.45790	700.71002	 43.50	
  3.401	-14.021	160.34367	 91.19104	 59.28502	 69.17236	 76.70263	  6.20929	160.49915	700.73999	 43.60	
  3.401	 14.021	160.38844	 91.05926	 59.61735	 77.07300	 68.93509	  6.22111	160.51881	700.71997	 43.60	
  3.400	 41.398	160.39070	 87.30640	 63.24693	 83.73504	 62.85986	  6.24447	160.53375	700.87000	 43.60	
  3.394	 69.283	160.37448	 80.63712	 69.37009	 87.76275	 59.18810	  6.19924	160.49284	700.79999	 43.70	
  3.399	 96.763	160.46909	 73.33663	 76.94660	 88.39222	 58.64327	  6.15492	160.57703	700.85999	 43.80	
  3.397	124.529	160.47643	 66.73522	 83.98218	 85.12798	 61.56120	  6.07536	160.58292	700.84998	 43.80	
  3.388	152.325	160.53677	 61.99953	 88.91270	 78.99138	 67.37467	  6.00131	160.60178	700.73999	 43.80	
  5.099	161.165	159.87682	 53.21944	 96.88019	 78.08021	 66.55473	  5.29386	160.57753	700.78003	 43.80	
  5.109	142.013	159.86258	 56.50339	 93.23429	 85.36317	 59.76063	  5.35659	160.55852	700.85999	 43.80	
  5.095	123.033	159.93753	 61.98513	 87.36161	 91.15839	 54.55709	  5.46337	160.62762	700.76001	 43.80	
  5.105	104.191	159.93805	 68.68745	 80.41564	 94.98547	 51.07593	  5.55558	160.66095	700.82001	 43.90	
  5.093	 85.207	159.89633	 76.25552	 72.30781	 95.95210	 50.13664	  5.61352	160.62154	700.71002	 43.90	
  5.104	 66.290	159.94116	 83.97514	 64.92970	 94.34090	 51.58984	  5.66583	160.69334	700.59998	 43.90	
  5.094	 47.331	159.87837	 90.53889	 58.79976	 90.15130	 55.41725	  5.67363	160.64847	700.62000	 43.90	
  5.089	 28.397	159.86693	 95.59603	 54.05101	 84.19310	 60.94716	  5.71499	160.69083	700.66998	 43.90	
  5.096	  9.576	159.85515	 98.52360	 51.28820	 76.87004	 67.73729	  5.68960	160.70197	700.67999	 43.90	
  5.096	 -9.576	159.89833	 98.80583	 50.91625	 68.60690	 75.71700	  5.70109	160.75510	700.76001	 44.00	
  5.089	-28.397	159.85010	 96.31528	 53.02402	 61.52316	 83.30722	  5.63869	160.70589	700.65997	 44.00	
  5.094	-47.331	159.85837	 91.64407	 57.28018	 55.48694	 90.00089	  5.63787	160.71222	700.70001	 44.00	
  5.104	-66.290	159.87068	 85.10582	 63.27613	 51.10243	 94.93900	  5.59763	160.69662	700.71002	 44.00	
  5.093	-85.207	159.89325	 77.44018	 70.24136	 48.94188	 97.40720	  5.55575	160.70256	700.64001	 44.10	
  5.105	-104.191	159.92194	 69.84816	 78.25076	 49.15277	 97.12285	  5.46088	160.70938	700.71997	 44.10	
  5.095	-123.033	160.02078	 63.00769	 85.70480	 51.86045	 94.05200	  5.39736	160.79166	700.69000	 44.20	
  5.109	-142.013	160.00479	 57.41215	 91.89165	 56.48814	 88.88398	  5.37948	160.75272	700.73999	 44.30	
  5.099	-161.165	160.01340	 53.79553	 96.21110	 62.83547	 82.00207	  5.33323	160.75493	700.71002	 44.40	
  5.100	180.000	160.03845	 52.26040	 97.93410	 70.00159	 74.40447	  5.22582	160.75476	700.75000	 44.50	
  6.800	180.000	158.96701	 44.36094	104.81258	 68.25603	 73.66455	  4.65522	160.77800	700.71997	 44.60	
  6.796	-166.229	158.96777	 45.37615	103.52512	 61.38681	 81.22549	  4.76123	160.82498	700.69000	 44.60	
  6.808	-152.311	158.92917	 48.03429	100.33678	 54.88921	 88.27712	  4.86047	160.78864	700.71997	 44.50	
  6.795	-138.383	158.90723	 52.22440	 95.28513	 49.36298	 94.45585	  4.87362	160.79518	700.66998	 44.50	
  6.792	-124.591	158.90884	 57.56457	 89.15271	 45.13253	 99.61430	  4.89298	160.85408	700.57001	 44.50	
  6.787	-110.754	158.83464	 63.98785	 82.21298	 42.16458	102.85075	  4.94964	160.80191	700.67999	 44.50	
  6.800	-96.985	158.80643	 71.03318	 74.32284	 40.86984	104.46762	  5.02252	160.82138	700.48999	 44.40	
  6.800	-83.015	158.78459	 78.45737	 66.79754	 41.13686	104.21461	  5.08137	160.83202	700.54999	 44.40	
  6.787	-69.246	158.78575	 85.86474	 60.37751	 43.14619	101.97923	  5.13962	160.86108	700.62000	 44.30	
  6.792	-55.409	158.83372	 92.52418	 54.27914	 46.81659	 97.88743	  5.20701	160.90102	700.65002	 44.30	
  6.795	-41.617	158.75990	 98.35179	 49.10020	 51.66485	 91.95274	  5.20565	160.85361	700.67999	 44.20	
  6.808	-27.689	158.79951	102.82616	 45.21097	 57.63288	 85.31689	  5.24165	160.89377	700.63000	 44.20	
  6.796	-13.771	158.84171	105.29565	 43.02939	 64.62463	 77.84538	  5.24858	160.88524	700.48999	 44.20	
  6.800	  0.000	158.84218	105.98820	 42.44648	 72.03670	 70.15177	  5.20660	160.88472	700.56000	 44.20	
  6.796	 13.771	158.85487	104.74535	 43.49499	 79.86178	 62.92891	  5.18358	160.86488	700.64001	 44.20	
  6.808	 27.689	158.92479	101.74142	 46.47133	 86.98357	 56.29944	  5.12560	160.92786	700.60999	 44.30	
  6.795	 41.617	158.95453	 96.95258	 50.93780	 93.11546	 50.56142	  5.05420	160.93898	700.64001	 44.30	
  6.792	 55.409	159.01021	 90.97610	 56.47158	 98.30629	 46.03372	  5.03001	160.93854	700.58002	 44.40	
  6.787	 69.246	159.11679	 84.34891	 62.71766	101.67784	 43.16036	  5.02292	161.00755	700.57001	 44.40	
  6.800	 83.015	159.13098	 76.91179	 69.45688	103.20931	 41.97188	  4.94806	160.97052	700.52002	 44.40	
  6.800	 96.985	159.13739	 69.45088	 77.72886	102.88757	 42.22766	  4.90522	160.97813	700.53003	 44.40	
  6.787	110.754	159.16512	 62.48656	 84.95501	100.51368	 44.37800	  4.90854	160.94855	700.58002	 44.40	
  6.792	124.591	159.24748	 56.15107	 91.77869	 96.46741	 48.20208	  4.89769	161.02136	700.64001	 44.40	
  6.795	138.383	159.20732	 51.11135	 97.61280	 90.68806	 53.13834	  4.81869	160.99559	700.53998	 44.40	
  6.808	152.311	159.22296	 47.26991	101.85716	 84.03817	 59.20805	  4.78187	160.99826	700.64001	 44.50	
  6.796	166.229	159.21408	 44.93152	104.38522	 76.51339	 66.29021	  4.68631	161.01707	700.59998	 44.50	
  8.491	168.704	157.67484	 36.84928	111.18871	 74.52699	 65.05112	  4.44267	161.02628	700.63000	 44.50	
  8.502	157.493	157.70482	 38.44322	109.13906	 82.55890	 57.78984	  4.50456	161.01570	700.67999	 44.50	
  8.494	146.194	157.70972	 41.74276	105.51791	 89.71069	 51.21538	  4.56550	161.03821	700.67999	 44.50	
  8.495	135.039	157.70032	 45.93764	100.63425	 96.28321	 45.65331	  4.59504	161.02318	700.59003	 44.60	
  8.487	123.723	157.69482	 51.26531	 94.35558	101.96055	 40.90718	  4.58243	161.01924	700.54999	 44.70	
  8.492	112.575	157.68376	 57.36575	 87.63827	105.97750	 37.33321	  4.51862	161.00725	700.53003	 44.70	
  8.510	101.220	157.66208	 64.29104	 80.33023	108.91387	 35.07055	  4.43575	161.04346	700.52002	 44.90	
  8.500	 90.000	157.64478	 71.64625	 71.93437	109.97786	 34.51221	  4.41621	161.01682	700.63000	 44.90	
  8.510	 78.780	157.56735	 79.23663	 64.26804	109.59454	 34.63798	  4.48111	161.00774	700.57001	 44.90	
  8.492	 67.425	157.53552	 86.81879	 57.87150	107.47347	 36.05888	  4.54286	161.04611	700.63000	 45.00	
  8.487	 56.277	157.53163	 93.52719	 51.58683	103.91314	 38.77687	  4.62917	161.06328	700.67999	 44.90	
  8.495	 44.961	157.49142	 99.80677	 45.92798	 99.04979	 42.72657	  4.69797	161.08664	700.57001	 44.90	
  8.494	 33.806	157.39542	105.04456	 40.97132	 92.87961	 48.15402	  4.79913	161.02599	700.59998	 44.90	
  8.502	 22.507	157.32196	109.06071	 37.36057	 86.28800	 54.19754	  4.91996	161.03111	700.54999	 44.80	
  8.491	 11.296	157.30286	111.69279	 35.29747	 78.96520	 60.97567	  4.97007	161.05571	700.64001	 44.80	
  8.500	  0.000	157.28639	112.87313	 34.54754	 70.78428	 68.45787	  5.03025	161.06348	700.58002	 44.90	
  8.491	-11.296	157.29137	112.19298	 34.97111	 63.43349	 76.12067	  5.10210	161.08978	700.59998	 44.80	
  8.502	-22.507	157.21489	110.12677	 36.43254	 56.35063	 83.87696	  5.14080	161.05093	700.63000	 44.90	
  8.494	-33.806	157.23100	106.45489	 39.47026	 49.89928	 91.05589	  5.12613	161.08246	700.51001	 45.00	
  8.495	-44.961	157.23724	101.65627	 43.69669	 44.24443	 97.77378	  5.07479	161.10204	700.64001	 45.00	
  8.487	-56.277	157.22906	 95.43945	 48.91203	 39.47779	103.20001	  5.04993	161.06921	700.65997	 45.00	
  8.492	-67.425	157.19463	 88.72852	 54.93908	 35.84930	107.46384	  4.98915	161.06436	700.57001	 45.00	
  8.510	-78.780	157.26492	 81.29607	 61.82185	 33.62648	110.45240	  4.95170	161.13405	700.56000	 45.00	
  8.500	-90.000	157.36742	 73.64544	 68.36613	 33.10930	111.46513	  4.89521	161.13924	700.48999	 44.90	
  8.510	-101.220	157.39244	 66.26933	 76.40807	 33.30576	111.03952	  4.84427	161.14282	700.60999	 45.00	
  8.492	-112.575	157.42223	 59.29046	 84.47894	 34.71405	108.95786	  4.74947	161.12311	700.47998	 45.00	
  8.487	-123.723	157.49254	 52.98221	 91.30244	 37.61418	105.41074	  4.67657	161.12328	700.54999	 45.00	
  8.495	-135.039	157.54924	 47.41260	 98.00517	 41.69333	100.46386	  4.67147	161.11720	700.59998	 45.00	
  8.494	-146.194	157.65648	 42.88377	103.46452	 46.94690	 94.53755	  4.62791	161.16528	700.62000	 45.10	
  8.502	-157.493	157.66747	 39.29124	107.78375	 53.00761	 87.68465	  4.61565	161.13913	700.71002	 45.10	
  8.491	-168.704	157.72856	 37.25760	110.52105	 59.72303	 80.45331	  4.53665	161.17041	700.59003	 45.20	
  8.500	180.000	157.70767	 36.37400	111.71053	 66.86704	 72.61060	  4.45362	161.10434	700.62000	 45.20	
 10.200	180.000	155.67918	 28.23624	118.22805	 64.92811	 71.17521	  4.58260	161.12173	700.57001	 45.20	
 10.191	-170.497	155.63966	 28.87885	117.12063	 57.51415	 78.98942	  4.64551	161.13440	700.59003	 45.10	
 10.210	-161.034	155.56943	 30.41930	114.60432	 50.60117	 86.61774	  4.75278	161.16850	700.60999	 45.10	
 10.194	-151.526	155.52104	 33.39990	110.74303	 44.18670	 93.65018	  4.72207	161.12331	700.64001	 45.20	
 10.190	-142.105	155.49168	 37.20822	105.86391	 38.45071	100.49568	  4.76881	161.15228	700.65997	 45.20	
 10.215	-132.646	155.33553	 42.03283	100.06979	 33.59926	106.28647	  4.82934	161.14702	700.53998	 45.30	
 10.203	-123.092	155.35052	 47.91832	 93.06268	 29.88650	111.03807	  4.84576	161.18021	700.53998	 45.30	
 10.192	-113.678	155.30403	 54.39712	 86.08947	 27.05844	114.60709	  4.90676	161.20282	700.51001	 45.50	
 10.208	-104.249	155.17502	 61.22250	 78.23046	 25.37672	117.04742	  4.96311	161.16312	700.46997	 45.50	
 10.210	-94.801	155.13579	 68.26703	 69.86714	 24.84559	118.12192	  4.98715	161.16331	700.54999	 45.50	
 10.210	-85.199	155.04893	 75.78694	 63.07060	 24.75749	117.81686	  5.07121	161.20428	700.50000	 45.40	
 10.208	-75.751	154.97444	 83.88404	 55.83025	 25.84022	115.95384	  5.08905	161.14522	700.59003	 45.50	
 10.192	-66.322	155.02446	 90.93353	 49.28933	 28.33014	112.89551	  5.12313	161.21588	700.60999	 45.50	
 10.203	-56.908	154.99080	 97.75903	 43.19299	 31.75825	108.41769	  5.12037	161.13191	700.47998	 45.60	
 10.215	-47.354	154.99937	104.13922	 37.83984	 36.28504	102.96511	  5.20100	161.11868	700.59998	 45.60	
 10.190	-37.895	155.01382	109.68969	 33.62096	 41.74301	 96.38930	  5.20670	161.14432	700.51001	 45.60	
 10.194	-28.474	155.01758	113.99245	 30.20055	 47.98214	 89.33303	  5.25469	161.14348	700.56000	 45.60	
 10.210	-18.966	155.08841	117.34172	 27.77660	 54.76562	 81.75339	  5.22757	161.14909	700.56000	 45.60	
 10.191	 -9.503	155.09180	118.82849	 26.83862	 62.01877	 73.90044	  5.18875	161.08878	700.54999	 45.60	
 10.200	  0.000	155.19934	119.36505	 26.63799	 69.44426	 66.27283	  5.14284	161.14078	700.59998	 45.50	
 10.191	  9.503	155.16353	118.42692	 27.22353	 77.55264	 58.63202	  5.06820	161.08714	700.54999	 45.50	
 10.210	 18.966	155.19614	116.00128	 28.96627	 85.18333	 51.75725	  4.98489	161.10243	700.53003	 45.50	
 10.194	 28.474	155.25137	112.30209	 32.00588	 92.12570	 45.46757	  4.87793	161.07249	700.48999	 45.50	
 10.190	 37.895	155.34665	107.66343	 35.81093	 98.99944	 39.84344	  4.74670	161.13763	700.46997	 45.50	
 10.215	 47.354	155.39122	102.02164	 40.17159	104.74285	 35.08501	  4.68124	161.15355	700.45001	 45.40	
 10.203	 56.908	155.39633	 95.25917	 46.41460	109.61382	 31.20987	  4.51399	161.09419	700.34998	 45.40	
 10.192	 66.322	155.47354	 88.41885	 52.83551	113.34119	 28.42364	  4.43907	161.12152	700.42999	 45.40	
 10.208	 75.751	155.61282	 81.20230	 59.65321	115.88579	 26.65521	  4.40778	161.17021	700.40997	 45.40	
 10.210	 85.199	155.69397	 73.36871	 66.43179	116.93443	 26.22392	  4.29850	161.16386	700.47998	 45.40	
 10.210	 94.801	155.76877	 65.97444	 74.55260	116.51810	 26.47170	  4.30243	161.17346	700.50000	 45.30	
 10.208	104.249	155.74883	 58.64762	 82.80399	114.68414	 27.60258	  4.28649	161.14276	700.52002	 45.30	
 10.192	113.678	155.80940	 51.90444	 90.09267	111.28064	 30.02846	  4.44333	161.18121	700.58002	 45.20	
 10.203	123.092	155.84109	 45.85392	 97.14436	107.04237	 33.47527	  4.55148	161.20409	700.58002	 45.20	
 10.215	132.646	155.83603	 40.45021	103.44201	101.68620	 37.84155	  4.78720	161.23402	700.53003	 45.20	
 10.190	142.105	155.85529	 36.05782	108.75874	 95.08674	 43.31335	  4.69613	161.22815	700.54999	 45.20	
 10.194	151.526	155.78329	 32.34278	113.01199	 88.04161	 49.42386	  4.63303	161.15947	700.46002	 45.20	
 10.210	161.034	155.79994	 29.69965	116.36870	 80.58534	 56.45056	  4.59624	161.20967	700.46997	 45.30	
 10.191	170.497	155.81816	 28.72842	117.94901	 72.19569	 63.66380	  4.58053	161.22374	700.51001	 45.30	
 11.899	171.783	153.24168	 19.82146	124.39738	 69.83926	 61.84152	  4.80131	161.19052	700.53998	 45.40	
 11.890	163.610	153.35304	 20.99677	122.96603	 77.70338	 54.53991	  4.84399	161.22998	700.45001	 45.40	
 11.889	155.445	153.41270	 22.95239	120.15469	 85.69472	 47.58184	  4.90864	161.22513	700.52002	 45.50	
 11.909	147.299	153.37059	 25.80653	116.33790	 93.04430	 41.00233	  5.04968	161.24484	700.46002	 45.50	
 11.902	139.148	153.29161	 29.67891	111.43273	100.33272	 34.97468	  4.99908	161.20815	700.52002	 45.50	
 11.894	130.867	153.40070	 34.69731	105.60382	106.57137	 29.81769	  4.92688	161.25818	700.42999	 45.50	
 11.897	122.732	153.38399	 40.03947	 99.49624	111.98553	 25.34774	  4.64719	161.25931	700.38000	 45.50	
 11.903	114.597	153.32716	 46.11890	 92.18800	116.53432	 22.00781	  4.68792	161.22075	700.41998	 45.50	
 11.893	106.346	153.39636	 52.98328	 84.85159	119.70023	 19.66329	  4.63994	161.28644	700.53998	 45.50	
 11.892	 98.155	153.36385	 60.20597	 76.68523	122.08372	 17.85403	  4.49367	161.25980	700.48999	 45.50	
 11.900	 90.000	153.33499	 67.42989	 68.25851	123.09059	 17.37180	  4.44921	161.25340	700.40002	 45.50	
 11.892	 81.845	153.21947	 74.72361	 61.64521	122.87716	 17.17600	  4.52639	161.26645	700.45001	 45.50	
 11.893	 73.654	153.15569	 82.69333	 54.29119	121.31875	 17.91393	  4.58077	161.29457	700.46002	 45.50	
 11.903	 65.403	153.00476	 90.12212	 47.30132	118.69099	 20.17381	  4.70711	161.28729	700.35999	 45.50	
 11.897	 57.268	152.98537	 97.01755	 40.93790	114.87228	 23.34474	  4.70895	161.29117	700.40997	 45.50	
 11.894	 49.133	152.87935	103.93651	 35.12236	109.96525	 26.90024	  4.92226	161.25865	700.44000	 45.50	
 11.902	 40.852	152.89708	109.85088	 30.34653	104.14333	 31.60260	  4.96580	161.24623	700.53003	 45.50	
 11.909	 32.701	152.78348	115.08351	 26.03571	 97.77811	 36.81184	  5.02536	161.26793	700.46002	 45.50	
 11.889	 24.555	152.77405	119.19886	 22.85340	 90.72076	 42.87174	  5.11878	161.24974	700.39001	 45.40	
 11.890	 16.390	152.64546	122.55840	 20.20981	 83.45666	 49.21170	  5.19671	161.30232	700.42999	 45.40	
 11.899	  8.217	152.62968	124.73801	 18.26703	 75.52298	 56.23982	  5.23947	161.29601	700.50000	 45.40	
 11.900	  0.000	152.56270	125.55269	 17.61253	 67.64994	 63.71351	  5.30951	161.23219	700.56000	 45.50	
 11.899	 -8.217	152.50992	125.13309	 17.76771	 60.30210	 71.41192	  5.34024	161.22676	700.42999	 45.50	
 11.890	-16.390	152.47919	123.57392	 18.81161	 52.98556	 79.28580	  5.30630	161.24533	700.45001	 45.50	
 11.889	-24.555	152.44379	120.94685	 20.81928	 45.98932	 87.09369	  5.32243	161.30840	700.42999	 45.50	
 11.909	-32.701	152.27541	117.07784	 23.42466	 39.28735	 94.42831	  5.32509	161.26402	700.44000	 45.50	
 11.902	-40.852	152.29039	112.34740	 26.98529	 33.47167	101.61427	  5.35708	161.28775	700.38000	 45.50	
 11.894	-49.133	152.29857	106.38773	 31.86239	 28.30736	107.87946	  5.36474	161.29504	700.40002	 45.50	
 11.897	-57.268	152.32431	 99.80496	 37.39299	 23.98827	113.30259	  5.33042	161.32265	700.44000	 45.50	
 11.903	-65.403	152.23813	 92.89577	 43.24368	 20.42651	117.72148	  5.23303	161.31493	700.46002	 45.50	
 11.893	-73.654	152.21596	 85.71796	 49.92740	 17.80221	121.21004	  5.20873	161.28140	700.50000	 45.50	
 11.892	-81.845	152.26427	 77.47889	 57.04391	 16.11689	123.61475	  5.17495	161.27777	700.53998	 45.50	
 11.900	-90.000	152.40147	 70.21504	 64.32391	 15.87714	124.62688	  5.17743	161.33200	700.47998	 45.40	
 11.892	-98.155	152.51125	 63.04785	 71.23685	 16.15233	124.43704	  5.19341	161.30998	700.44000	 45.50	
 11.893	-106.346	152.54994	 55.77824	 79.63083	 16.93230	122.79883	  5.13425	161.31174	700.41998	 45.50	
 11.903	-114.597	152.60634	 48.70619	 87.61230	 18.81872	120.08370	  5.10777	161.34149	700.48999	 45.50	
 11.897	-122.732	152.75444	 42.45212	 94.44527	 21.81794	116.26360	  5.13044	161.33543	700.46997	 45.50	
 11.894	-130.867	152.84747	 36.49298	101.76186	 25.49073	111.59146	  5.18102	161.33557	700.46997	 45.60	
 11.902	-139.148	152.96802	 31.34144	107.91865	 30.17243	105.66473	  4.94307	161.34215	700.47998	 45.60	
 11.909	-147.299	152.99374	 27.16045	113.26390	 35.33391	 99.33385	  4.94571	161.31757	700.46997	 45.60	
 11.889	-155.445	153.11331	 24.04115	117.74995	 41.50721	 92.19250	  4.91164	161.32176	700.62000	 45.70	
 11.890	-163.610	153.21870	 21.34867	121.26205	 48.17307	 84.99445	  4.96328	161.33673	700.46997	 45.70	
 11.899	-171.783	153.29163	 19.62603	123.69085	 55.22968	 77.17577	  4.87859	161.37198	700.44000	 45.80	
 11.900	180.000	153.35855	 19.34832	124.69440	 62.57833	 69.33997	  4.81008	161.34564	700.58002	 45.80	
 13.600	180.000	150.19614	 10.08906	130.16046	 59.84605	 66.90015	  4.99399	161.31490	700.54999	 45.80	
 13.608	-172.853	150.10956	 10.19365	129.36897	 52.48309	 74.62701	  5.02684	161.32381	700.62000	 45.90	
 13.611	-165.583	150.04552	 11.69025	127.42702	 45.16542	 82.68763	  5.20726	161.30203	700.54999	 45.90	
 13.601	-158.353	150.02570	 14.12392	124.13822	 38.36309	 90.40269	  5.10421	161.32585	700.46002	 45.80	
 13.609	-151.210	149.90082	 17.08980	119.92702	 32.19398	 97.45910	  5.13332	161.33371	700.51001	 45.80	
 13.611	-143.999	149.82137	 20.76774	114.87862	 26.47262	104.43752	  5.12558	161.31593	700.59003	 45.80	
 13.601	-136.825	149.72766	 25.37514	109.18335	 21.45036	110.78843	  5.12826	161.35469	700.62000	 45.80	
 13.596	-129.640	149.65448	 30.56272	103.11166	 16.82896	116.32911	  5.29292	161.40608	700.59003	 45.80	
 13.611	-122.431	149.40993	 36.57865	 95.62046	 11.85752	121.12196	  5.32415	161.32103	700.71997	 45.80	
 13.604	-115.211	149.31212	 43.03039	 88.57377	  8.82632	125.13783	  5.30119	161.34761	700.50000	 45.80	
 13.595	-108.042	149.22304	 49.74781	 80.69471	  6.76385	127.96111	  5.33546	161.36740	700.58002	 45.80	
 13.607	-100.793	149.18404	 56.97696	 72.31296	  5.58594	129.73633	  5.22621	161.41000	700.53998	 45.90	
 13.601	-93.617	149.07645	 64.41331	 64.99316	  5.39915	130.26379	  5.23090	161.37436	700.63000	 45.90	
 13.601	-86.383	148.94330	 71.60265	 57.75753	  5.41798	129.87408	  5.30756	161.35844	700.53998	 45.90	
 13.607	-79.207	148.94388	 79.11535	 50.52274	  6.17257	128.55728	  5.30512	161.38417	700.52002	 45.90	
 13.595	-71.958	148.92210	 87.29656	 43.51949	  8.02909	126.05695	  5.32937	161.36099	700.51001	 45.90	
 13.604	-64.789	148.94727	 94.36301	 37.10980	 10.93509	122.37466	  5.36968	161.39207	700.53998	 45.90	
 13.611	-57.569	148.93063	101.50699	 30.88828	 15.49271	117.80659	  5.38127	161.38463	700.59003	 46.00	
 13.596	-50.360	148.97484	108.19962	 25.34112	 19.80526	112.41555	  5.44902	161.37573	700.46997	 46.00	
 13.601	-43.175	148.98454	114.23728	 20.58623	 24.73340	106.15145	  5.41762	161.35115	700.46002	 46.00	
 13.611	-36.001	148.95158	119.55032	 15.77455	 30.50274	 99.32275	  5.39331	161.34352	700.47998	 46.00	
 13.609	-28.790	149.05666	123.81468	 12.13605	 36.87662	 91.98815	  5.34060	161.32878	700.62000	 46.00	
 13.601	-21.647	149.21416	127.37045	  9.96190	 43.61790	 84.37321	  5.36484	161.35835	700.46997	 46.00	
 13.611	-14.417	149.26802	129.75465	  8.39880	 50.89231	 76.14979	  5.35802	161.38432	700.56000	 46.10	
 13.608	 -7.147	149.31863	130.92732	  7.84745	 58.33766	 68.15883	  5.38222	161.35432	700.52002	 46.10	
 13.600	  0.000	149.44489	131.08664	  7.91571	 65.61562	 60.91247	  5.33776	161.36662	700.54999	 46.10	
 13.608	  7.147	149.46867	130.30130	  8.13303	 73.24780	 53.46008	  5.33862	161.36250	700.57001	 46.10	
 13.611	 14.417	149.42874	128.59328	  9.48461	 81.31316	 46.11758	  5.31894	161.37125	700.56000	 46.10	
 13.601	 21.647	149.54189	125.66779	 12.08034	 89.07239	 39.61452	  5.27374	161.36122	700.46997	 46.10	
 13.609	 28.790	149.58061	121.84617	 16.06584	 95.98018	 33.45082	  5.23607	161.36678	700.46997	 46.10	
 13.611	 36.001	149.70129	117.12962	 19.87445	103.19629	 27.77231	  5.21437	161.39079	700.52002	 46.10	
 13.601	 43.175	149.76427	111.50282	 24.30556	109.27193	 22.82416	  5.13584	161.36182	700.40002	 46.10	
 13.596	 50.360	149.83234	105.25572	 29.49471	114.88811	 18.40614	  5.09981	161.39206	700.48999	 46.00	
 13.611	 57.569	149.87901	 98.27294	 35.21165	119.82944	 13.78079	  4.97487	161.41710	700.46997	 46.00	
 13.604	 64.789	150.02313	 91.14645	 41.68805	123.64841	 10.80196	  4.93246	161.41479	700.45001	 46.00	
 13.595	 71.958	150.12767	 83.66319	 48.56096	126.55019	  8.83677	  4.90274	161.40344	700.45001	 46.10	
 13.607	 79.207	150.18742	 75.69047	 55.86782	128.31702	  7.81762	  4.78025	161.40967	700.52002	 46.10	
 13.601	 86.383	150.36960	 68.43382	 63.11198	128.93677	  7.82411	  4.75793	161.46367	700.44000	 46.10	
 13.601	 93.617	150.44951	 61.13269	 70.16967	128.57329	  7.92560	  4.88256	161.43774	700.38000	 46.20	
 13.607	100.793	150.41301	 53.82304	 78.66609	127.16425	  8.92199	  4.75071	161.40117	700.45001	 46.20	
 13.595	108.042	150.43602	 46.99388	 86.66595	124.57443	 10.59822	  4.91373	161.36786	700.46002	 46.20	
 13.604	115.211	150.46414	 40.32760	 94.08796	120.89798	 13.54998	  4.89743	161.38037	700.42999	 46.30	
 13.611	122.431	150.41675	 33.95979	101.25519	116.56302	 17.23144	  4.81806	161.37175	700.48999	 46.20	
 13.596	129.640	150.41364	 28.30159	107.71215	111.07645	 21.58435	  4.83322	161.39563	700.48999	 46.20	
 13.601	136.825	150.41980	 23.32837	113.67649	104.83548	 26.57823	  5.08302	161.40111	700.59003	 46.20	
 13.611	143.999	150.34625	 19.00227	118.82497	 97.99130	 32.25573	  5.20191	161.33134	700.46997	 46.20	
 13.609	151.210	150.51141	 15.85609	123.35125	 90.56854	 38.77710	  5.24413	161.39574	700.46002	 46.20	
 13.601	158.353	150.52927	 13.31295	126.79039	 83.05671	 45.35534	  5.14284	161.41245	700.42999	 46.20	
 13.611	165.583	150.35800	 11.36970	129.07567	 74.54813	 52.28746	  5.04055	161.40245	700.63000	 46.20	
 13.608	172.853	150.31795	 10.50763	130.19270	 67.07419	 59.83685	  4.99540	161.41628	700.59003	 46.30	
 15.298	173.587	146.84865	  1.64482	135.50966	 63.75750	 57.10949	  5.07242	161.37300	700.53003	 46.20	
 15.291	167.167	146.85941	  2.16873	134.54575	 71.18210	 49.98179	  5.10360	161.39058	700.53998	 46.20	
 15.307	160.676	146.90630	  3.63462	132.53470	 79.14150	 43.07524	  5.15597	161.39307	700.53998	 46.20	
 15.300	154.261	146.99034	  5.87569	129.53813	 87.44487	 36.19173	  5.29412	161.39444	700.50000	 46.20	
 15.288	147.854	147.01962	  8.71226	125.68024	 94.97762	 29.69361	  5.32539	161.40033	700.53003	 46.10	
 15.293	141.428	147.09842	 12.16373	120.71405	102.62605	 23.55407	  5.10007	161.45024	700.58002	 46.00	
 15.299	134.985	147.07283	 16.75393	115.15556	109.06683	 17.88996	  4.94209	161.40700	700.52002	 46.00	
 15.305	128.583	147.05147	 21.72108	109.10882	115.21767	 12.96294	  4.79484	161.42795	700.56000	 46.00	
 15.309	122.142	147.03857	 27.55622	102.61989	120.54709	  8.71855	  4.84002	161.41057	700.52002	 46.10	
 15.304	115.711	147.10713	 33.95992	 95.27749	125.13266	  5.32393	  4.99724	161.40665	700.52002	 46.20	
 15.297	109.291	147.08125	 40.60294	 87.95840	128.86449	  2.58408	  5.06889	161.43619	700.58002	 46.30	
 15.293	102.897	147.04131	 47.52001	 80.10484	131.53819	  0.84393	  5.12387	161.41035	700.59003	 46.30	
 15.293	 96.458	146.99777	 54.52433	 71.45670	133.48431	 -0.48239	  5.15406	161.42993	700.62000	 46.30	
 15.300	 90.000	146.88211	 61.88133	 63.98651	134.45282	 -0.99412	  5.07549	161.44643	700.57001	 46.20	
 15.293	 83.542	146.74289	 68.84185	 56.98296	134.28426	 -0.88077	  5.00181	161.40837	700.52002	 46.20	
 15.293	 77.103	146.65572	 76.37012	 49.65568	133.08455	 -0.32723	  5.07593	161.38319	700.62000	 46.10	
 15.297	 70.709	146.57158	 84.34902	 42.50800	130.96722	  0.95817	  5.09218	161.39983	700.67999	 46.10	
 15.304	 64.289	146.49057	 91.83577	 35.75371	128.10185	  2.89909	  5.06232	161.40323	700.53003	 46.20	
 15.309	 57.858	146.38809	 99.11278	 29.33278	124.14965	  5.35418	  5.19063	161.42639	700.51001	 46.20	
 15.305	 51.417	146.33391	106.15906	 23.36253	119.42374	  8.65971	  5.22511	161.41776	700.58002	 46.20	
 15.299	 45.015	146.27995	112.61057	 18.27941	113.82033	 13.18262	  5.29218	161.42647	700.58002	 46.30	
 15.293	 38.572	146.24956	118.50971	 12.86250	107.57624	 18.90776	  5.36675	161.41701	700.57001	 46.40	
 15.288	 32.146	146.15599	123.57420	  8.41973	100.80928	 24.29578	  5.31908	161.39665	700.51001	 46.40	
 15.300	 25.739	146.07903	127.98689	  5.01136	 93.79632	 30.10725	  5.28777	161.44328	700.54999	 46.30	
 15.307	 19.324	145.89984	131.32370	  2.30700	 86.43183	 36.39357	  5.23991	161.40001	700.47998	 46.40	
 15.291	 12.833	145.85867	134.00981	  0.57889	 78.28963	 43.24077	  5.30343	161.44319	700.56000	 46.40	
 15.298	  6.413	145.77380	135.77890	 -0.53403	 70.50990	 50.11413	  5.38134	161.41205	700.51001	 46.40	
 15.300	  0.000	145.76764	136.48174	 -0.75940	 63.05772	 57.54008	  5.37848	161.37093	700.59003	 46.40	
 15.298	 -6.413	145.70448	136.35373	 -0.83086	 55.91838	 64.89453	  5.39934	161.41530	700.39001	 46.50	
 15.291	-12.833	145.59380	135.33232	 -0.37538	 48.44194	 72.53323	  5.30151	161.42838	700.38000	 46.50	
 15.307	-19.324	145.48354	133.13960	  0.79564	 41.20523	 80.72205	  5.26929	161.40562	700.48999	 46.40	
 15.300	-25.739	145.39613	130.06726	  2.54710	 34.29819	 88.87756	  5.24970	161.39194	700.51001	 46.40	
 15.288	-32.146	145.30760	126.13353	  4.93896	 27.58216	 96.34368	  5.31028	161.39664	700.63000	 46.40	
 15.293	-38.572	145.26649	121.31982	  8.18150	 21.58215	103.86768	  5.35411	161.43892	700.52002	 46.50	
 15.299	-45.015	145.27368	115.63996	 12.50407	 16.14847	110.38537	  5.37982	161.39066	700.65997	 46.50	
 15.305	-51.417	145.23659	109.50031	 18.12927	 10.29569	116.36094	  5.36532	161.40918	700.65002	 46.60	
 15.309	-57.858	145.17847	102.59360	 24.37634	  5.54614	121.72520	  5.35945	161.38872	700.51001	 46.60	
 15.304	-64.289	145.19731	 95.45238	 30.47319	  2.13203	126.51085	  5.30528	161.41306	700.51001	 46.60	
 15.297	-70.709	145.16661	 88.22900	 36.97983	 -0.32145	130.23848	  5.23262	161.43237	700.53998	 46.60	
 15.293	-77.103	145.15526	 80.21432	 43.67722	 -1.96956	133.03423	  5.25576	161.41019	700.51001	 46.60	
 15.293	-83.542	145.15660	 72.20445	 50.89370	 -3.16863	134.96960	  5.30302	161.40967	700.59998	 46.60	
 15.300	-90.000	145.28281	 64.88020	 58.02867	 -3.37169	135.89902	  5.29737	161.41350	700.54999	 46.60	
 15.293	-96.458	145.30002	 57.83889	 65.39528	 -3.45816	135.72881	  5.28481	161.39613	700.57001	 46.60	
 15.293	-102.897	145.36487	 50.68993	 72.93965	 -2.82727	134.60962	  5.28478	161.40823	700.59003	 46.50	
 15.297	-109.291	145.50972	 43.83050	 81.19270	 -1.44319	132.42862	  5.30809	161.40131	700.53998	 46.50	
 15.304	-115.711	145.67871	 36.91401	 89.11359	  0.62657	129.66545	  5.34300	161.47139	700.52002	 46.50	
 15.309	-122.142	145.80530	 30.43145	 96.53417	  3.19259	125.74164	  5.32829	161.46158	700.52002	 46.50	
 15.305	-128.583	145.99438	 24.53615	103.83942	  6.84140	120.81820	  5.28370	161.46785	700.60999	 46.50	
 15.299	-134.985	146.18977	 18.94981	110.05656	 11.54370	115.38860	  5.20007	161.47603	700.59998	 46.50	
 15.293	-141.428	146.39662	 14.02550	116.13766	 17.76811	109.18887	  5.11227	161.46332	700.56000	 46.40	
 15.288	-147.854	146.45270	 10.26266	121.45962	 23.01647	102.82573	  5.13631	161.41751	700.64001	 46.40	
 15.300	-154.261	146.52736	  7.22579	126.33766	 28.76476	 95.22660	  5.10295	161.46181	700.53998	 46.40	
 15.307	-160.676	146.62434	  4.70184	129.98242	 35.22415	 87.96870	  5.15513	161.45248	700.48999	 46.50	
 15.291	-167.167	146.69604	  2.76955	132.76500	 42.20515	 79.91210	  5.23120	161.40858	700.56000	 46.50	
 15.298	-173.587	146.76981	  1.47643	134.79283	 49.39499	 72.00275	  5.16848	161.43245	700.57001	 46.50	
 15.300	180.000	146.80127	  1.24709	135.65390	 56.95075	 64.30444	  5.14131	161.43997	700.48999	 46.50	
 17.000	180.000	143.00340	 -7.64492	140.41035	 53.41436	 61.14090	  5.07154	161.44194	700.46002	 46.50	
 16.990	-174.179	142.89078	 -7.30680	139.52806	 46.03209	 68.98331	  5.03636	161.47511	700.51001	 46.60	
 17.009	-168.383	142.72685	 -6.33770	137.80214	 38.83987	 76.77681	  5.08409	161.47423	700.57001	 46.60	
 17.000	-162.596	142.67876	 -4.66604	135.26930	 31.75698	 84.68311	  5.04709	161.46460	700.59003	 46.60	
 16.990	-156.759	142.59515	 -2.20038	131.76625	 25.31228	 92.59062	  5.00040	161.43929	700.47998	 46.50	
 16.995	-150.919	142.60249	  0.82433	127.67445	 19.34307	 99.71555	  4.95890	161.46613	700.53998	 46.50	
 16.988	-145.161	142.46695	  4.08839	122.50050	 13.08987	107.06337	  4.98422	161.40715	700.53998	 46.50	
 17.014	-139.343	142.35693	  8.03300	116.86343	  7.20105	113.34733	  5.05023	161.45912	700.57001	 46.50	
 17.007	-133.546	142.16040	 12.43209	110.51550	  2.47054	119.44424	  5.04624	161.45055	700.59998	 46.50	
 17.001	-127.699	141.95586	 17.81586	103.98575	 -1.39885	124.90649	  5.11821	161.38960	700.63000	 46.50	
 17.006	-121.937	141.73486	 23.62085	 96.80070	 -4.30906	129.72955	  5.17964	161.39912	700.62000	 46.60	
 17.002	-116.134	141.54901	 30.53140	 89.23963	 -6.92309	133.56284	  5.19520	161.38788	700.59998	 46.50	
 17.001	-110.310	141.45227	 37.33608	 81.09584	 -9.18504	136.70151	  5.21662	161.45697	700.54999	 46.50	
 16.988	-104.517	141.30251	 44.50244	 73.42741	-10.94855	138.62935	  5.18653	161.44392	700.57001	 46.50	
 17.008	-98.662	141.13225	 51.78352	 65.19719	-12.06738	140.06807	  5.12656	161.41286	700.67999	 46.50	
 16.996	-92.909	141.08688	 58.43908	 57.54313	-12.23677	140.54323	  5.16620	161.46201	700.65997	 46.60	
 16.996	-87.091	140.97758	 64.93166	 51.08403	-12.18763	140.14926	  5.19183	161.43414	700.54999	 46.60	
 17.012	-81.253	140.82579	 72.69115	 43.84406	-11.57451	138.90216	  5.16020	161.42406	700.58002	 46.70	
 16.988	-75.483	140.89888	 80.85874	 36.82792	 -9.96469	136.88326	  5.17724	161.42395	700.53003	 46.70	
 17.001	-69.690	140.85417	 88.68462	 29.82674	 -7.98242	133.95483	  5.12479	161.43997	700.59003	 46.70	
 17.002	-63.866	140.89096	 96.21702	 23.48207	 -5.33757	130.14397	  5.18428	161.44426	700.64001	 46.60	
 17.006	-58.063	141.01662	103.30953	 16.70865	 -2.18636	125.41702	  5.21310	161.43922	700.60999	 46.60	
 17.001	-52.301	141.05695	110.19222	 10.73023	  1.43003	120.12608	  5.22048	161.40703	700.57001	 46.60	
 17.007	-46.454	141.10429	116.67225	  5.76304	  5.85757	114.17965	  5.20273	161.45668	700.63000	 46.60	
 17.014	-40.657	141.04994	122.45520	  1.45913	 11.55120	107.76107	  5.21120	161.43765	700.59998	 46.60	
 16.988	-34.839	141.19395	127.66938	 -1.46134	 18.40990	100.45447	  5.19745	161.43253	700.66998	 46.60	
 16.995	-29.081	141.28685	132.02988	 -3.98443	 24.61290	 93.22893	  5.19219	161.47916	700.54999	 46.50	
 16.990	-23.241	141.39400	135.47972	 -6.33321	 31.31683	 85.13012	  5.13524	161.43039	700.53998	 46.50	
 17.000	-17.404	141.54239	138.17566	 -8.07924	 38.70412	 76.99107	  5.15793	161.44772	700.64001	 46.50	
 17.009	-11.617	141.59540	140.06001	 -9.32213	 45.89629	 69.06809	  5.15065	161.45952	700.47998	 46.50	
 16.990	 -5.821	141.78044	140.96242	 -9.68830	 53.14181	 60.99944	  5.23523	161.47495	700.65997	 46.40	
 17.000	  0.000	141.78935	141.10164	 -9.73439	 60.01097	 53.95706	  5.27079	161.43964	700.71002	 46.40	
 16.990	  5.821	141.85277	140.40642	 -9.44892	 67.60855	 47.08486	  5.21681	161.44604	700.63000	 46.30	
 17.009	 11.617	141.83556	138.94249	 -8.38287	 75.17573	 39.84955	  5.17564	161.45047	700.65997	 46.30	
 17.000	 17.404	141.92393	136.71111	 -6.52296	 83.18892	 32.83695	  5.17631	161.42006	700.72998	 46.40	
 16.990	 23.241	142.12437	133.43646	 -4.12065	 91.19008	 26.39546	  5.22735	161.44818	700.60999	 46.40	
 16.995	 29.081	142.22276	129.59540	 -1.49616	 98.24823	 20.27891	  5.28896	161.47444	700.64001	 46.40	
 16.988	 34.839	142.31256	124.69597	  1.93804	105.49239	 14.57844	  5.24658	161.43571	700.62000	 46.40	
 17.014	 40.657	142.34045	119.24165	  5.96443	111.88920	  8.94735	  5.20368	161.45860	700.64001	 46.40	
 17.007	 46.454	142.43385	113.01975	 10.76388	118.06218	  4.22631	  5.15617	161.46344	700.59998	 46.40	
 17.001	 52.301	142.46286	106.58348	 16.78714	123.40894	  0.44143	  5.14642	161.47163	700.53998	 46.50	
 17.006	 58.063	142.48952	 99.27655	 23.06779	128.29500	 -2.56422	  5.08709	161.44185	700.63000	 46.50	
 17.002	 63.866	142.62637	 92.13454	 29.46580	132.11853	 -5.21822	  5.04213	161.49622	700.58002	 46.50	
 17.001	 69.690	142.70602	 84.32565	 36.39202	135.34323	 -7.53440	  4.98722	161.43082	700.57001	 46.50	
 16.988	 75.483	142.80664	 76.56594	 43.37527	137.45883	 -8.91122	  4.98657	161.45566	700.65002	 46.50	
 17.012	 81.253	142.82527	 68.92226	 50.42925	138.96178	 -9.83808	  5.02396	161.45438	700.59003	 46.60	
 16.996	 87.091	143.08209	 62.25498	 57.00241	139.45338	 -9.99011	  5.07089	161.48129	700.63000	 46.60	
 16.996	 92.909	143.17999	 54.98541	 64.95389	139.05186	 -9.82434	  5.11808	161.48372	700.54999	 46.60	
 17.008	 98.662	143.23228	 48.11364	 72.38242	137.89069	 -9.05352	  5.15803	161.50211	700.57001	 46.60	
 16.988	104.517	143.28558	 40.71745	 80.92101	135.67828	 -7.45016	  5.18580	161.48895	700.62000	 46.60	
 17.001	110.310	143.34451	 33.68059	 88.81187	132.69228	 -5.31247	  5.10151	161.47571	700.65997	 46.60	
 17.002	116.134	143.38380	 27.16302	 96.07005	128.87233	 -2.54462	  4.97776	161.42520	700.73999	 46.60	
 17.006	121.937	143.42134	 20.95233	103.70731	124.03587	  0.85144	  4.75596	161.44252	700.59003	 46.70	
 17.001	127.699	143.40630	 15.36849	110.07884	118.84137	  4.64215	  4.70073	161.43268	700.63000	 46.70	
 17.007	133.546	143.37764	 10.27966	116.39723	112.84726	  9.14238	  4.66771	161.43150	700.52002	 46.70	
 17.014	139.343	143.25279	  5.82199	122.11580	106.23473	 14.20101	  4.88064	161.38983	700.59998	 46.70	
 16.988	145.161	143.35487	  2.16188	127.42673	 99.09558	 20.24637	  5.10029	161.51933	700.64001	 46.70	
 16.995	150.919	143.34489	 -0.84431	131.55959	 91.68177	 26.56634	  5.22330	161.48926	700.62000	 46.70	
 16.990	156.759	143.31859	 -3.58621	135.09029	 83.66002	 33.35595	  5.17473	161.48964	700.59003	 46.60	
 17.000	162.596	143.26100	 -5.47980	137.70206	 75.23402	 40.56452	  5.08596	161.50587	700.53998	 46.70	
 17.009	168.383	143.11853	 -6.99698	139.49176	 67.60328	 47.63101	  4.94826	161.48143	700.53998	 46.70	
 16.990	174.179	143.16396	 -7.42248	140.42183	 60.04073	 54.52712	  4.95190	161.44559	700.54999	 46.70	
 18.709	174.675	138.48241	-16.45616	144.87386	 56.13168	 51.49619	  4.88836	161.40710	700.54999	 46.70	
 18.703	169.441	138.51974	-16.09666	144.14258	 63.39205	 44.70556	  4.80366	161.46617	700.59003	 46.80	
 18.691	164.085	138.69406	-14.70407	142.46907	 71.52354	 37.25417	  4.90935	161.44888	700.59003	 46.90	
 18.706	158.818	138.82645	-12.84809	140.11113	 79.18044	 30.31103	  5.00281	161.43399	700.56000	 47.00	
 18.695	153.537	138.95918	-10.28835	136.89844	 87.58304	 23.60065	  5.07874	161.45863	700.59003	 47.00	
 18.704	148.255	138.88560	 -7.46255	133.09619	 95.15689	 17.07532	  5.03301	161.42506	700.65002	 47.00	
 18.698	142.952	138.87958	 -4.20896	128.62607	102.59634	 10.90800	  4.80804	161.45023	700.66998	 47.00	
 18.699	137.625	138.86232	 -0.35707	122.98882	109.56776	  5.51020	  4.58190	161.41803	700.65002	 47.00	
 18.705	132.343	138.91872	  4.01417	117.03799	115.99113	  0.85964	  4.49477	161.40071	700.58002	 46.90	
 18.713	127.067	138.91853	  8.83243	110.57872	122.03903	 -3.44651	  4.60786	161.40692	700.58002	 46.90	
 18.700	121.794	138.96129	 14.27237	104.17406	127.35854	 -7.05321	  4.68919	161.42509	700.48999	 46.80	
 18.698	116.504	138.93661	 20.24685	 96.49374	131.97322	-10.30482	  4.82584	161.38329	700.59998	 46.80	
 18.707	111.165	138.91980	 26.75208	 89.07541	136.06158	-13.26175	  4.92619	161.48318	700.58002	 46.80	
 18.690	105.863	138.84894	 33.71687	 80.28938	139.10930	-15.45188	  5.01017	161.43694	700.62000	 46.80	
 18.696	100.583	138.79832	 40.76545	 73.05728	141.53151	-17.06654	  4.99448	161.45331	700.54999	 46.80	
 18.700	 95.309	138.70955	 48.17295	 65.09959	143.18047	-18.27762	  4.99563	161.46376	700.51001	 46.80	
 18.700	 90.000	138.53079	 55.41020	 56.97479	143.94327	-18.84773	  4.89100	161.42921	700.63000	 46.80	
 18.700	 84.691	138.48134	 62.28033	 50.04369	143.85045	-18.72744	  4.81507	161.46085	700.65002	 46.80	
 18.696	 79.417	138.40340	 68.53741	 44.11823	143.08725	-18.32623	  4.83965	161.45116	700.65002	 46.80	
 18.690	 74.137	138.35164	 76.42953	 37.04572	141.38425	-17.27775	  4.85701	161.47453	700.59003	 46.80	
 18.707	 68.835	138.13161	 84.24383	 29.70230	138.85701	-15.85060	  4.85397	161.43474	700.60999	 46.90	
 18.698	 63.496	138.07938	 92.07485	 23.03379	135.71304	-13.40279	  4.86208	161.46077	700.65002	 46.80	
 18.700	 58.206	138.00871	 99.05393	 15.96187	131.78459	-10.53562	  4.96031	161.43434	700.59998	 46.80	
 18.713	 52.933	137.85028	106.34956	  9.84323	127.08015	 -7.48340	  5.00335	161.38106	700.71002	 47.00	
 18.705	 47.657	137.80750	113.02908	  4.52057	121.63214	 -3.87336	  4.97240	161.38634	700.66998	 47.00	
 18.699	 42.375	137.83009	119.18790	 -0.08868	115.71523	  0.46250	  5.07694	161.41760	700.67999	 46.90	
 18.698	 37.048	137.74115	125.13822	 -4.34067	109.22987	  5.15527	  5.10432	161.45802	700.83002	 46.90	
 18.704	 31.745	137.65349	130.52167	 -7.60893	102.18018	 10.41879	  5.12363	161.45564	700.53998	 46.90	
 18.695	 26.463	137.65627	134.73315	-10.40210	 95.15394	 16.48060	  5.11818	161.43051	700.75000	 46.90	
 18.706	 21.182	137.44223	138.34813	-13.33139	 87.57047	 22.64259	  5.05492	161.36691	700.53998	 46.90	
 18.691	 15.915	137.30006	141.04008	-15.57136	 79.53506	 29.13830	  5.03945	161.36899	700.60999	 46.90	
 18.703	 10.559	137.16808	143.37755	-17.38412	 71.66826	 36.11512	  5.04295	161.38754	700.65997	 47.00	
 18.709	  5.325	137.04912	144.76553	-18.49462	 63.90099	 43.39226	  5.11168	161.35005	700.67999	 47.10	
 18.700	  0.000	137.00937	145.45766	-18.78975	 56.58555	 50.57674	  5.13498	161.39674	700.58002	 47.20	
 18.709	 -5.325	136.94440	145.32045	-18.72605	 50.09764	 57.04777	  5.11611	161.36682	700.69000	 47.20	
 18.703	-10.559	136.83148	144.49107	-18.28066	 43.03328	 64.52047	  5.10397	161.37241	700.65002	 47.20	
 18.691	-15.915	136.79015	142.86525	-17.19624	 35.35935	 72.97372	  5.08923	161.41292	700.64001	 47.20	
 18.706	-21.182	136.58633	140.37248	-15.77539	 28.32185	 80.77275	  5.03561	161.40976	700.59003	 47.10	
 18.695	-26.463	136.48697	137.24464	-13.43252	 21.65925	 88.88357	  5.06125	161.39093	700.67999	 47.10	
 18.704	-31.745	136.42253	133.30540	-10.70160	 14.60123	 96.59829	  5.08321	161.33694	700.57001	 47.20	
 18.698	-37.048	136.46014	128.64032	 -7.71230	  8.02814	103.74906	  5.10104	161.44037	700.64001	 47.10	
 18.699	-42.375	136.40121	123.01740	 -4.55176	  2.66168	110.70847	  5.09301	161.43462	700.67999	 47.10	
 18.705	-47.657	136.39862	117.05988	 -0.69781	 -1.99780	117.25852	  5.12138	161.40714	700.64001	 47.10	
 18.713	-52.933	136.27470	110.62191	  4.15159	 -6.18231	123.14989	  5.10394	161.40247	700.69000	 47.00	
 18.700	-58.206	136.24397	103.63070	  9.52645	 -9.77009	128.56967	  5.07122	161.36421	700.72998	 47.00	
 18.698	-63.496	136.22849	 96.49668	 15.64888	-12.88636	133.25726	  5.03960	161.41029	700.75000	 47.00	
 18.707	-68.835	136.18037	 88.87074	 22.81598	-15.83573	137.13301	  5.03761	161.44574	700.62000	 47.00	
 18.690	-74.137	136.19109	 81.13774	 29.67734	-18.04413	140.16376	  5.03168	161.44681	700.65997	 47.00	
 18.696	-79.417	136.17197	 73.08424	 36.60559	-19.74106	142.54303	  4.98190	161.42677	700.60999	 46.90	
 18.700	-84.691	136.18573	 65.13924	 44.10797	-20.90328	144.15094	  5.06396	161.45808	700.59003	 46.90	
 18.700	-90.000	136.19041	 57.89913	 50.89222	-21.38424	144.91530	  5.06327	161.40269	700.73999	 46.90	
 18.700	-95.309	136.27199	 52.24201	 57.01413	-21.13948	144.86345	  5.00632	161.37973	700.59998	 46.90	
 18.696	-100.583	136.49823	 44.76933	 64.93838	-20.54005	144.08708	  4.99697	161.45135	700.66998	 46.90	
 18.690	-105.863	136.48260	 37.61509	 72.98314	-19.37896	142.42177	  5.00651	161.40521	700.65997	 46.90	
 18.707	-111.165	136.61417	 30.55026	 80.63705	-17.48833	140.01877	  5.04335	161.41319	700.64001	 46.90	
 18.698	-116.504	136.85614	 23.16923	 89.06611	-14.91649	137.02562	  5.03677	161.40929	700.58002	 46.90	
 18.700	-121.794	137.00250	 17.10790	 96.56472	-12.23554	133.24724	  4.99880	161.39658	700.67999	 46.90	
 18.713	-127.067	137.17188	 11.53035	103.75840	 -9.12927	128.54124	  4.97767	161.40845	700.76001	 46.90	
 18.705	-132.343	137.37619	  6.68076	110.44608	 -5.49115	123.00987	  4.95323	161.41678	700.71997	 46.90	
 18.699	-137.625	137.55438	  2.21914	116.96119	 -1.46800	117.10796	  4.94572	161.41490	700.77002	 46.80	
 18.698	-142.952	137.74971	 -1.89677	122.94778	  3.12237	110.63906	  4.91043	161.41248	700.79999	 46.80	
 18.704	-148.255	137.92188	 -5.64408	128.40382	  8.49215	103.77338	  4.86827	161.43129	700.72998	 46.90	
 18.695	-153.537	137.98590	 -8.70040	132.97798	 14.94198	 96.57433	  4.80059	161.42239	700.63000	 46.90	
 18.706	-158.818	138.08621	-11.59115	136.79051	 21.70108	 89.07024	  4.86444	161.42838	700.73999	 47.00	
 18.691	-164.085	138.16698	-13.58511	139.79022	 28.21104	 81.21566	  4.92728	161.37939	700.67999	 47.00	
 18.703	-169.441	138.21059	-15.32296	142.34895	 35.07637	 73.18329	  5.00280	161.40279	700.70001	 47.00	
 18.709	-174.675	138.21687	-16.46717	144.00293	 42.35845	 65.34583	  4.99773	161.38080	700.63000	 47.00	
 18.700	180.000	138.40727	-16.48965	144.82306	 49.71304	 57.76226	  4.99059	161.38693	700.70001	 47.00	
 20.400	180.000	133.38983	-25.67345	148.57910	 45.70689	 54.29297	  4.89897	161.37297	700.75000	 47.00	
 20.401	-175.153	133.32645	-25.28413	147.84335	 38.48919	 61.53157	  4.91607	161.41055	700.69000	 47.10	
 20.407	-170.264	133.27554	-24.40952	146.32892	 31.29730	 69.42667	  4.87402	161.38460	700.73999	 47.10	
 20.410	-165.423	133.07997	-23.03967	144.20570	 24.27342	 77.31651	  4.88133	161.40009	700.72998	 47.20	
 20.392	-160.496	133.15977	-20.83060	141.10619	 16.84000	 85.04021	  4.79619	161.38092	700.81000	 47.20	
 20.401	-155.705	133.03519	-18.42796	137.62491	 10.22322	 92.88220	  4.76033	161.40356	700.81000	 47.20	
 20.405	-150.835	132.84956	-15.58997	133.44417	  4.36587	100.24339	  4.76667	161.41284	700.69000	 47.20	
 20.397	-145.903	132.78044	-12.08933	128.33003	 -0.90619	107.54012	  4.83255	161.39397	700.79999	 47.20	
 20.392	-141.062	132.58810	 -8.29540	122.65805	 -5.52928	114.08716	  4.82906	161.39290	700.76001	 47.10	
 20.396	-136.227	132.37732	 -4.07167	116.62559	 -9.79487	120.30210	  4.83452	161.41980	700.73999	 47.10	
 20.408	-131.372	132.01373	  0.37003	110.01160	-13.94458	126.05637	  4.85585	161.36540	700.78003	 47.10	
 20.410	-126.511	131.82655	  5.65136	102.92499	-17.46649	131.49171	  4.86837	161.33856	700.72998	 47.10	
 20.400	-121.604	131.70383	 11.23450	 95.75499	-20.53927	136.16982	  4.89076	161.38646	700.71002	 47.10	
 20.403	-116.741	131.47745	 16.77843	 88.13931	-23.26864	139.88504	  5.00521	161.42366	700.81000	 47.10	
 20.413	-111.900	131.16998	 22.66413	 80.07748	-25.57636	143.16774	  4.94141	161.35403	700.75000	 47.10	
 20.398	-107.004	131.04955	 30.27689	 72.05916	-27.60512	145.67406	  4.89435	161.36603	700.82001	 47.10	
 20.394	-102.132	130.97519	 37.51355	 64.14662	-29.00411	147.39410	  4.93515	161.38063	700.75000	 47.10	
 20.403	-97.332	130.86479	 44.75917	 56.35736	-29.83664	148.43198	  4.95800	161.37131	700.79999	 47.10	
 20.392	-92.440	130.82904	 51.63357	 49.50589	-30.14627	148.76582	  4.97903	161.37404	700.81000	 47.10	
 20.392	-87.560	130.68608	 57.57178	 43.37893	-30.02000	148.39314	  4.95871	161.35146	700.66998	 47.10	
 20.403	-82.668	130.69774	 64.91710	 36.08263	-29.19177	147.37228	  4.97588	161.35701	700.72998	 47.10	
 20.394	-77.868	130.72433	 72.81596	 29.23821	-27.88744	145.56635	  4.94525	161.31831	700.78998	 47.20	
 20.398	-72.996	130.79395	 80.73510	 22.10444	-26.01630	142.99362	  4.93789	161.31715	700.81000	 47.20	
 20.413	-68.100	130.85898	 88.49750	 14.90874	-23.65594	139.71825	  4.92468	161.38118	700.77002	 47.20	
 20.403	-63.259	130.81656	 96.19561	  8.58807	-20.94959	136.01370	  4.97037	161.37051	700.78998	 47.30	
 20.400	-58.396	130.91008	103.36321	  3.10953	-17.75532	131.37602	  4.98095	161.36258	700.87000	 47.30	
 20.410	-53.489	130.86043	110.48083	 -2.11915	-14.20020	125.82905	  4.98002	161.32892	700.73999	 47.30	
 20.408	-48.628	130.80775	117.06767	 -6.90223	-10.27733	119.94392	  4.96483	161.31429	700.83002	 47.30	
 20.396	-43.773	130.98759	123.18878	-10.64212	 -5.57214	113.59896	  4.97954	161.37759	700.79999	 47.30	
 20.392	-38.938	130.99739	128.74815	-14.20759	 -0.73534	106.93772	  4.97269	161.36557	700.73999	 47.40	
 20.397	-34.097	131.06427	133.81111	-17.45633	  4.57361	 99.85519	  4.96537	161.43004	700.87000	 47.40	
 20.405	-29.165	131.14037	138.21014	-20.40148	 10.49259	 92.18185	  4.94304	161.34972	700.83002	 47.40	
 20.401	-24.295	131.27066	141.75612	-22.74200	 17.74773	 84.15070	  4.94973	161.36621	700.85999	 47.40	
 20.392	-19.504	131.28723	144.72847	-24.71925	 24.81218	 76.42849	  4.90856	161.39807	700.83002	 47.30	
 20.410	-14.577	131.50323	146.93475	-26.08028	 32.09517	 68.13845	  4.91615	161.42400	700.76001	 47.30	
 20.407	 -9.736	131.57748	148.30261	-27.01761	 39.29710	 60.35736	  4.98971	161.36287	700.82001	 47.20	
 20.401	 -4.847	131.70386	149.02626	-27.56156	 46.99708	 53.12213	  4.98739	161.32806	700.78003	 47.20	
 20.400	  0.000	131.76843	149.14769	-27.72500	 52.94865	 46.76327	  5.02467	161.37720	700.72998	 47.20	
 20.401	  4.847	131.79678	148.50682	-27.17728	 59.96465	 39.41329	  5.01965	161.33554	700.72998	 47.20	
 20.407	  9.736	131.86284	147.29468	-26.18340	 67.84328	 32.21705	  4.98324	161.38060	700.81000	 47.20	
 20.410	 14.577	131.97661	145.28172	-24.62840	 75.67982	 25.17381	  4.91136	161.32639	700.82001	 47.30	
 20.392	 19.504	132.09027	142.57784	-22.54914	 83.46309	 18.16614	  4.93808	161.33197	700.75000	 47.30	
 20.401	 24.295	132.19569	139.22990	-20.15148	 91.35585	 12.03413	  4.90491	161.27361	700.72998	 47.40	
 20.405	 29.165	132.37544	135.28123	-17.17908	 98.63863	  6.30593	  4.95260	161.32855	700.88000	 47.40	
 20.397	 34.097	132.52350	130.33612	-13.94982	106.00247	  1.00649	  4.94403	161.31621	700.77002	 47.30	
 20.392	 38.938	132.59930	124.84408	-10.54767	112.60840	 -3.79815	  4.89161	161.32419	700.81000	 47.40	
 20.396	 43.773	132.65245	118.88731	 -6.42007	118.93115	 -8.32293	  4.87956	161.30734	700.78003	 47.40	
 20.408	 48.628	132.73254	112.49036	 -1.66671	124.80514	-12.31892	  4.82781	161.33453	700.84003	 47.40	
 20.410	 53.489	132.73239	105.62190	  3.55706	130.20782	-15.87492	  4.77828	161.30597	700.75000	 47.50	
 20.400	 58.396	132.94398	 98.34726	  9.27777	134.84174	-18.84331	  4.75858	161.29645	700.96002	 47.50	
 20.403	 63.259	132.99730	 91.10011	 15.36784	138.68216	-21.53552	  4.65957	161.27518	700.92999	 47.40	
 20.413	 68.100	132.99236	 83.48701	 22.97193	141.97137	-24.02748	  4.71414	161.26007	700.79999	 47.40	
 20.398	 72.996	133.18988	 75.46838	 29.95608	144.61295	-25.66949	  4.70730	161.26450	700.83002	 47.40	
 20.394	 77.868	133.26538	 67.81120	 36.92779	146.38818	-26.81489	  4.67574	161.27861	700.78998	 47.40	
 20.403	 82.668	133.37573	 60.71745	 44.16761	147.49220	-27.50259	  4.74089	161.33948	700.88000	 47.50	
 20.392	 87.560	133.41557	 54.95630	 49.81036	147.76050	-27.69974	  4.68931	161.27295	700.71002	 47.50	
 20.392	 92.440	133.54512	 47.77106	 57.07112	147.40300	-27.43912	  4.73542	161.25865	700.76001	 47.50	
 20.403	 97.332	133.63223	 40.31108	 64.95213	146.41498	-26.59936	  4.84666	161.28810	700.84998	 47.50	
 20.394	102.132	133.81075	 33.18385	 73.06806	144.66570	-25.27670	  4.89056	161.32922	700.79999	 47.50	
 20.398	107.004	133.92685	 26.14312	 80.56889	142.01779	-23.42561	  4.84409	161.31461	700.84998	 47.40	
 20.413	111.900	133.95383	 19.43499	 89.07146	138.62097	-21.21347	  4.81928	161.29584	700.78998	 47.40	
 20.403	116.741	134.03285	 13.19323	 96.45856	134.69902	-18.29581	  4.78534	161.28273	700.81000	 47.50	
 20.400	121.604	134.17996	  7.72186	103.88960	130.11354	-15.07954	  4.69543	161.35345	700.73999	 47.50	
 20.410	126.511	134.16261	  2.36307	110.71632	124.61400	-11.58339	  4.54092	161.32483	700.89001	 47.40	
 20.408	131.372	134.18988	 -2.48402	117.28218	118.76508	 -7.50068	  4.52704	161.35083	700.79999	 47.40	
 20.396	136.227	134.15291	 -6.91499	123.36844	112.36356	 -2.86563	  4.47814	161.36049	700.84998	 47.30	
 20.392	141.062	134.11772	-10.69551	129.05559	105.65820	  2.10906	  4.53333	161.31720	700.78998	 47.30	
 20.397	145.903	134.12097	-14.06575	133.90115	 98.39347	  7.64310	  4.77265	161.32120	700.77002	 47.30	
 20.405	150.835	134.07547	-17.10658	137.97665	 90.88381	 13.55110	  4.89908	161.30693	700.90002	 47.30	
 20.401	155.705	134.05290	-19.92705	141.67097	 82.45365	 20.08058	  4.93777	161.35019	700.87000	 47.30	
 20.392	160.496	133.84190	-22.13886	144.47627	 74.91958	 26.72227	  4.83378	161.29843	700.95001	 47.20	
 20.410	165.423	133.60201	-23.95035	146.64323	 66.71533	 33.90655	  4.77817	161.32898	700.94000	 47.20	
 20.407	170.264	133.52974	-25.09882	147.99638	 58.82735	 41.01066	  4.73907	161.35495	700.85999	 47.20	
 20.401	175.153	133.45143	-25.44451	148.63499	 52.06342	 47.75780	  4.82879	161.37697	700.85999	 47.20	
  0.141	 45.000	161.50134	 77.24294	 74.96760	 73.80829	 74.54895	  6.75640	161.34348	700.82001	 47.20	
  4.001	128.691	161.12392	 64.16406	 87.02285	 86.71097	 60.46995	  5.93542	161.32538	700.87000	 47.20	
  4.002	 76.995	161.03406	 79.56697	 70.90458	 91.37365	 56.07512	  6.08467	161.30219	700.84998	 47.20	
  4.002	 25.892	160.98938	 92.58525	 58.57605	 81.67272	 64.97232	  6.09349	161.30360	700.81000	 47.10	
  4.002	-25.892	160.97963	 93.06196	 57.84439	 65.00717	 81.42188	  6.04584	161.32053	700.87000	 47.20	
  4.002	-76.995	161.03621	 80.44599	 69.41464	 54.86754	 92.56241	  5.95460	161.34264	700.90997	 47.10	
  4.001	-128.691	161.07063	 64.88535	 85.64455	 57.69711	 89.38746	  5.83490	161.30568	700.84998	 47.20	
  4.000	180.000	161.12152	 57.94076	 93.62016	 71.24686	 74.88728	  5.74781	161.36612	700.90002	 47.20	
  8.000	180.000	158.45447	 38.81177	109.98371	 67.38773	 73.11655	  4.44404	161.35648	700.82001	 47.10	
  7.991	-152.370	158.41478	 43.28597	104.50119	 51.63887	 90.36732	  4.66084	161.34296	700.88000	 47.10	
  7.997	-124.550	158.25433	 54.21379	 91.19490	 39.96001	103.84656	  4.68772	161.36475	700.78998	 47.10	
  8.006	-96.837	158.11829	 69.94289	 73.57793	 35.45825	109.59298	  4.85632	161.31578	700.82001	 47.10	
  7.988	-69.228	158.07120	 87.36120	 57.44783	 37.81621	106.52769	  5.01475	161.34500	700.84998	 47.10	
  7.997	-41.563	158.06000	102.03578	 44.39412	 47.72290	 94.87210	  5.06974	161.32495	700.82001	 47.10	
  8.008	-13.821	158.07277	110.25752	 37.56194	 62.82349	 78.08479	  5.15033	161.30754	700.90002	 47.20	
  8.008	 13.821	158.16995	109.61627	 38.02327	 80.85704	 60.49974	  4.99665	161.33791	700.88000	 47.30	
  7.997	 41.563	158.21103	100.39945	 46.50617	 96.26395	 46.06158	  4.76502	161.30042	700.82001	 47.40	
  7.988	 69.228	158.30463	 85.37943	 60.22479	106.31454	 37.89412	  4.62783	161.28674	700.84998	 47.40	
  8.006	 96.837	158.45653	 67.93182	 77.69807	107.89217	 36.95575	  4.51921	161.35301	700.89001	 47.40	
  7.997	124.550	158.54643	 52.53663	 94.21431	100.32079	 43.40706	  4.66415	161.37149	700.90997	 47.40	
  7.991	152.370	158.51961	 42.16854	106.22084	 85.44474	 56.24788	  4.52482	161.34517	700.95001	 47.40	
 12.009	161.059	153.30283	 20.89271	122.72475	 80.51337	 52.02181	  4.85277	161.35049	700.94000	 47.40	
 12.013	142.081	153.29285	 27.69280	113.76379	 98.00246	 36.72828	  5.00619	161.39650	700.84998	 47.50	
 12.006	123.113	153.29250	 39.53579	 99.88412	112.09641	 25.05811	  4.68249	161.32402	700.96002	 47.60	
 12.007	104.200	153.19962	 54.59569	 82.69420	120.98522	 18.39168	  4.53610	161.31357	700.98999	 47.60	
 11.989	 85.301	153.18025	 71.66298	 64.35159	123.54544	 16.65745	  4.51897	161.35831	701.03003	 47.60	
 12.013	 66.294	152.84613	 89.46387	 47.67536	119.27827	 19.28742	  4.76112	161.31227	701.01001	 47.50	
 12.012	 47.388	152.75925	105.45715	 33.59583	109.02462	 27.39241	  4.95664	161.32536	700.94000	 47.50	
 11.990	 28.440	152.72299	117.59838	 23.83757	 94.10122	 39.72002	  5.08665	161.35159	700.94000	 47.40	
 11.991	  9.464	152.45869	124.77612	 18.09103	 76.72911	 54.89502	  5.26683	161.26485	700.92999	 47.40	
 11.991	 -9.464	152.37256	125.45361	 17.31365	 58.92590	 72.53689	  5.33726	161.33600	700.90002	 47.40	
 11.990	-28.440	152.23370	119.55582	 21.60026	 42.42820	 90.70448	  5.29533	161.30493	700.84003	 47.40	
 12.012	-47.388	152.11742	107.93596	 30.33060	 28.81388	106.81733	  5.38333	161.32849	700.84003	 47.40	
 12.013	-66.294	152.02931	 92.13915	 43.60934	 19.53440	118.53732	  5.27623	161.30495	700.81000	 47.30	
 11.989	-85.301	152.14108	 74.23676	 59.98930	 15.31335	124.53803	  5.19123	161.30743	700.87000	 47.30	
 12.007	-104.200	152.34283	 57.42765	 77.04642	 16.06919	123.80984	  5.14192	161.35645	700.73999	 47.30	
 12.006	-123.113	152.56464	 41.77684	 94.86385	 21.50431	116.37269	  5.19906	161.30608	700.89001	 47.40	
 12.013	-142.081	152.79951	 29.21486	110.20613	 31.61681	103.50881	  4.95496	161.33232	700.81000	 47.50	
 12.009	-161.059	153.00194	 21.40311	120.66685	 45.82653	 87.27249	  5.07951	161.34067	700.89001	 47.50	
 16.000	180.000	145.12761	 -2.39690	137.45113	 55.55190	 62.99148	  5.10609	161.34190	700.87000	 47.50	
 15.990	-165.604	144.97488	 -0.48464	134.05968	 38.52224	 81.25915	  5.14295	161.34911	700.87000	 47.50	
 16.002	-151.165	144.73157	  5.26322	125.65100	 23.28438	 98.90626	  5.04025	161.31129	700.87000	 47.50	
 16.002	-136.836	144.56122	 14.10919	112.79719	  9.75033	114.65948	  5.13129	161.33417	700.81000	 47.50	
 15.995	-122.439	144.10863	 27.36995	 97.04324	  0.05910	127.09280	  5.24896	161.29738	700.84003	 47.50	
 15.993	-107.966	143.80342	 43.11367	 78.65297	 -5.16049	134.88985	  5.25601	161.28458	701.08002	 47.50	
 16.005	-93.629	143.59608	 59.71284	 60.39861	 -7.07751	137.53503	  5.24359	161.27148	700.91998	 47.50	
 15.992	-79.234	143.42389	 76.91805	 43.99974	 -6.00870	135.67181	  5.25060	161.29640	701.03998	 47.50	
 16.009	-64.774	143.42502	 94.87169	 28.11270	 -1.47726	128.51704	  5.20835	161.31767	701.04999	 47.50	
 15.997	-50.364	143.68211	111.26546	 13.56108	  7.54594	116.61973	  5.26118	161.32057	701.01001	 47.40	
 15.997	-36.045	143.61821	124.44592	  3.44488	 20.99094	101.29623	  5.22625	161.24506	701.03998	 47.50	
 16.000	-21.597	143.90602	133.79265	 -1.94492	 36.64908	 83.36253	  5.19376	161.28229	701.12000	 47.50	
 16.003	 -7.169	144.12877	137.95892	 -4.44732	 53.55511	 64.59884	  5.28713	161.29877	701.02002	 47.40	
 16.003	  7.169	144.22531	137.47772	 -4.06184	 70.65926	 47.45812	  5.29640	161.30315	701.12000	 47.40	
 16.000	 21.597	144.33980	131.83055	 -0.24301	 89.15904	 31.58142	  5.27171	161.26413	701.03998	 47.40	
 15.997	 36.045	144.47311	121.84324	  7.33689	105.87243	 17.68562	  5.33637	161.30797	701.03003	 47.30	
 15.997	 50.364	144.55899	107.63753	 19.66879	119.93459	  5.93056	  5.20833	161.31071	700.92999	 47.30	
 16.009	 64.774	144.75687	 91.08846	 33.95117	130.14264	 -0.78586	  5.10977	161.31923	701.02002	 47.30	
 15.992	 79.234	144.98328	 72.82523	 50.39852	135.62450	 -4.39317	  5.02803	161.32346	700.96002	 47.30	
 16.005	 93.629	145.26756	 55.93237	 67.32500	135.98186	 -4.58060	  5.13476	161.33774	700.96997	 47.40	
 15.993	107.966	145.39044	 39.77916	 86.03092	131.28964	 -1.35113	  5.13632	161.33896	700.91998	 47.50	
 15.995	122.439	145.47964	 24.39424	103.45669	121.56877	  5.84359	  4.85800	161.35049	701.06000	 47.50	
 16.002	136.836	145.38251	 11.93050	118.05309	107.93521	 16.42198	  4.88285	161.29475	700.98999	 47.50	
 16.002	151.165	145.33807	  3.67676	129.41431	 91.12969	 30.39055	  5.25675	161.30612	701.03003	 47.60	
 15.990	165.604	145.24562	 -1.19270	135.94052	 72.27142	 46.72001	  5.06821	161.32408	700.96002	 47.70	
 20.003	168.362	134.82495	-22.52980	146.68555	 62.74057	 39.31833	  4.77370	161.32495	700.90002	 47.60	
 20.008	156.764	135.10495	-18.52430	141.53465	 81.06911	 22.98927	  4.95546	161.27737	700.94000	 47.60	
 20.000	145.147	135.28192	-11.76387	132.65215	 99.59370	  8.24727	  4.79768	161.35712	700.96002	 47.60	
 19.995	133.545	135.33003	 -2.66854	119.65227	115.67382	 -3.74378	  4.48545	161.30586	700.95001	 47.50	
 20.009	121.926	135.32895	  9.01717	104.36306	129.26120	-13.23409	  4.65716	161.29988	700.90997	 47.50	
 20.005	110.327	135.23587	 22.97461	 87.00491	139.07407	-20.02200	  4.87227	161.33646	700.91998	 47.50	
 19.989	 98.733	135.02226	 39.46680	 68.06978	145.12305	-24.18128	  4.86101	161.33273	701.01001	 47.50	
 19.999	 87.075	134.73753	 56.60522	 50.05261	146.94000	-25.70345	  4.73608	161.32062	700.90997	 47.50	
 19.992	 75.457	134.56401	 72.20308	 34.68489	144.77397	-24.23938	  4.70205	161.30536	701.04999	 47.50	
 20.009	 63.844	134.29271	 90.55972	 17.88051	138.32921	-19.85862	  4.74939	161.27817	701.02002	 47.40	
 19.989	 52.269	134.22292	107.54562	  3.90426	128.26817	-12.96831	  4.79588	161.31824	701.03003	 47.50	
 19.999	 40.602	133.91751	122.53870	 -7.47269	114.51133	 -3.64392	  4.90883	161.29230	700.98999	 47.50	
 20.004	 29.051	133.75005	134.81682	-15.28189	 98.38754	  8.10959	  4.98144	161.29477	701.03003	 47.50	
 20.005	 17.433	133.40924	142.93735	-21.45432	 80.55165	 22.63679	  4.93013	161.26422	700.94000	 47.50	
 20.006	  5.780	133.01830	147.38708	-24.99146	 62.17211	 39.14444	  4.96370	161.25548	701.03003	 47.50	
 20.006	 -5.780	132.83737	148.04372	-25.42621	 46.53968	 55.38568	  5.03043	161.26987	700.94000	 47.50	
 20.005	-17.433	132.52155	144.90009	-23.39844	 29.09458	 73.43529	  4.95022	161.29498	701.08002	 47.50	
 20.004	-29.051	132.28317	137.60744	-18.44866	 12.51046	 92.11682	  5.00274	161.25519	701.14001	 47.40	
 19.999	-40.602	132.20268	126.36391	-11.22386	 -0.73249	109.21244	  4.96647	161.26932	701.07001	 47.40	
 19.989	-52.269	132.16733	111.96335	 -1.69531	-11.32068	123.87397	  4.98551	161.27628	700.95001	 47.40	
 20.009	-63.844	131.93121	 95.40602	 10.80150	-19.41103	135.73561	  5.00773	161.26619	700.95001	 47.40	
 19.992	-75.457	131.88707	 77.25618	 27.15385	-25.03872	143.46165	  4.91753	161.22899	700.91998	 47.40	
 19.999	-87.075	131.82878	 58.92334	 43.94381	-27.94655	147.37848	  4.99021	161.24825	700.96997	 47.40	
 19.989	-98.733	132.06242	 43.60645	 59.51250	-27.52276	147.17326	  4.90327	161.25063	700.91998	 47.40	
 20.005	-110.327	132.32741	 26.54627	 78.01267	-24.27743	143.17473	  4.93710	161.25723	701.03003	 47.30	
 20.009	-121.926	132.87851	 12.32300	 96.30888	-18.41167	135.15192	  4.96447	161.26379	701.01001	 47.30	
 19.995	-133.545	133.36971	  0.19489	112.69365	-10.36283	123.09320	  4.87267	161.28984	700.92999	 47.30	
 20.000	-145.147	133.81078	 -9.63442	126.85033	 -0.12175	108.51427	  4.82486	161.25351	700.96002	 47.40	
 20.008	-156.764	134.15109	-17.10359	137.64944	 13.35987	 91.37073	  4.76885	161.28595	701.09003	 47.40	
 20.003	-168.362	134.23897	-21.91229	144.67010	 29.80257	 72.95177	  4.89810	161.25798	701.06000	 47.50	
 20.000	180.000	134.50861	-23.55058	147.64243	 46.74141	 55.04235	  4.85567	161.28854	701.09003	 47.50	
