FileType=PCF
NHL=14
Date=03/18/19	10:07:03
Facility=APL
Serial=16071-8
Customer=NASA
NP=6
Mach=0.450000
Calibration=1:1
CalPts=490
TstPts=95
PortNumbering=AP Standard
Units=Torr C m/s kg/m^3 deg mm 
Theta[deg]	Phi[deg]	P1[Torr]	P2[Torr]	P3[Torr]	P4[Torr]	P5[Torr]	P6[Torr]	Pt[Torr]	Ps[Abs,Torr]	Ts[C]	
  0.000	  0.000	 92.06757	 41.25073	 39.85349	 41.15574	 38.55611	  2.42501	 92.18702	710.41998	 23.10	
  1.691	128.401	 92.10038	 38.04521	 42.89285	 44.79993	 34.73104	  2.32048	 92.24068	710.40997	 23.30	
  1.692	 77.194	 92.16151	 42.04465	 38.85018	 45.94863	 33.66127	  2.45011	 92.29324	710.33002	 23.50	
  1.699	 26.182	 92.25273	 45.51498	 35.50653	 43.48150	 36.14356	  2.49624	 92.36155	710.40002	 23.60	
  1.699	-26.182	 92.35099	 45.76587	 35.42202	 39.25598	 40.49675	  2.43298	 92.42302	710.32001	 23.80	
  1.692	-77.194	 92.33997	 42.55493	 38.64907	 36.67358	 43.21560	  2.30381	 92.46115	710.40002	 23.90	
  1.691	-128.401	 92.31512	 38.45335	 42.77924	 37.43011	 42.38454	  2.21674	 92.43890	710.39001	 24.00	
  1.700	180.000	 92.35062	 36.46923	 44.81313	 41.06699	 38.65097	  2.23011	 92.47993	710.37000	 24.20	
  3.400	180.000	 92.20387	 31.12078	 49.56849	 40.48254	 38.49601	  1.87693	 92.49854	710.44000	 24.30	
  3.388	-152.325	 92.31001	 32.47734	 48.28958	 36.25104	 43.04181	  1.87800	 92.54702	710.21997	 24.40	
  3.397	-124.529	 92.35820	 35.87715	 44.91900	 32.85389	 46.61181	  1.89508	 92.56309	710.32001	 24.50	
  3.399	-96.763	 92.44386	 40.29634	 40.39937	 31.34012	 48.25090	  1.96952	 92.61208	710.37000	 24.70	
  3.394	-69.283	 92.40147	 44.88238	 35.79575	 32.09377	 47.43180	  2.08963	 92.55962	710.34998	 24.80	
  3.400	-41.398	 92.51206	 48.80636	 32.04331	 34.94870	 44.56478	  2.24638	 92.70055	710.40997	 24.90	
  3.401	-14.021	 92.44437	 50.85729	 30.00840	 39.02541	 40.17573	  2.35528	 92.67733	710.40002	 25.00	
  3.401	 14.021	 92.39126	 50.59932	 30.16648	 43.75939	 35.36469	  2.42070	 92.65968	710.40997	 25.10	
  3.400	 41.398	 92.41051	 48.14757	 32.47581	 47.90863	 31.33223	  2.40975	 92.73227	710.40997	 25.30	
  3.394	 69.283	 92.38550	 44.02408	 36.47248	 50.77733	 28.92413	  2.32391	 92.74132	710.40997	 25.40	
  3.399	 96.763	 92.39063	 39.42887	 41.07219	 51.14468	 28.57266	  2.20223	 92.77219	710.40997	 25.50	
  3.397	124.529	 92.43232	 35.13908	 45.51151	 48.98341	 30.38327	  2.06349	 92.78526	710.44000	 25.60	
  3.388	152.325	 92.54385	 32.10881	 48.69324	 45.24453	 34.11323	  1.96541	 92.86478	710.48999	 25.70	
  5.099	161.165	 92.01687	 26.52593	 53.88433	 44.62457	 33.43111	  1.43789	 92.80905	710.51001	 25.80	
  5.109	142.013	 92.00493	 28.50880	 51.37881	 49.33492	 28.99634	  1.56162	 92.85300	710.46997	 25.90	
  5.095	123.033	 91.94736	 31.73831	 47.62007	 52.88340	 25.77369	  1.67427	 92.84643	710.41998	 26.00	
  5.105	104.191	 91.98972	 36.29947	 43.12968	 55.33635	 23.78814	  1.80546	 92.91342	710.44000	 26.10	
  5.093	 85.207	 91.97691	 40.94491	 38.26112	 55.97262	 23.25157	  1.92449	 92.90136	710.39001	 26.20	
  5.104	 66.290	 91.99487	 45.75021	 33.55615	 54.98502	 24.06605	  2.03542	 92.89203	710.32001	 26.30	
  5.094	 47.331	 92.06318	 50.13741	 29.47277	 52.37599	 26.36918	  2.13701	 92.92702	710.46002	 26.40	
  5.089	 28.397	 92.10291	 53.51715	 26.55685	 48.26113	 29.90489	  2.17908	 92.92677	710.40002	 26.60	
  5.096	  9.576	 92.17502	 55.43120	 24.97408	 43.66319	 34.51611	  2.17691	 92.94236	710.31000	 26.70	
  5.096	 -9.576	 92.27852	 55.67603	 24.88344	 38.86732	 39.37794	  2.06936	 92.96734	710.33002	 26.70	
  5.089	-28.397	 92.37763	 54.26592	 26.19944	 34.36701	 44.19658	  1.95853	 92.98444	710.39001	 26.80	
  5.094	-47.331	 92.45807	 51.19256	 28.95782	 30.41710	 48.34994	  1.82176	 92.98382	710.34998	 26.90	
  5.104	-66.290	 92.50787	 47.04621	 33.00713	 27.75303	 51.39418	  1.69481	 93.00216	710.40002	 27.00	
  5.093	-85.207	 92.56438	 42.34771	 37.56705	 26.29152	 53.07299	  1.52358	 93.06538	710.39001	 27.10	
  5.105	-104.191	 92.53238	 37.50731	 42.52310	 26.52448	 52.75444	  1.44092	 93.02343	710.33002	 27.20	
  5.095	-123.033	 92.55497	 32.83331	 47.22739	 28.23934	 50.73824	  1.35575	 93.09979	710.27002	 27.30	
  5.109	-142.013	 91.76844	 28.99596	 50.80208	 31.06516	 46.97990	  1.38040	 92.35620	710.28998	 26.30	
  5.099	-161.165	 91.72013	 26.70767	 53.44975	 35.33994	 42.53469	  1.33200	 92.36600	710.32001	 26.40	
  5.100	180.000	 91.68921	 25.74826	 54.51920	 39.81301	 37.79337	  1.34053	 92.41921	710.39001	 26.40	
  6.800	180.000	 91.00030	 20.61950	 59.08210	 38.83102	 37.15658	  0.72303	 92.46929	710.35999	 26.50	
  6.796	-166.229	 91.08481	 21.30131	 58.36992	 34.37942	 41.90404	  0.71022	 92.48101	710.34998	 26.60	
  6.808	-152.311	 91.19042	 23.04004	 56.39900	 29.90391	 46.52279	  0.76686	 92.50343	710.35999	 26.70	
  6.795	-138.383	 91.27623	 25.68582	 53.14962	 26.35286	 50.59554	  0.73478	 92.52982	710.28003	 26.80	
  6.792	-124.591	 91.41579	 29.08522	 49.25478	 23.68687	 53.97534	  0.74750	 92.60760	710.28998	 26.90	
  6.787	-110.754	 91.45701	 33.21326	 44.77956	 21.88066	 56.39401	  0.81141	 92.60667	710.29999	 27.00	
  6.800	-96.985	 91.52950	 38.02292	 40.03977	 20.99980	 57.57219	  0.85041	 92.66566	710.28003	 27.10	
  6.800	-83.015	 91.53899	 42.78900	 35.35421	 21.15896	 57.40638	  0.91166	 92.69488	710.40002	 27.20	
  6.787	-69.246	 91.53310	 47.41657	 30.70551	 22.42604	 55.88120	  1.02438	 92.69370	710.37000	 27.30	
  6.792	-55.409	 91.51022	 51.84791	 26.66464	 24.46888	 53.25152	  1.13030	 92.73491	710.27002	 27.40	
  6.795	-41.617	 91.46592	 55.40137	 23.47845	 27.42255	 49.66921	  1.24985	 92.76456	710.28998	 27.50	
  6.808	-27.689	 91.43286	 58.33963	 21.11830	 31.27089	 45.34896	  1.42862	 92.78076	710.32001	 27.60	
  6.796	-13.771	 91.37874	 59.94032	 19.82754	 35.93457	 40.64786	  1.57831	 92.81831	710.22998	 27.70	
  6.800	  0.000	 91.28725	 60.33505	 19.39391	 40.41076	 35.97962	  1.69604	 92.83570	710.34003	 27.80	
  6.796	 13.771	 91.23974	 59.48161	 20.00773	 45.19196	 31.08586	  1.77709	 92.86123	710.40002	 27.80	
  6.808	 27.689	 91.13646	 57.32124	 21.55613	 49.92913	 26.72215	  1.76400	 92.83095	710.28998	 27.90	
  6.795	 41.617	 91.12621	 54.14752	 24.19721	 53.94097	 23.13398	  1.73180	 92.86700	710.21997	 28.00	
  6.792	 55.409	 91.06084	 50.11803	 27.55185	 57.28467	 20.43694	  1.66405	 92.82914	710.20001	 28.10	
  6.787	 69.246	 91.09515	 45.71967	 31.74455	 59.54192	 18.62851	  1.54580	 92.93804	710.23999	 28.20	
  6.800	 83.015	 91.06824	 41.02761	 36.34706	 60.52582	 17.69389	  1.41299	 92.90262	710.29999	 28.20	
  6.800	 96.985	 91.04541	 36.49047	 41.04697	 60.29183	 17.84570	  1.26139	 92.87316	710.29999	 28.30	
  6.787	110.754	 91.13263	 31.74919	 45.75520	 58.92322	 19.16585	  1.17690	 92.92117	710.25000	 28.40	
  6.792	124.591	 91.20713	 27.88027	 50.20928	 56.36340	 21.31458	  1.05723	 92.94653	710.13000	 28.50	
  6.795	138.383	 91.31333	 24.80202	 54.04780	 52.78278	 24.37859	  0.92923	 92.99094	710.28998	 28.50	
  6.808	152.311	 91.35101	 22.46934	 57.08704	 48.61377	 28.13158	  0.84631	 92.98174	710.15002	 28.60	
  6.796	166.229	 91.47301	 21.19954	 58.86914	 43.84937	 32.61137	  0.75608	 93.01617	710.21002	 28.70	
  8.491	168.704	 90.38903	 15.72889	 63.00786	 42.69496	 31.66510	  0.03278	 92.99362	710.27002	 28.80	
  8.502	157.493	 90.29199	 16.86765	 61.69565	 47.55869	 27.12583	  0.10424	 92.99143	710.32001	 28.80	
  8.494	146.194	 90.26509	 18.81084	 59.33355	 52.13456	 23.16612	 -0.02964	 93.01273	710.32001	 28.90	
  8.495	135.039	 90.15544	 21.34708	 55.95634	 56.22712	 19.62813	 -0.05492	 92.97791	710.34003	 29.00	
  8.487	123.723	 90.13188	 24.58360	 51.87202	 59.75571	 16.73423	  0.39053	 93.01423	710.20001	 29.10	
  8.492	112.575	 90.08571	 28.29809	 47.39944	 62.24363	 14.36869	  0.22825	 93.02818	710.22998	 29.20	
  8.510	101.220	 90.03848	 32.63483	 42.55624	 63.95370	 12.73253	  0.56183	 93.02660	710.19000	 29.20	
  8.500	 90.000	 90.02872	 37.71532	 37.78222	 64.60218	 12.20078	  0.69191	 93.03793	710.22998	 29.30	
  8.510	 78.780	 89.98957	 42.29031	 33.03421	 64.35715	 12.40086	  0.77396	 93.04137	710.20001	 29.40	
  8.492	 67.425	 89.98864	 47.14267	 28.29633	 63.00066	 13.64135	  0.92775	 93.02125	710.15002	 29.50	
  8.487	 56.277	 90.09171	 51.62938	 24.35429	 60.91862	 15.71200	  1.01966	 93.08110	710.27002	 29.60	
  8.495	 44.961	 90.15710	 55.70433	 20.92392	 57.75089	 18.34495	  1.04685	 93.09469	710.21997	 29.60	
  8.494	 33.806	 90.22530	 59.38375	 18.19596	 53.83157	 21.56079	  1.24345	 93.12978	710.20001	 29.70	
  8.502	 22.507	 90.26292	 62.10828	 16.07817	 49.61230	 25.26704	  1.27532	 93.12157	710.28998	 29.80	
  8.491	 11.296	 90.33620	 63.77060	 14.69804	 44.83340	 29.66676	  1.24328	 93.11254	710.25000	 29.80	
  8.500	  0.000	 90.40693	 64.51480	 14.06536	 39.90172	 34.72600	  1.14010	 93.05480	710.32001	 29.90	
  8.491	-11.296	 90.55016	 64.21794	 14.46859	 35.35690	 39.52073	  1.02977	 93.10821	710.20001	 29.90	
  8.502	-22.507	 90.62041	 63.06680	 15.67495	 30.40885	 44.42338	  0.86487	 93.10454	710.27002	 30.00	
  8.494	-33.806	 90.73449	 60.88001	 17.63360	 26.33238	 49.09184	  0.71426	 93.09803	710.32001	 30.00	
  8.495	-44.961	 90.81442	 57.64264	 20.19121	 22.84321	 53.30617	  0.48339	 93.12501	710.28003	 30.10	
  8.487	-56.277	 90.86854	 53.84751	 23.43286	 20.01419	 56.91376	  0.40974	 93.10479	710.32001	 30.10	
  8.492	-67.425	 90.92506	 49.35329	 27.33773	 17.83746	 59.79438	  0.27803	 93.12466	710.28998	 30.20	
  8.510	-78.780	 90.96973	 44.67419	 31.73602	 16.36802	 61.59508	  0.21623	 93.14000	710.23999	 30.30	
  8.500	-90.000	 90.98882	 39.82426	 36.65778	 15.73800	 62.28902	  0.09911	 93.14629	710.09998	 30.30	
  8.510	-101.220	 90.98301	 34.97987	 41.43195	 16.01031	 61.99866	  0.09294	 93.12020	710.22998	 30.40	
  8.492	-112.575	 91.00020	 30.28267	 46.36452	 17.15066	 60.57681	  0.02053	 93.14472	710.31000	 30.40	
  8.487	-123.723	 90.97855	 26.28907	 50.89467	 18.99314	 58.16006	 -0.04704	 93.12927	710.28003	 30.50	
  8.495	-135.039	 90.92684	 22.73867	 55.16154	 21.57793	 54.68955	 -0.03103	 93.13098	710.15002	 30.50	
  8.494	-146.194	 90.88539	 19.92085	 58.70333	 24.79410	 50.81560	 -0.02375	 93.14989	710.21002	 30.60	
  8.502	-157.493	 90.78197	 17.61746	 61.34923	 28.71368	 46.31873	 -0.02575	 93.12936	710.20001	 30.70	
  8.491	-168.704	 90.68950	 16.07120	 62.90586	 33.42323	 41.49252	 -0.04725	 93.11454	710.29999	 30.70	
  8.500	180.000	 90.59647	 15.42146	 63.48190	 37.99032	 36.58422	 -0.03034	 93.10328	710.15002	 30.80	
 10.200	180.000	 89.26292	 10.03411	 67.50469	 36.61647	 35.99609	 -0.80473	 93.12733	710.23999	 30.80	
 10.191	-170.497	 89.35661	 10.61328	 66.96023	 31.81976	 40.51611	 -0.84098	 93.12212	710.15002	 30.90	
 10.210	-161.034	 89.43817	 11.70500	 65.54255	 27.21809	 45.53221	 -0.79281	 93.15544	710.15997	 30.90	
 10.194	-151.526	 89.49763	 13.68858	 63.21184	 23.10838	 50.14825	 -0.78996	 93.12531	710.17999	 31.00	
 10.190	-142.105	 89.55338	 16.45268	 60.24702	 19.65787	 54.42291	 -0.77924	 93.08160	710.34003	 31.00	
 10.215	-132.646	 89.61236	 19.55080	 56.48680	 16.57319	 58.42965	 -0.92651	 93.12889	710.27002	 31.10	
 10.203	-123.092	 89.63918	 23.08652	 52.11528	 14.03402	 61.66762	 -1.06808	 93.11913	710.28998	 31.20	
 10.192	-113.678	 89.63863	 27.03061	 47.42681	 12.18814	 63.94052	 -0.72440	 93.12162	710.28998	 31.20	
 10.208	-104.249	 89.64683	 31.44678	 42.62415	 10.72223	 65.62237	 -0.70270	 93.16570	710.25000	 31.20	
 10.210	-94.801	 89.65659	 36.49790	 37.78862	 10.21335	 66.34897	 -0.67276	 93.14683	710.31000	 31.30	
 10.210	-85.199	 89.63619	 41.28353	 32.68560	 10.40492	 66.17661	 -0.65238	 93.15990	710.32001	 31.30	
 10.208	-75.751	 89.51539	 46.12612	 27.94264	 11.20482	 65.01586	 -0.58413	 93.10303	710.34998	 31.40	
 10.192	-66.322	 89.52368	 50.81765	 23.69902	 12.97537	 63.07700	 -0.49963	 93.11813	710.28003	 31.40	
 10.203	-56.908	 89.45618	 55.20587	 20.07638	 15.18165	 60.40038	 -0.40649	 93.12199	710.29999	 31.40	
 10.215	-47.354	 89.38191	 59.35500	 16.69108	 17.91692	 56.71494	 -0.63966	 93.11109	710.31000	 31.50	
 10.190	-37.895	 89.36528	 62.82813	 13.86345	 21.25521	 52.49922	 -0.19164	 93.13219	710.25000	 31.50	
 10.194	-28.474	 89.27833	 65.40196	 11.30303	 24.91350	 48.08129	  0.00864	 93.13757	710.27002	 31.60	
 10.210	-18.966	 89.15852	 67.33806	  9.47436	 29.22300	 43.17493	  0.15835	 93.10201	710.34003	 31.60	
 10.191	 -9.503	 89.15289	 68.41537	  8.69163	 34.30109	 38.16776	  0.30568	 93.17654	710.27002	 31.60	
 10.200	  0.000	 89.05972	 68.62255	  8.44252	 38.91087	 33.25743	  0.46413	 93.14707	710.28003	 31.70	
 10.191	  9.503	 88.93575	 67.86932	  8.85754	 43.81687	 28.28439	  0.55957	 93.14483	710.34998	 31.70	
 10.210	 18.966	 88.82221	 66.31572	  9.95338	 48.71001	 23.84363	  0.53649	 93.17728	710.29999	 31.80	
 10.194	 28.474	 88.74432	 63.95993	 12.10496	 53.21245	 19.92813	  0.53021	 93.15797	710.32001	 31.80	
 10.190	 37.895	 88.67394	 60.89595	 14.54407	 57.39263	 16.21787	  0.47246	 93.13718	710.29999	 31.90	
 10.215	 47.354	 88.62539	 56.93822	 17.41559	 61.21581	 12.74098	 -0.27561	 93.14790	710.25000	 31.90	
 10.203	 56.908	 88.62432	 52.87535	 20.96801	 64.19847	 10.03996	  0.21336	 93.18407	710.29999	 31.90	
 10.192	 66.322	 88.59562	 48.27007	 24.89436	 66.46051	  8.31982	 -0.19444	 93.14736	710.39001	 32.00	
 10.208	 75.751	 88.60612	 43.40602	 29.30171	 68.05319	  7.31543	 -0.05454	 93.15038	710.27002	 32.00	
 10.210	 85.199	 88.65401	 38.77976	 34.23604	 68.72940	  6.87012	 -0.09206	 93.17371	710.28003	 32.00	
 10.210	 94.801	 88.73397	 33.56736	 39.11589	 68.56669	  7.14423	 -0.34738	 93.18609	710.28003	 32.10	
 10.208	104.249	 88.70577	 29.02245	 43.92456	 67.47617	  7.87771	 -0.27402	 93.13003	710.35999	 32.10	
 10.192	113.678	 88.75191	 25.07764	 48.71518	 65.50568	  9.37779	 -1.07214	 93.14611	710.28998	 32.10	
 10.203	123.092	 88.76389	 21.28853	 53.21321	 62.88910	 11.53422	 -0.57827	 93.10764	710.29999	 32.20	
 10.215	132.646	 88.80026	 17.81501	 57.49979	 59.59108	 14.50123	 -0.73355	 93.11737	710.28998	 32.20	
 10.190	142.105	 88.93163	 14.89061	 61.10422	 55.44632	 18.04266	 -1.23498	 93.14216	710.29999	 32.20	
 10.194	151.526	 89.02387	 12.43372	 63.84073	 51.08497	 21.93866	 -0.76391	 93.13897	710.25000	 32.30	
 10.210	161.034	 89.11552	 10.76827	 65.98914	 46.38841	 25.96285	 -0.94431	 93.17744	710.27002	 32.30	
 10.191	170.497	 89.24440	 10.04965	 67.21848	 41.50469	 30.57667	 -0.80987	 93.18098	710.22998	 32.40	
 11.899	171.783	 87.50676	  4.79197	 70.87802	 39.77357	 29.33900	 -1.64869	 93.13219	710.23999	 32.40	
 11.890	163.610	 87.50690	  5.27467	 69.79240	 44.74038	 24.91437	 -2.13816	 93.14857	710.23999	 32.40	
 11.889	155.445	 87.37399	  6.44152	 68.03730	 49.46885	 20.72666	 -2.11553	 93.11083	710.25000	 32.50	
 11.909	147.299	 87.26385	  8.08082	 65.58922	 54.04194	 16.52992	 -2.24207	 93.12804	710.34998	 32.50	
 11.902	139.148	 87.15331	 10.40780	 62.47504	 58.47188	 12.63023	 -2.30255	 93.11333	710.17999	 32.50	
 11.894	130.867	 87.12909	 13.71697	 58.73136	 62.39600	  9.20471	 -2.23527	 93.16151	710.21997	 32.50	
 11.897	122.732	 87.05521	 17.52557	 54.31733	 65.61115	  6.62265	 -1.94880	 93.10118	710.22998	 32.60	
 11.903	114.597	 87.03019	 21.36852	 49.80171	 68.40904	  4.44454	 -2.04307	 93.10273	710.28998	 32.60	
 11.893	106.346	 86.96977	 25.50903	 44.98738	 70.40525	  3.05285	 -1.99341	 93.13206	710.27002	 32.60	
 11.892	 98.155	 86.94363	 29.70149	 40.00750	 71.74870	  2.16882	 -1.96161	 93.11388	710.27002	 32.70	
 11.900	 90.000	 86.85723	 34.26765	 35.15404	 72.36144	  1.63602	 -1.07966	 93.12071	710.31000	 32.70	
 11.892	 81.845	 86.86229	 39.38342	 30.21516	 72.18694	  1.72323	 -1.60916	 93.15127	710.23999	 32.70	
 11.893	 73.654	 86.85579	 44.22511	 25.65359	 71.19239	  2.24891	 -1.70826	 93.18452	710.28003	 32.80	
 11.903	 65.403	 86.77119	 49.15350	 21.42642	 69.43615	  3.19293	 -1.64719	 93.11532	710.42999	 32.80	
 11.897	 57.268	 86.85333	 53.81663	 17.56114	 67.12795	  4.85326	 -1.54138	 93.19209	710.38000	 32.80	
 11.894	 49.133	 86.78483	 57.85777	 13.91810	 64.10490	  7.18158	 -1.50052	 93.08385	710.40997	 32.80	
 11.902	 40.852	 86.86198	 62.02382	 10.17598	 60.60884	 10.26014	 -0.40903	 93.10229	710.27002	 32.90	
 11.909	 32.701	 86.96340	 65.34684	  7.43625	 56.47053	 14.12640	 -0.46125	 93.15612	710.28003	 32.90	
 11.889	 24.555	 87.10934	 68.12326	  5.45442	 52.14312	 18.21029	 -0.58627	 93.19296	710.20001	 32.90	
 11.890	 16.390	 87.11129	 70.10272	  4.13599	 47.44661	 22.32204	 -0.58447	 93.11772	710.19000	 33.00	
 11.899	  8.217	 87.16988	 71.41440	  3.33742	 42.49237	 26.79542	 -0.41981	 93.10793	710.33002	 33.00	
 11.900	  0.000	 87.33389	 72.15611	  2.94195	 37.55976	 31.53891	 -0.34094	 93.15662	710.38000	 33.00	
 11.899	 -8.217	 87.36954	 71.98404	  3.17758	 32.64161	 36.85494	 -0.52023	 93.11369	710.29999	 33.10	
 11.890	-16.390	 87.45634	 71.10172	  3.92561	 27.88248	 41.61950	 -0.88086	 93.12823	710.28998	 33.10	
 11.889	-24.555	 87.55565	 69.60927	  5.01918	 23.70944	 46.62181	 -0.86166	 93.16344	710.28998	 33.10	
 11.909	-32.701	 87.55721	 67.28451	  6.75097	 19.83890	 51.18909	 -1.25710	 93.10055	710.25000	 33.20	
 11.902	-40.852	 87.68003	 64.31596	  9.23359	 16.18536	 55.66537	 -1.44717	 93.13164	710.22998	 33.20	
 11.894	-49.133	 87.69833	 60.65513	 12.78701	 12.77051	 59.96201	 -1.33633	 93.13935	710.37000	 33.20	
 11.897	-57.268	 87.73538	 56.35839	 16.41708	  9.72549	 63.38674	 -1.26089	 93.10500	710.28003	 33.30	
 11.903	-65.403	 87.84022	 52.08907	 20.23568	  7.45195	 66.09888	 -1.63997	 93.14584	710.34998	 33.30	
 11.893	-73.654	 87.89832	 47.37384	 24.47302	  6.12082	 68.19685	 -1.34960	 93.14057	710.23999	 33.30	
 11.892	-81.845	 87.94019	 42.44499	 28.72747	  5.33859	 69.43136	 -1.57143	 93.10814	710.25000	 33.40	
 11.900	-90.000	 87.92747	 37.83963	 33.62054	  4.93060	 69.93716	 -1.35452	 93.06724	710.26001	 33.40	
 11.892	-98.155	 87.99316	 32.63573	 38.56221	  5.19450	 69.74590	 -1.36216	 93.06643	710.31000	 33.40	
 11.893	-106.346	 88.01566	 28.05288	 43.45323	  5.85265	 68.93658	 -1.56585	 93.10180	710.28998	 33.40	
 11.903	-114.597	 87.97144	 23.88981	 48.25393	  6.86741	 67.18768	 -1.45365	 93.08675	710.28003	 33.40	
 11.897	-122.732	 88.00156	 19.91888	 52.97044	  8.65605	 64.79005	 -1.73293	 93.11843	710.32001	 33.50	
 11.894	-130.867	 87.94147	 16.07312	 57.34515	 11.21647	 61.69724	 -1.70808	 93.08087	710.27002	 33.50	
 11.902	-139.148	 87.89413	 12.41857	 61.38280	 14.29925	 57.83172	 -1.54301	 93.05148	710.33002	 33.50	
 11.909	-147.299	 87.86774	  9.84174	 64.61954	 17.77014	 53.57533	 -1.90505	 93.05435	710.34003	 33.60	
 11.889	-155.445	 87.84050	  7.78421	 67.31658	 21.48971	 48.99790	 -1.73762	 93.06698	710.29999	 33.60	
 11.890	-163.610	 87.73813	  6.23689	 69.21085	 25.56117	 44.20223	 -2.04438	 93.05634	710.21002	 33.60	
 11.899	-171.783	 87.63287	  5.24974	 70.50910	 30.04610	 39.15756	 -1.89616	 93.02818	710.28998	 33.60	
 11.900	180.000	 87.55528	  4.68734	 71.05571	 35.06905	 34.50552	 -1.69671	 93.04964	710.25000	 33.60	
 13.600	180.000	 85.52575	 -0.40984	 74.61965	 32.88069	 32.55095	 -2.74382	 93.02267	710.27002	 33.70	
 13.608	-172.853	 85.67010	 -0.27013	 74.23548	 28.31951	 37.82993	 -2.88487	 93.10318	710.28998	 33.70	
 13.611	-165.583	 85.71101	  0.57422	 72.98569	 23.83873	 42.56438	 -2.67123	 93.03026	710.17999	 33.70	
 13.601	-158.353	 85.80242	  1.91522	 71.07382	 19.65221	 47.59238	 -2.47944	 93.05872	710.25000	 33.70	
 13.609	-151.210	 85.89191	  3.66989	 68.69521	 15.75612	 52.18493	 -2.33513	 93.04864	710.22998	 33.80	
 13.611	-143.999	 85.91135	  5.94007	 65.69482	 11.80536	 56.68229	 -2.27037	 93.03348	710.29999	 33.80	
 13.601	-136.825	 85.95634	  8.67565	 62.23281	  8.08560	 61.02575	 -2.08358	 93.03512	710.26001	 33.80	
 13.596	-129.640	 86.01453	 11.97913	 58.11081	  5.35658	 64.61782	 -2.11983	 93.05531	710.34998	 33.80	
 13.611	-122.431	 85.98310	 16.05145	 53.69583	  2.99552	 67.64823	 -1.97233	 93.04021	710.23999	 33.80	
 13.604	-115.211	 86.03186	 20.31177	 48.91158	  1.46587	 70.05407	 -1.90900	 93.10170	710.35999	 33.90	
 13.595	-108.042	 85.97838	 24.58631	 44.03618	  0.50234	 71.83522	 -1.85166	 93.04442	710.32001	 33.90	
 13.607	-100.793	 85.95439	 28.75507	 39.05788	 -0.25369	 73.12503	 -1.86027	 93.04303	710.31000	 33.90	
 13.601	-93.617	 85.97131	 33.40732	 34.17601	 -0.62167	 73.69300	 -1.83076	 93.10002	710.29999	 33.90	
 13.601	-86.383	 85.87231	 38.64386	 29.14772	 -0.65891	 73.39902	 -1.96127	 93.03587	710.23999	 34.00	
 13.607	-79.207	 85.83399	 43.26568	 24.94996	 -0.23003	 72.56517	 -2.05756	 93.08382	710.25000	 34.00	
 13.595	-71.958	 85.74456	 48.22924	 20.51548	  0.63378	 70.88357	 -2.04713	 93.02969	710.34998	 34.00	
 13.604	-64.789	 85.77653	 52.98072	 16.34641	  2.09634	 68.84174	 -2.04936	 93.09656	710.34998	 34.00	
 13.611	-57.569	 85.66657	 57.28799	 11.89302	  4.16736	 66.06124	 -2.06558	 93.04444	710.29999	 34.00	
 13.596	-50.360	 85.61926	 61.70332	  8.05042	  6.81956	 62.72264	 -2.10150	 93.02347	710.35999	 34.00	
 13.601	-43.175	 85.53648	 65.44081	  4.93052	 10.16728	 58.61080	 -2.09250	 93.03883	710.35999	 34.10	
 13.611	-36.001	 85.43517	 68.66292	  2.42455	 14.00052	 54.26945	 -2.04991	 93.04944	710.26001	 34.10	
 13.609	-28.790	 85.37985	 71.21119	  0.49340	 17.95930	 49.62248	 -1.92265	 93.04935	710.38000	 34.10	
 13.601	-21.647	 85.29039	 73.32772	 -0.81381	 22.06155	 44.79520	 -1.87370	 93.07317	710.26001	 34.10	
 13.611	-14.417	 85.18986	 74.82337	 -1.69403	 26.39833	 39.58429	 -1.89852	 93.05983	710.31000	 34.10	
 13.608	 -7.147	 85.13417	 75.56210	 -2.15087	 30.96697	 34.59614	 -1.68956	 93.05003	710.32001	 34.20	
 13.600	  0.000	 85.06676	 75.65897	 -2.40939	 35.92257	 29.82630	 -1.83302	 93.05598	710.38000	 34.20	
 13.608	  7.147	 84.93900	 75.05070	 -2.30297	 40.70163	 25.13548	 -1.79209	 93.05782	710.31000	 34.20	
 13.611	 14.417	 84.80632	 73.70530	 -1.72064	 45.71508	 20.47062	 -1.73472	 93.04684	710.40997	 34.20	
 13.601	 21.647	 84.80708	 71.74100	 -0.58998	 50.52192	 16.09027	 -1.69060	 93.08183	710.28003	 34.20	
 13.609	 28.790	 84.71872	 69.33595	  1.17033	 55.09647	 11.51129	 -1.78726	 93.04344	710.34003	 34.20	
 13.611	 36.001	 84.62953	 66.26157	  3.36690	 59.53258	  7.94220	 -2.02231	 93.04015	710.26001	 34.30	
 13.601	 43.175	 84.61536	 62.69623	  6.11020	 63.43021	  4.94613	 -2.35748	 93.03252	710.32001	 34.30	
 13.596	 50.360	 84.55422	 58.46733	  9.24079	 66.86431	  2.37263	 -2.63003	 93.04724	710.35999	 34.30	
 13.611	 57.569	 84.43793	 54.20469	 13.48143	 69.81407	  0.08445	 -2.64895	 93.01537	710.25000	 34.30	
 13.604	 64.789	 84.48644	 49.55003	 17.63587	 72.30408	 -1.59326	 -2.68295	 93.07235	710.32001	 34.40	
 13.595	 71.958	 84.52905	 44.68840	 21.87324	 74.16341	 -2.72334	 -2.77902	 93.08760	710.34003	 34.40	
 13.607	 79.207	 84.52100	 39.81837	 26.30466	 75.38168	 -3.45704	 -2.84184	 93.06110	710.31000	 34.40	
 13.601	 86.383	 84.61440	 34.77382	 30.85109	 75.84812	 -3.68345	 -2.92809	 93.05734	710.34998	 34.40	
 13.601	 93.617	 84.69064	 30.13237	 35.78466	 75.61933	 -3.63432	 -3.08046	 93.03062	710.28003	 34.40	
 13.607	100.793	 84.71038	 25.76655	 40.65900	 74.73464	 -3.05556	 -3.08363	 92.98771	710.41998	 34.40	
 13.595	108.042	 84.75816	 21.47084	 45.61239	 73.15536	 -2.05035	 -3.04009	 92.98222	710.25000	 34.40	
 13.604	115.211	 84.80482	 17.27257	 50.43522	 70.93709	 -0.63308	 -3.05128	 92.98442	710.29999	 34.50	
 13.611	122.431	 84.85558	 12.87447	 55.03278	 68.24102	  1.38443	 -3.14816	 93.01834	710.32001	 34.50	
 13.596	129.640	 84.93259	  9.48262	 59.58538	 64.82609	  4.09147	 -3.24037	 92.99803	710.29999	 34.50	
 13.601	136.825	 85.02510	  6.51855	 63.44936	 61.10396	  7.13874	 -3.26968	 93.01514	710.28998	 34.50	
 13.611	143.999	 85.06505	  3.87227	 66.76815	 56.85807	 10.49799	 -3.26831	 92.98354	710.25000	 34.50	
 13.609	151.210	 85.20994	  1.97777	 69.56815	 52.28230	 14.83712	 -3.09613	 92.99416	710.27002	 34.50	
 13.601	158.353	 85.32081	  0.72663	 71.81331	 47.52327	 19.11735	 -2.92008	 93.01899	710.29999	 34.60	
 13.611	165.583	 85.39242	 -0.22757	 73.49944	 42.65887	 23.45102	 -2.88708	 93.04592	710.26001	 34.60	
 13.608	172.853	 85.44324	 -0.68851	 74.41271	 37.66852	 27.89187	 -2.91028	 93.04269	710.20001	 34.60	
 15.298	173.587	 83.08530	 -5.97132	 77.62206	 35.50855	 26.51945	 -3.29168	 93.01411	710.34998	 34.60	
 15.291	167.167	 83.04144	 -5.63088	 76.83542	 40.35899	 21.98088	 -3.37088	 93.04177	710.28003	 34.60	
 15.307	160.676	 82.93369	 -4.87332	 75.40147	 45.22328	 17.46018	 -3.47425	 92.97701	710.22998	 34.60	
 15.300	154.261	 82.85784	 -3.57260	 73.37955	 50.11422	 12.79706	 -3.70058	 92.98902	710.25000	 34.60	
 15.288	147.854	 82.71692	 -1.83813	 70.72282	 54.78503	  8.72763	 -3.90029	 92.96842	710.21002	 34.60	
 15.293	141.428	 82.66355	  0.32487	 67.71334	 59.26814	  5.18376	 -4.02491	 92.95838	710.27002	 34.70	
 15.299	134.985	 82.60464	  2.62266	 64.20276	 63.49233	  1.86231	 -4.10592	 93.01044	710.21002	 34.70	
 15.305	128.583	 82.48238	  5.48928	 60.18351	 67.21577	 -0.88496	 -4.10090	 92.96508	710.34003	 34.70	
 15.309	122.142	 82.45066	  8.88363	 55.60545	 70.47432	 -3.06913	 -4.03678	 93.01421	710.27002	 34.70	
 15.304	115.711	 82.46310	 12.68878	 50.93401	 73.35248	 -5.22626	 -3.97871	 93.04375	710.15002	 34.70	
 15.297	109.291	 82.41418	 17.08871	 46.13366	 75.60087	 -6.78003	 -3.97537	 93.01946	710.23999	 34.70	
 15.293	102.897	 82.39819	 21.58226	 41.24282	 77.24961	 -7.82751	 -4.00245	 93.01086	710.27002	 34.80	
 15.293	 96.458	 82.38364	 26.10645	 36.40402	 78.32098	 -8.57859	 -4.01732	 93.01648	710.26001	 34.80	
 15.300	 90.000	 82.21304	 30.49963	 31.32652	 78.77872	 -8.93369	 -3.93144	 92.96832	710.17999	 34.80	
 15.293	 83.542	 82.18433	 35.04600	 26.83535	 78.68948	 -8.71386	 -3.87795	 93.00475	710.17999	 34.80	
 15.293	 77.103	 82.08045	 40.11205	 22.31884	 77.93743	 -8.53500	 -3.87388	 92.97945	710.27002	 34.80	
 15.297	 70.709	 82.01963	 44.74162	 17.91343	 76.68944	 -7.85038	 -3.78887	 92.99171	710.25000	 34.80	
 15.304	 64.289	 81.97161	 49.52995	 13.33387	 74.77978	 -6.61579	 -3.71414	 92.97415	710.28998	 34.90	
 15.309	 57.858	 81.93877	 54.30403	  8.89826	 72.23203	 -4.90012	 -3.64733	 92.94723	710.35999	 34.90	
 15.305	 51.417	 82.00950	 58.75439	  5.35700	 69.33529	 -2.80511	 -3.55372	 92.99005	710.33002	 34.90	
 15.299	 45.015	 82.07411	 63.11152	  2.19622	 65.88157	 -0.35628	 -3.31638	 92.97419	710.33002	 34.90	
 15.293	 38.572	 82.17228	 66.84277	 -0.55132	 62.04694	  2.52047	 -2.97840	 92.98981	710.28003	 35.00	
 15.288	 32.146	 82.09999	 70.05565	 -2.81219	 57.84730	  5.63786	 -2.72890	 92.99102	710.28003	 35.00	
 15.300	 25.739	 82.11901	 72.80022	 -4.39768	 53.28592	  9.34104	 -2.56950	 92.94041	710.27002	 35.00	
 15.307	 19.324	 82.19729	 75.21556	 -5.82722	 48.57556	 13.38058	 -2.45630	 92.96609	710.29999	 35.00	
 15.291	 12.833	 82.26128	 76.95663	 -6.91496	 43.69124	 18.33164	 -2.43813	 92.92582	710.28998	 35.00	
 15.298	  6.413	 82.39420	 78.13750	 -7.56478	 38.80958	 23.14353	 -2.49098	 92.93324	710.21997	 35.00	
 15.300	  0.000	 82.45913	 78.70171	 -7.72433	 33.69996	 27.87992	 -2.45434	 92.92633	710.25000	 35.00	
 15.298	 -6.413	 82.56876	 78.65689	 -7.44857	 29.19337	 32.47729	 -2.46587	 92.92113	710.34998	 35.10	
 15.291	-12.833	 82.66663	 78.04166	 -7.02641	 24.86479	 37.56100	 -2.48359	 92.95929	710.25000	 35.10	
 15.307	-19.324	 82.67072	 76.78026	 -6.25909	 20.25770	 42.44418	 -2.41075	 92.93108	710.39001	 35.10	
 15.300	-25.739	 82.79497	 74.91196	 -5.03149	 15.98803	 47.45038	 -2.38916	 92.96318	710.22998	 35.10	
 15.288	-32.146	 82.90875	 72.39942	 -3.72896	 11.46159	 52.20487	 -2.42400	 92.96136	710.32001	 35.10	
 15.293	-38.572	 82.98264	 69.53442	 -1.58965	  7.64332	 56.77070	 -2.47876	 92.92237	710.33002	 35.10	
 15.299	-45.015	 83.11728	 66.23072	  1.01259	  4.52792	 61.19793	 -2.44992	 92.97522	710.32001	 35.10	
 15.305	-51.417	 83.12984	 62.38234	  3.91151	  1.81947	 65.06084	 -2.37449	 92.93642	710.26001	 35.20	
 15.309	-57.858	 83.12535	 57.86603	  7.36993	 -0.55695	 68.46082	 -2.29224	 92.94228	710.23999	 35.20	
 15.304	-64.289	 83.14382	 53.36482	 11.47519	 -2.54062	 71.15347	 -2.24503	 92.90731	710.29999	 35.20	
 15.297	-70.709	 83.17327	 48.69941	 16.22167	 -4.07059	 73.50629	 -2.19867	 92.90652	710.34003	 35.20	
 15.293	-77.103	 83.20786	 43.81740	 20.59343	 -5.15606	 75.25063	 -2.18998	 92.90293	710.29999	 35.20	
 15.293	-83.542	 83.26765	 39.03349	 25.19788	 -5.89149	 76.40672	 -2.15385	 92.89079	710.34003	 35.20	
 15.300	-90.000	 83.35149	 33.78751	 29.59173	 -6.09376	 76.91373	 -2.08728	 92.90233	710.37000	 35.20	
 15.293	-96.458	 83.40170	 29.34605	 34.43895	 -5.90954	 76.76217	 -2.02361	 92.87261	710.28998	 35.20	
 15.293	-102.897	 83.41223	 25.01675	 39.32299	 -5.58523	 75.99497	 -1.94884	 92.88477	710.40002	 35.20	
 15.297	-109.291	 83.47604	 20.61998	 44.23606	 -4.91476	 74.67306	 -1.96912	 92.93348	710.28998	 35.20	
 15.304	-115.711	 83.50370	 16.08233	 49.09769	 -3.88099	 72.68512	 -2.06149	 92.92702	710.27002	 35.30	
 15.309	-122.142	 83.44962	 11.72339	 53.88283	 -2.20745	 70.08383	 -2.10972	 92.82683	710.27002	 35.30	
 15.305	-128.583	 83.55954	  8.17436	 58.42542	  0.00769	 67.20550	 -2.20141	 92.90643	710.25000	 35.30	
 15.299	-134.985	 83.55075	  4.87141	 62.58717	  2.61197	 63.70489	 -2.29463	 92.86753	710.29999	 35.30	
 15.293	-141.428	 83.51745	  2.14896	 66.26554	  5.56048	 59.62440	 -2.35633	 92.85089	710.31000	 35.30	
 15.288	-147.854	 83.50457	 -0.07918	 69.50912	  8.99793	 55.04562	 -2.51565	 92.87487	710.22998	 35.30	
 15.300	-154.261	 83.35668	 -2.21438	 72.28692	 13.21922	 50.33171	 -2.63786	 92.83840	710.32001	 35.40	
 15.307	-160.676	 83.29954	 -3.72061	 74.55215	 17.46501	 45.64038	 -2.86009	 92.86430	710.28003	 35.40	
 15.291	-167.167	 83.23397	 -4.87229	 76.22104	 21.91563	 40.57548	 -3.11742	 92.88492	710.26001	 35.40	
 15.298	-173.587	 83.15357	 -5.63653	 77.28342	 26.23848	 35.57617	 -3.24249	 92.89325	710.35999	 35.40	
 15.300	180.000	 83.01236	 -5.88757	 77.67918	 30.65479	 30.68061	 -3.32397	 92.83577	710.38000	 35.40	
 17.000	180.000	 80.42776	-11.34533	 80.57637	 28.56974	 28.92155	 -3.46714	 92.89188	710.33002	 35.50	
 16.990	-174.179	 80.48846	-11.18406	 80.14758	 24.23757	 33.37130	 -3.32317	 92.83829	710.34998	 35.50	
 17.009	-168.383	 80.60815	-10.62111	 79.27159	 19.65617	 38.70286	 -3.10524	 92.89448	710.27002	 35.50	
 17.000	-162.596	 80.73952	 -9.39482	 77.80834	 15.01820	 43.50426	 -2.93570	 92.91139	710.23999	 35.50	
 16.990	-156.759	 80.86204	 -7.73098	 75.75968	 10.63104	 48.37035	 -2.74134	 92.89926	710.32001	 35.50	
 16.995	-150.919	 80.86857	 -5.91741	 73.13066	  6.76824	 53.15542	 -2.54538	 92.84493	710.33002	 35.50	
 16.988	-145.161	 80.91249	 -3.80177	 70.15379	  3.26822	 57.65151	 -2.40100	 92.87424	710.40997	 35.50	
 17.014	-139.343	 80.94285	 -1.37050	 66.83801	  0.01722	 62.15503	 -2.27068	 92.90917	710.44000	 35.60	
 17.007	-133.546	 80.93381	  1.41452	 62.96381	 -2.71694	 66.11047	 -2.17154	 92.90338	710.46997	 35.60	
 17.001	-127.699	 80.87599	  4.56270	 58.47071	 -4.60645	 69.59546	 -2.01875	 92.87160	710.35999	 35.60	
 17.006	-121.937	 80.82165	  7.98904	 54.00346	 -6.68772	 72.51482	 -1.95349	 92.90948	710.39001	 35.60	
 17.002	-116.134	 80.77869	 11.76554	 49.17308	 -8.37093	 75.17941	 -1.92071	 92.92137	710.48999	 35.60	
 17.001	-110.310	 80.70359	 16.01909	 44.21214	 -9.64528	 77.13836	 -1.88382	 92.84357	710.38000	 35.60	
 16.988	-104.517	 80.72281	 20.86607	 39.45032	-10.65469	 78.59808	 -1.86303	 92.89661	710.44000	 35.60	
 17.008	-98.662	 80.68060	 25.46199	 34.22709	-11.31903	 79.59522	 -1.84732	 92.91490	710.29999	 35.60	
 16.996	-92.909	 80.66155	 29.83117	 29.70163	-11.40325	 79.87615	 -1.91618	 92.88919	710.35999	 35.60	
 16.996	-87.091	 80.57650	 34.17210	 25.35087	-11.45084	 79.68981	 -2.07975	 92.84479	710.50000	 35.60	
 17.012	-81.253	 80.48281	 39.35822	 20.71076	-11.20973	 79.00797	 -2.12981	 92.85800	710.40002	 35.70	
 16.988	-75.483	 80.42841	 44.02495	 16.17517	-10.34887	 77.66720	 -2.15104	 92.83183	710.34998	 35.70	
 17.001	-69.690	 80.45264	 48.92191	 11.47112	 -9.14925	 75.86144	 -2.17100	 92.88672	710.37000	 35.70	
 17.002	-63.866	 80.36174	 53.63640	  7.39274	 -7.66565	 73.41123	 -2.22349	 92.82806	710.34998	 35.70	
 17.006	-58.063	 80.30103	 58.15438	  3.44529	 -5.74566	 70.60459	 -2.29359	 92.87186	710.42999	 35.70	
 17.001	-52.301	 80.25458	 62.61346	  0.41074	 -3.48865	 67.31628	 -2.32937	 92.84514	710.42999	 35.70	
 17.007	-46.454	 80.20394	 66.65910	 -2.45649	 -0.82618	 63.46272	 -2.43932	 92.84547	710.44000	 35.70	
 17.014	-40.657	 80.11501	 70.20719	 -5.24166	  2.11019	 59.08377	 -2.51075	 92.83591	710.39001	 35.70	
 16.988	-34.839	 80.02139	 73.22897	 -7.45903	  5.45751	 54.65920	 -2.54787	 92.84306	710.46002	 35.70	
 16.995	-29.081	 79.98528	 75.97890	 -9.29817	  9.17419	 49.96596	 -2.62098	 92.83802	710.27002	 35.70	
 16.990	-23.241	 79.93987	 78.13876	-10.67784	 13.48093	 44.98185	 -2.68329	 92.82390	710.37000	 35.70	
 17.000	-17.404	 79.86685	 79.77430	-11.86566	 18.16080	 40.24113	 -2.74647	 92.83597	710.41998	 35.80	
 17.009	-11.617	 79.75798	 80.82446	-12.68950	 22.78137	 34.98716	 -2.86902	 92.79406	710.53998	 35.80	
 16.990	 -5.821	 79.77833	 81.37750	-12.94551	 27.43425	 30.20354	 -2.94943	 92.83920	710.37000	 35.80	
 17.000	  0.000	 79.68225	 81.39437	-13.01758	 31.62604	 25.61086	 -3.01433	 92.84635	710.41998	 35.80	
 16.990	  5.821	 79.54582	 80.83598	-13.06626	 36.52209	 20.77471	 -3.02680	 92.80863	710.44000	 35.80	
 17.009	 11.617	 79.41326	 79.78380	-12.47329	 41.33792	 15.53541	 -3.07632	 92.77958	710.39001	 35.80	
 17.000	 17.404	 79.34528	 78.21198	-11.47001	 46.28696	 11.23379	 -3.00965	 92.76331	710.51001	 35.90	
 16.990	 23.241	 79.31066	 76.05684	-10.14715	 51.20812	  7.16545	 -3.13154	 92.77531	710.41998	 35.90	
 16.995	 29.081	 79.21075	 73.31878	 -8.50073	 55.84439	  3.50417	 -3.37473	 92.76038	710.45001	 35.90	
 16.988	 34.839	 79.17700	 70.37275	 -6.44025	 60.15783	  0.22395	 -3.63639	 92.72969	710.52002	 35.90	
 17.014	 40.657	 79.12497	 66.97926	 -4.36060	 64.35427	 -2.83254	 -3.96817	 92.76679	710.62000	 35.90	
 17.007	 46.454	 79.06943	 63.03300	 -1.70290	 68.07014	 -5.54341	 -4.23107	 92.74364	710.53003	 35.90	
 17.001	 52.301	 79.07402	 58.47648	  1.38483	 71.36680	 -7.90380	 -4.37048	 92.74792	710.54999	 35.90	
 17.006	 58.063	 79.14685	 54.07386	  4.83407	 74.37006	 -9.91732	 -4.50028	 92.80268	710.48999	 35.90	
 17.002	 63.866	 79.11414	 49.30954	  8.71974	 76.80628	-11.56406	 -4.62307	 92.71785	710.42999	 35.90	
 17.001	 69.690	 79.09181	 44.46672	 13.07699	 78.76234	-12.94875	 -4.71805	 92.69003	710.51001	 35.90	
 16.988	 75.483	 79.12370	 39.63300	 18.01088	 80.16373	-13.96650	 -4.79258	 92.71559	710.58002	 35.90	
 17.012	 81.253	 79.14912	 34.69009	 22.48701	 81.05502	-14.27128	 -4.86924	 92.69070	710.45001	 35.90	
 16.996	 87.091	 79.20946	 30.38525	 26.75225	 81.42433	-14.46657	 -4.92983	 92.72044	710.35999	 36.00	
 16.996	 92.909	 79.26202	 26.06020	 31.29893	 81.21467	-14.46192	 -4.94352	 92.67726	710.46997	 36.00	
 17.008	 98.662	 79.40484	 21.42634	 36.42171	 80.59021	-13.99429	 -4.95126	 92.74848	710.54999	 36.00	
 16.988	104.517	 79.41975	 16.54326	 41.27915	 79.28695	-13.01836	 -4.89088	 92.71066	710.41998	 36.00	
 17.001	110.310	 79.52032	 12.41957	 46.21906	 77.55956	-11.81375	 -4.85713	 92.74937	710.59998	 36.00	
 17.002	116.134	 79.51532	  8.39023	 51.02924	 75.19627	-10.26732	 -4.83136	 92.68821	710.46002	 36.00	
 17.006	121.937	 79.58590	  4.98971	 55.75952	 72.34611	 -8.22629	 -4.81115	 92.71083	710.51001	 36.00	
 17.001	127.699	 79.62143	  1.97113	 60.25299	 69.13779	 -5.76935	 -4.80595	 92.69555	710.46002	 36.10	
 17.007	133.546	 79.62734	 -1.08381	 64.39529	 65.39934	 -2.98728	 -4.77492	 92.65111	710.46997	 36.00	
 17.014	139.343	 79.75392	 -3.81466	 68.17618	 61.41016	  0.04151	 -4.64723	 92.73222	710.59003	 36.00	
 16.988	145.161	 79.86853	 -5.98196	 71.33099	 56.86449	  3.22204	 -4.51002	 92.72060	710.40002	 36.10	
 16.995	150.919	 79.91178	 -7.90540	 74.15821	 52.42373	  6.62927	 -4.27522	 92.70224	710.63000	 36.10	
 16.990	156.759	 80.00198	 -9.39996	 76.53371	 47.57919	 10.67073	 -4.03243	 92.69933	710.53003	 36.10	
 17.000	162.596	 80.04122	-10.50292	 78.33280	 42.63237	 15.07762	 -3.83040	 92.69556	710.46997	 36.10	
 17.009	168.383	 80.06438	-11.39108	 79.60194	 37.85265	 19.81156	 -3.61501	 92.71009	710.56000	 36.10	
 16.990	174.179	 80.13695	-11.58138	 80.26369	 32.79419	 24.51817	 -3.45828	 92.68974	710.54999	 36.10	
 18.709	174.675	 77.26495	-17.17042	 82.96201	 30.11540	 22.40827	 -3.43008	 92.68823	710.56000	 36.20	
 18.703	169.441	 77.18072	-16.89359	 82.32211	 34.86222	 17.34716	 -3.66712	 92.65622	710.50000	 36.20	
 18.691	164.085	 77.14929	-16.09746	 81.11615	 40.01150	 12.94699	 -3.89652	 92.63793	710.57001	 36.20	
 18.706	158.818	 77.12204	-15.08072	 79.49606	 44.86907	  8.68519	 -4.15070	 92.63844	710.48999	 36.20	
 18.695	153.537	 77.05163	-13.66787	 77.35174	 49.73866	  5.04287	 -4.40644	 92.64441	710.47998	 36.20	
 18.704	148.255	 76.97356	-12.01498	 74.78278	 54.35187	  1.48493	 -4.63729	 92.65681	710.51001	 36.20	
 18.698	142.952	 76.90367	-10.11046	 71.68040	 58.89846	 -2.06795	 -4.88619	 92.66752	710.44000	 36.20	
 18.699	137.625	 76.80862	 -7.87354	 68.29961	 63.33615	 -5.40116	 -5.08385	 92.65286	710.40997	 36.30	
 18.705	132.343	 76.74016	 -5.27503	 64.55750	 67.23806	 -8.29676	 -5.23180	 92.63738	709.78003	 36.30	
 18.713	127.067	 76.72424	 -2.23704	 60.32767	 70.76334	-10.83310	 -5.36590	 92.62274	710.39001	 36.30	
 18.700	121.794	 76.65139	  1.11644	 55.76585	 74.04990	-13.13111	 -5.42453	 92.63030	709.70001	 36.30	
 18.698	116.504	 76.62025	  4.69150	 51.16126	 76.91376	-15.08270	 -5.48461	 92.64059	709.76001	 36.30	
 18.707	111.165	 76.54987	  8.21980	 46.24660	 79.31244	-16.70011	 -5.54179	 92.67526	709.71997	 36.30	
 18.690	105.863	 76.52042	 12.11555	 41.29308	 81.14809	-17.98742	 -5.67440	 92.66277	709.77002	 36.30	
 18.696	100.583	 76.47665	 16.34226	 36.43351	 82.55979	-18.95551	 -5.71387	 92.66728	709.67999	 36.40	
 18.700	 95.309	 76.38940	 20.83891	 31.41193	 83.44472	-19.56173	 -5.77008	 92.62167	709.76001	 36.40	
 18.700	 90.000	 76.22335	 25.89585	 26.66402	 83.88451	-19.93922	 -5.84697	 92.64628	709.82001	 36.40	
 18.700	 84.691	 76.13653	 30.20688	 22.05433	 83.72910	-19.76865	 -5.88889	 92.60654	709.79999	 36.40	
 18.696	 79.417	 76.09118	 34.27130	 18.13391	 83.20247	-19.64786	 -5.72979	 92.61660	709.76001	 36.40	
 18.690	 74.137	 76.13664	 39.12214	 12.89635	 82.13828	-18.81836	 -5.62441	 92.65495	709.83002	 36.40	
 18.707	 68.835	 76.08620	 44.16657	  8.66411	 80.63213	-17.86696	 -5.55543	 92.65359	709.78998	 36.40	
 18.698	 63.496	 76.05706	 49.06742	  4.69408	 78.61447	-16.48293	 -5.40212	 92.63667	709.65997	 36.40	
 18.700	 58.206	 76.02147	 53.78952	  1.18815	 76.10165	-14.87090	 -5.30582	 92.61408	709.79999	 36.40	
 18.713	 52.933	 75.93816	 58.26656	 -1.84344	 73.08332	-12.91286	 -5.18697	 92.57339	709.83002	 36.40	
 18.705	 47.657	 76.11801	 62.63610	 -4.90792	 69.83801	-10.72308	 -5.02639	 92.56346	709.78998	 36.40	
 18.699	 42.375	 76.13798	 66.70815	 -7.75506	 66.21426	 -8.17449	 -4.80190	 92.58421	709.89001	 36.40	
 18.698	 37.048	 76.17921	 70.38012	-10.23186	 62.15240	 -5.22013	 -4.51904	 92.57352	709.84998	 36.40	
 18.704	 31.745	 76.21141	 73.47752	-12.39931	 57.78298	 -2.01658	 -4.18332	 92.56831	709.91998	 36.40	
 18.695	 26.463	 76.27032	 76.38086	-14.24269	 53.46599	  1.40707	 -3.93367	 92.58502	709.89001	 36.50	
 18.706	 21.182	 76.31876	 78.82191	-15.76871	 48.79712	  5.22190	 -3.65992	 92.56974	709.91998	 36.50	
 18.691	 15.915	 76.40633	 80.76097	-16.98868	 43.89171	  9.07426	 -3.48282	 92.60175	709.89001	 36.50	
 18.703	 10.559	 76.42874	 82.28831	-18.03716	 39.09085	 13.26555	 -3.38495	 92.61870	709.91998	 36.50	
 18.709	  5.325	 76.51102	 83.31079	-18.74242	 33.92064	 17.84562	 -3.28929	 92.61380	709.90997	 36.50	
 18.700	  0.000	 76.55719	 83.80069	-18.75549	 29.29605	 23.03822	 -3.18919	 92.55553	709.90002	 36.50	
 18.709	 -5.325	 76.60787	 83.81621	-18.47607	 25.24747	 27.43324	 -3.14353	 92.58446	709.88000	 36.50	
 18.703	-10.559	 76.50087	 83.31267	-18.24062	 20.54405	 32.26307	 -2.99300	 92.54671	709.91998	 36.60	
 18.691	-15.915	 76.63940	 82.32262	-17.41107	 15.65966	 37.19941	 -2.83560	 92.60266	709.95001	 36.60	
 18.706	-21.182	 76.69398	 80.84451	-16.37426	 11.28205	 42.32833	 -2.68018	 92.57266	709.98999	 36.60	
 18.695	-26.463	 76.73977	 78.87163	-15.08064	  7.22941	 47.06958	 -2.56456	 92.52470	709.89001	 36.60	
 18.704	-31.745	 76.72998	 76.46491	-13.53828	  3.61326	 51.93171	 -2.46725	 92.53941	710.02002	 36.60	
 18.698	-37.048	 76.85602	 73.60947	-11.58864	  0.15635	 56.53485	 -2.39038	 92.58236	709.90002	 36.60	
 18.699	-42.375	 76.86813	 70.31879	 -9.28552	 -3.11459	 60.97956	 -2.30478	 92.55316	709.94000	 36.60	
 18.705	-47.657	 76.90993	 66.60208	 -6.54220	 -6.00074	 65.27216	 -2.27940	 92.52580	709.97998	 36.70	
 18.713	-52.933	 76.97194	 62.50170	 -3.52662	 -8.56937	 69.00851	 -2.20881	 92.52366	709.85999	 36.70	
 18.700	-58.206	 77.08666	 58.09480	 -0.12625	-10.66627	 72.11014	 -2.10412	 92.54158	709.84998	 36.70	
 18.698	-63.496	 77.12440	 53.61749	  3.52506	-12.52929	 75.04461	 -2.09512	 92.51746	709.84003	 36.70	
 18.707	-68.835	 77.17065	 48.80152	  7.12989	-14.06097	 77.55209	 -2.01963	 92.51624	709.89001	 36.70	
 18.690	-74.137	 77.23770	 43.91035	 11.29001	-15.28822	 79.51382	 -1.94531	 92.56476	709.95001	 36.70	
 18.696	-79.417	 77.19579	 39.11738	 15.63414	-16.31067	 80.87396	 -1.91065	 92.47425	709.88000	 36.70	
 18.700	-84.691	 77.21884	 33.96702	 20.61188	-16.94131	 81.84223	 -1.84544	 92.45722	709.90997	 36.70	
 18.700	-90.000	 77.31923	 29.57959	 25.04988	-17.09927	 82.33240	 -1.87755	 92.50778	710.03003	 36.70	
 18.700	-95.309	 77.34947	 25.36949	 29.40541	-17.00285	 82.23631	 -1.73235	 92.48991	710.03998	 36.70	
 18.696	-100.583	 77.37129	 20.78247	 33.92826	-16.61369	 81.62003	 -1.66488	 92.50867	710.09003	 36.80	
 18.690	-105.863	 77.44928	 15.88814	 39.08178	-15.78805	 80.52866	 -1.72186	 92.47546	709.95001	 36.70	
 18.707	-111.165	 77.49474	 11.77003	 43.86889	-14.75681	 79.01865	 -1.70404	 92.49236	710.01001	 36.80	
 18.698	-116.504	 77.57404	  7.84604	 48.86990	-13.35287	 76.88987	 -1.79101	 92.50387	710.06000	 36.80	
 18.700	-121.794	 77.62166	  4.15836	 53.54821	-11.71546	 74.30832	 -1.85327	 92.46556	710.00000	 36.80	
 18.713	-127.067	 77.64471	  0.69930	 58.09923	 -9.80991	 71.33692	 -1.94748	 92.53579	709.91998	 36.80	
 18.705	-132.343	 77.65685	 -2.42515	 62.53770	 -7.52659	 68.03430	 -1.99986	 92.48422	709.91998	 36.80	
 18.699	-137.625	 77.73094	 -5.20584	 66.48885	 -4.91485	 64.14438	 -2.11553	 92.43960	710.02002	 36.80	
 18.698	-142.952	 77.80463	 -7.64534	 70.09052	 -2.19587	 59.87911	 -2.23491	 92.50224	709.96997	 36.80	
 18.704	-148.255	 77.76660	 -9.88405	 73.24409	  0.75422	 55.46206	 -2.34287	 92.46838	710.03003	 36.80	
 18.695	-153.537	 77.73833	-11.79508	 76.09959	  4.36684	 50.75715	 -2.51063	 92.47535	710.06000	 36.80	
 18.706	-158.818	 77.69256	-13.51454	 78.45705	  8.19198	 45.89413	 -2.65201	 92.48911	710.03003	 36.80	
 18.691	-164.085	 77.59412	-14.86398	 80.20221	 12.17427	 41.20273	 -2.81367	 92.46743	709.94000	 36.80	
 18.703	-169.441	 77.44450	-16.15176	 81.63600	 16.92126	 35.93243	 -2.99052	 92.49023	710.08002	 36.80	
 18.709	-174.675	 77.30476	-16.79399	 82.53951	 21.67782	 31.16006	 -3.19990	 92.50625	710.07001	 36.80	
 18.700	180.000	 77.20753	-16.86451	 82.83244	 25.98469	 26.75283	 -3.35402	 92.43015	710.03998	 36.80	
 20.400	180.000	 74.19543	-22.25208	 85.09288	 23.21456	 24.22551	 -3.14173	 92.42162	710.03998	 36.90	
 20.401	-175.153	 74.29104	-22.13134	 84.79356	 18.94556	 28.60177	 -2.99070	 92.44018	710.03998	 36.90	
 20.407	-170.264	 74.38206	-21.32534	 83.97334	 14.01737	 33.46103	 -2.77334	 92.41906	709.95001	 36.90	
 20.410	-165.423	 74.49384	-20.41311	 82.75768	  9.75576	 38.44870	 -2.63089	 92.44590	710.14001	 36.90	
 20.392	-160.496	 74.42887	-19.21973	 80.97902	  5.74411	 43.38384	 -2.51250	 92.39020	710.12000	 36.90	
 20.401	-155.705	 74.47698	-17.83053	 78.96958	  2.04208	 48.20206	 -2.34816	 92.44375	710.13000	 36.90	
 20.405	-150.835	 74.46947	-16.06929	 76.30498	 -1.41772	 52.98561	 -2.30132	 92.37119	710.14001	 36.90	
 20.397	-145.903	 74.60025	-13.90456	 73.20811	 -4.47286	 57.60897	 -2.17365	 92.39208	710.15997	 36.90	
 20.392	-141.062	 74.58263	-11.52541	 69.84602	 -7.40235	 61.95900	 -2.09260	 92.36308	710.16998	 37.00	
 20.396	-136.227	 74.72092	 -9.00194	 66.23016	-10.09044	 66.15646	 -1.97119	 92.46457	710.12000	 37.00	
 20.408	-131.372	 74.62244	 -6.25003	 62.15471	-12.55006	 69.80965	 -1.90657	 92.39941	710.07001	 37.00	
 20.410	-126.511	 74.60620	 -3.14895	 57.72268	-14.67605	 73.04405	 -1.82487	 92.40899	710.09003	 37.00	
 20.400	-121.604	 74.54485	  0.22951	 53.09376	-16.65490	 76.13603	 -1.78836	 92.40511	710.22998	 37.00	
 20.403	-116.741	 74.42273	  3.74854	 48.36947	-18.38462	 78.68940	 -1.75330	 92.41045	710.12000	 37.00	
 20.413	-111.900	 74.32134	  7.64039	 43.48603	-19.81058	 80.80000	 -1.61356	 92.44556	710.10999	 37.00	
 20.398	-107.004	 74.27938	 11.82510	 38.47174	-20.88526	 82.47775	 -1.64575	 92.42697	710.17999	 37.00	
 20.394	-102.132	 74.20475	 15.78841	 33.38880	-21.58000	 83.62434	 -1.66709	 92.34796	710.22998	 37.10	
 20.403	-97.332	 74.12101	 20.56992	 28.82728	-22.33074	 84.39656	 -1.65809	 92.36723	710.25000	 37.10	
 20.392	-92.440	 74.09305	 25.10463	 24.29404	-22.43688	 84.65298	 -1.69505	 92.36658	710.25000	 37.10	
 20.392	-87.560	 73.98220	 29.02881	 20.05111	-22.42628	 84.43681	 -1.92532	 92.32322	710.35999	 37.10	
 20.403	-82.668	 73.94772	 33.71338	 15.25283	-22.07850	 83.88118	 -1.89391	 92.36037	710.20001	 37.10	
 20.394	-77.868	 73.90340	 38.67453	 10.89699	-21.37698	 82.75325	 -1.88600	 92.36094	710.20001	 37.10	
 20.398	-72.996	 73.87785	 43.53282	  7.04205	-20.34690	 81.12416	 -1.91204	 92.32202	710.23999	 37.10	
 20.413	-68.100	 73.81605	 48.44404	  3.02516	-19.06225	 79.12854	 -1.97740	 92.33092	710.12000	 37.10	
 20.403	-63.259	 73.81013	 53.19950	 -0.86584	-17.50721	 76.65845	 -1.98560	 92.34854	710.15002	 37.10	
 20.400	-58.396	 73.77107	 57.70765	 -4.42053	-15.69035	 73.67821	 -2.03681	 92.33472	710.10999	 37.10	
 20.410	-53.489	 73.76133	 62.20616	 -7.68702	-13.62179	 70.52614	 -2.10805	 92.38141	710.20001	 37.20	
 20.408	-48.628	 73.63406	 66.32242	-10.58700	-11.22964	 66.85944	 -2.26504	 92.31379	710.20001	 37.20	
 20.396	-43.773	 73.59692	 70.05995	-13.20094	 -8.53471	 62.74840	 -2.26238	 92.29744	710.22998	 37.20	
 20.392	-38.938	 73.59055	 73.44120	-15.51524	 -5.53528	 58.36563	 -2.31888	 92.35577	710.20001	 37.20	
 20.397	-34.097	 73.48975	 76.52931	-17.54700	 -2.27912	 53.81913	 -2.44374	 92.31090	710.23999	 37.20	
 20.405	-29.165	 73.40694	 79.24100	-19.38078	  1.24493	 49.08493	 -2.54710	 92.36288	710.22998	 37.20	
 20.401	-24.295	 73.31433	 81.39219	-20.88338	  5.10712	 44.22308	 -2.64610	 92.32271	710.14001	 37.20	
 20.392	-19.504	 73.28989	 83.15649	-21.98722	  8.97280	 39.22822	 -2.78943	 92.32587	710.15997	 37.30	
 20.410	-14.577	 73.20872	 84.58411	-22.98421	 13.12687	 34.25051	 -2.98989	 92.36938	710.21002	 37.30	
 20.407	 -9.736	 73.16193	 85.38490	-23.58230	 17.96492	 29.36097	 -3.12233	 92.30683	710.23999	 37.30	
 20.401	 -4.847	 73.14599	 85.81333	-23.93494	 22.76826	 24.34994	 -3.28965	 92.34205	710.27002	 37.20	
 20.400	  0.000	 73.09733	 85.78647	-24.28361	 26.54082	 20.21483	 -3.48895	 92.35217	710.22998	 37.30	
 20.401	  4.847	 72.99375	 85.29266	-24.51813	 31.34478	 15.52445	 -3.54306	 92.33609	710.15997	 37.30	
 20.407	  9.736	 72.85253	 84.34328	-23.57120	 36.24560	 11.23008	 -3.65611	 92.31149	710.23999	 37.30	
 20.410	 14.577	 72.76566	 82.94129	-22.55565	 41.19996	  6.97563	 -3.83532	 92.29563	710.32001	 37.30	
 20.392	 19.504	 72.81608	 81.12312	-21.39861	 46.01186	  2.78288	 -4.01522	 92.35202	710.25000	 37.30	
 20.401	 24.295	 72.71098	 78.95889	-20.01935	 50.69664	 -1.04583	 -4.29302	 92.30360	710.20001	 37.30	
 20.405	 29.165	 72.67115	 76.24886	-18.32905	 55.21636	 -4.57515	 -4.62483	 92.27837	710.21002	 37.30	
 20.397	 34.097	 72.67392	 73.06387	-16.26303	 59.56700	 -7.80184	 -4.86303	 92.26225	710.21002	 37.30	
 20.392	 38.938	 72.69116	 69.82825	-14.09451	 63.89363	-10.78759	 -5.16167	 92.32210	710.28998	 37.30	
 20.396	 43.773	 72.64204	 66.09541	-11.62018	 67.69787	-13.40425	 -5.38934	 92.27281	710.10999	 37.40	
 20.408	 48.628	 72.55456	 61.98499	 -8.85481	 71.18952	-15.77252	 -5.62547	 92.27041	710.16998	 37.40	
 20.410	 53.489	 72.50997	 57.60561	 -5.71824	 74.55513	-17.92426	 -5.77148	 92.30960	710.34998	 37.40	
 20.400	 58.396	 72.51642	 53.02782	 -2.32745	 77.46741	-19.78910	 -5.94585	 92.28349	710.28003	 37.40	
 20.403	 63.259	 72.57367	 48.28783	  1.26709	 79.92091	-21.38192	 -5.98041	 92.29318	710.31000	 37.40	
 20.413	 68.100	 72.61791	 43.57104	  4.56031	 81.94717	-22.70038	 -6.06520	 92.27464	710.27002	 37.40	
 20.398	 72.996	 72.73529	 38.46381	  8.59237	 83.54492	-23.68126	 -6.16098	 92.29675	710.22998	 37.40	
 20.394	 77.868	 72.76034	 33.54565	 12.80865	 84.70316	-24.36679	 -6.34997	 92.25943	710.21002	 37.40	
 20.403	 82.668	 72.77839	 28.96082	 17.64448	 85.40915	-24.85719	 -6.48273	 92.25385	710.35999	 37.40	
 20.392	 87.560	 72.92004	 25.33738	 21.57364	 85.70728	-24.94703	 -6.70368	 92.29736	710.28998	 37.40	
 20.392	 92.440	 72.96609	 20.37672	 26.28310	 85.50541	-24.84196	 -6.65650	 92.24472	710.34003	 37.40	
 20.403	 97.332	 73.05262	 15.93262	 31.17388	 84.89986	-24.43904	 -6.51611	 92.24207	710.25000	 37.40	
 20.394	102.132	 73.15542	 11.81165	 35.95152	 83.85675	-23.62325	 -6.43743	 92.23357	710.40002	 37.40	
 20.398	107.004	 73.16880	  7.87486	 40.85911	 82.37801	-22.65257	 -6.36471	 92.24165	710.17999	 37.40	
 20.413	111.900	 73.12716	  3.90637	 45.80181	 80.43073	-21.37597	 -6.22859	 92.24091	710.23999	 37.40	
 20.403	116.741	 73.20323	  0.20349	 50.56734	 78.11473	-19.84488	 -6.12680	 92.25984	710.28998	 37.50	
 20.400	121.604	 73.27371	 -3.25321	 55.18683	 75.30739	-18.02069	 -5.95780	 92.25544	710.34998	 37.50	
 20.410	126.511	 73.36021	 -6.48624	 59.73119	 71.97568	-15.90383	 -5.72057	 92.23361	710.27002	 37.50	
 20.408	131.372	 73.37282	 -9.41585	 64.06134	 68.44389	-13.50192	 -5.54267	 92.23275	710.21002	 37.50	
 20.396	136.227	 73.46176	-11.94975	 67.90585	 64.58269	-10.71866	 -5.34465	 92.23856	710.22998	 37.50	
 20.392	141.062	 73.50917	-14.22517	 71.32362	 60.43583	 -7.76943	 -5.09966	 92.25634	710.40002	 37.50	
 20.397	145.903	 73.61905	-16.16700	 74.58144	 56.00591	 -4.48114	 -4.92719	 92.23694	710.46002	 37.50	
 20.405	150.835	 73.69987	-17.98266	 77.47383	 51.29088	 -0.94148	 -4.67498	 92.23325	710.27002	 37.50	
 20.401	155.705	 73.75459	-19.34916	 79.75378	 46.58714	  2.71535	 -4.40112	 92.24533	710.35999	 37.60	
 20.392	160.496	 73.82500	-20.48742	 81.67924	 41.78057	  6.62980	 -4.14992	 92.23042	710.39001	 37.60	
 20.410	165.423	 73.85783	-21.45298	 83.25407	 36.75451	 10.87535	 -3.92677	 92.23881	710.37000	 37.60	
 20.407	170.264	 73.82657	-22.09383	 84.20625	 31.89916	 15.08196	 -3.62951	 92.18967	710.42999	 37.60	
 20.401	175.153	 73.90845	-22.39056	 84.79498	 27.07358	 19.79317	 -3.41500	 92.21262	710.35999	 37.60	
  0.141	 45.000	 92.19808	 41.26530	 39.47117	 41.74658	 37.77225	  2.15310	 92.20633	710.34998	 37.60	
  4.001	128.691	 91.74403	 32.68564	 46.60098	 49.86544	 28.59208	  1.64184	 92.22153	710.40997	 37.60	
  4.002	 76.995	 91.69417	 42.32790	 36.73901	 52.53133	 26.09816	  1.94705	 92.19710	710.46002	 37.60	
  4.002	 25.892	 91.81541	 50.63184	 28.96963	 46.41846	 31.83886	  2.14804	 92.21503	709.71997	 37.60	
  4.002	-25.892	 91.99444	 51.19367	 28.67513	 36.45179	 42.02959	  1.96634	 92.24706	709.75000	 37.70	
  4.002	-76.995	 92.03499	 43.49140	 36.17516	 29.83993	 48.95782	  1.62899	 92.23396	709.72998	 37.70	
  4.001	-128.691	 91.98247	 33.66214	 46.20921	 31.74143	 46.95707	  1.44951	 92.21284	709.65997	 37.70	
  4.000	180.000	 91.85599	 28.91497	 51.02473	 40.27277	 37.85387	  1.41167	 92.23071	709.71002	 37.70	
  8.000	180.000	 90.10246	 16.83122	 61.61102	 37.90767	 36.42559	 -0.04960	 92.23815	709.81000	 37.70	
  7.991	-152.370	 90.30073	 19.67182	 58.52518	 27.51546	 47.45136	 -0.03534	 92.22727	709.69000	 37.70	
  7.997	-124.550	 90.41276	 26.54795	 50.11026	 20.25795	 56.33252	 -0.06248	 92.22749	709.73999	 37.80	
  8.006	-96.837	 90.43551	 36.81610	 39.17455	 17.05083	 60.37374	  0.03027	 92.23056	709.75000	 37.80	
  7.988	-69.228	 90.39554	 47.78251	 28.34312	 18.70188	 58.41745	  0.24219	 92.23602	709.71997	 37.80	
  7.997	-41.563	 90.26007	 57.22456	 20.10656	 24.60731	 50.88305	  0.49255	 92.24199	709.72998	 37.80	
  8.008	-13.821	 89.99857	 62.15651	 15.91730	 34.43335	 40.13559	  0.93623	 92.17108	709.70001	 37.80	
  8.008	 13.821	 89.82326	 61.69086	 16.09533	 45.37956	 28.94577	  1.16346	 92.21542	709.73999	 37.80	
  7.997	 41.563	 89.70079	 55.45337	 20.83650	 55.40506	 20.05200	  0.92566	 92.25372	709.78998	 37.80	
  7.988	 69.228	 89.55856	 45.64358	 29.33794	 61.65363	 14.79770	  0.84141	 92.22366	709.84003	 37.80	
  8.006	 96.837	 89.54406	 34.78187	 40.19963	 62.56280	 13.90451	  0.55882	 92.16933	709.79999	 37.80	
  7.997	124.550	 89.68751	 24.91647	 50.95144	 58.11623	 17.93937	  0.32497	 92.17290	709.84003	 37.80	
  7.991	152.370	 89.87177	 18.80138	 58.98774	 48.97777	 25.78003	  0.09127	 92.19239	709.71002	 37.90	
 12.009	161.059	 86.44776	  5.02717	 68.70171	 45.65345	 23.11341	 -2.41068	 92.20620	709.79999	 37.90	
 12.013	142.081	 86.14402	  8.96906	 62.98093	 56.34829	 13.67140	 -2.61198	 92.12823	709.85999	 37.90	
 12.006	123.113	 85.97128	 16.76143	 53.83303	 64.86289	  6.26381	 -2.45542	 92.08716	709.84998	 37.90	
 12.007	104.200	 85.93191	 25.93358	 42.99371	 70.31168	  2.16263	 -2.30870	 92.18668	709.82001	 37.90	
 11.989	 85.301	 85.78136	 36.87562	 31.87963	 71.76089	  1.08267	 -1.46721	 92.13538	709.87000	 37.90	
 12.013	 66.294	 85.71192	 47.98431	 21.24298	 69.11420	  2.55741	 -1.94092	 92.17543	709.89001	 37.90	
 12.012	 47.388	 85.74950	 58.24802	 12.52229	 62.89510	  7.32387	 -1.82923	 92.17828	709.89001	 37.90	
 11.990	 28.440	 85.90852	 66.18962	  5.75200	 53.53881	 15.80561	 -1.20060	 92.14503	709.98999	 37.90	
 11.991	  9.464	 86.10278	 70.63490	  2.73870	 42.65807	 25.57131	 -1.07896	 92.14603	709.88000	 37.90	
 11.991	 -9.464	 86.35915	 71.28436	  2.71686	 31.34224	 36.98648	 -0.90395	 92.18127	709.85999	 37.90	
 11.990	-28.440	 86.47317	 67.95126	  5.21384	 21.17696	 48.34417	 -1.33645	 92.15162	709.89001	 38.00	
 12.012	-47.388	 86.61183	 60.91038	 11.51147	 12.94436	 58.64520	 -1.80461	 92.17001	709.95001	 38.00	
 12.013	-66.294	 86.73949	 50.95456	 20.05759	  6.88992	 65.87265	 -1.92869	 92.15701	709.90997	 38.00	
 11.989	-85.301	 86.88760	 39.72312	 30.08887	  4.60198	 69.19215	 -1.81905	 92.14926	709.95001	 38.00	
 12.007	-104.200	 86.98017	 28.55924	 41.56857	  5.08203	 68.69734	 -1.77862	 92.19838	709.90002	 38.00	
 12.006	-123.113	 86.94664	 19.09971	 52.61417	  8.33874	 64.21409	 -2.00220	 92.18176	709.96002	 38.00	
 12.013	-142.081	 86.92574	 10.91632	 62.06615	 15.04328	 55.85973	 -1.83393	 92.16856	709.90002	 38.00	
 12.009	-161.059	 86.77856	  6.10069	 68.15124	 23.63167	 45.32936	 -2.32685	 92.15934	709.90002	 38.10	
 16.000	180.000	 81.35320	 -8.18228	 78.23833	 29.59172	 29.64916	 -3.53798	 92.17015	709.84998	 38.10	
 15.990	-165.604	 81.58179	 -6.88984	 76.37505	 19.33973	 41.19621	 -3.23286	 92.15368	709.94000	 38.10	
 16.002	-151.165	 81.72474	 -3.30185	 71.31823	  9.11351	 52.41417	 -2.75480	 92.11304	709.92999	 38.10	
 16.002	-136.836	 81.84410	  2.01022	 63.77503	  1.59902	 62.72041	 -2.45890	 92.11246	709.84998	 38.10	
 15.995	-122.439	 81.78965	  9.69177	 53.76385	 -3.92627	 70.39228	 -2.24039	 92.15761	709.89001	 38.10	
 15.993	-107.966	 81.59512	 19.88087	 42.38473	 -7.19348	 75.64984	 -2.06817	 92.11570	710.01001	 38.10	
 16.005	-93.629	 81.59943	 30.07304	 30.98792	 -8.27265	 77.63468	 -2.14933	 92.18806	710.02002	 38.10	
 15.992	-79.234	 81.39260	 41.20868	 20.62472	 -7.83290	 76.38485	 -2.32059	 92.14000	710.06000	 38.10	
 16.009	-64.774	 81.27753	 52.51785	  9.99439	 -5.13786	 71.89044	 -2.37399	 92.13239	709.90997	 38.10	
 15.997	-50.364	 81.19470	 62.87021	  1.54971	 -0.10510	 64.70363	 -2.58161	 92.10957	709.96002	 38.10	
 15.997	-36.045	 81.03566	 70.89397	 -4.23037	  7.11344	 54.91481	 -2.63452	 92.18845	709.90002	 38.20	
 16.000	-21.597	 80.84540	 76.57837	 -8.12608	 17.02403	 43.69751	 -2.68791	 92.15246	710.03003	 38.20	
 16.003	 -7.169	 80.76089	 79.11671	 -9.76713	 27.49460	 32.08937	 -2.77179	 92.17519	710.00000	 38.20	
 16.003	  7.169	 80.52666	 78.46531	 -9.88811	 38.40216	 21.26663	 -2.83150	 92.15512	710.03003	 38.20	
 16.000	 21.597	 80.32731	 74.77499	 -7.72792	 49.68330	 10.32404	 -2.90954	 92.14745	710.06000	 38.20	
 15.997	 36.045	 80.23182	 68.22639	 -3.81118	 60.25143	  1.86502	 -3.38399	 92.17593	710.03003	 38.20	
 15.997	 50.364	 80.10775	 59.22049	  2.74569	 68.88738	 -4.25425	 -3.99573	 92.16322	710.08002	 38.20	
 16.009	 64.774	 80.12588	 48.41117	 11.56825	 75.30487	 -8.78829	 -4.25692	 92.16382	710.09003	 38.20	
 15.992	 79.234	 80.24680	 37.06062	 22.32539	 78.72448	-10.90623	 -4.45151	 92.17202	710.09003	 38.20	
 16.005	 93.629	 80.39926	 26.69994	 32.84533	 79.04498	-11.10711	 -4.53840	 92.13232	710.06000	 38.20	
 15.993	107.966	 80.55000	 16.20438	 44.27344	 76.33288	 -9.19870	 -4.52428	 92.14524	710.10999	 38.20	
 15.995	122.439	 80.61526	  6.80302	 55.36320	 70.48891	 -4.97673	 -4.55430	 92.11911	710.09998	 38.20	
 16.002	136.836	 80.76199	  0.11765	 65.17841	 62.19478	  0.84719	 -4.54090	 92.11189	710.15997	 38.20	
 16.002	151.165	 80.90224	 -5.06564	 72.36206	 51.93575	  8.95515	 -4.20136	 92.08669	710.07001	 38.20	
 15.990	165.604	 81.21577	 -7.79586	 76.91855	 40.65576	 19.48503	 -3.77504	 92.17907	710.04999	 38.20	
 20.003	168.362	 74.55425	-20.61636	 83.28989	 34.23960	 14.16613	 -3.85918	 92.12591	710.10999	 38.20	
 20.008	156.764	 74.44497	-18.46966	 79.69360	 45.74792	  4.45669	 -4.43635	 92.15128	710.25000	 38.30	
 20.000	145.147	 74.27072	-14.73226	 73.66711	 56.66480	 -3.97838	 -4.99419	 92.12983	710.17999	 38.30	
 19.995	133.545	 74.13615	 -9.45583	 65.57408	 66.48907	-11.09100	 -5.48642	 92.10773	710.15997	 38.30	
 20.009	121.926	 74.00147	 -2.45846	 55.45031	 74.69609	-16.70283	 -5.92804	 92.16608	710.16998	 38.30	
 20.005	110.327	 73.82497	  6.19185	 44.38950	 80.56336	-20.55914	 -6.19503	 92.13531	710.12000	 38.30	
 19.989	 98.733	 73.83600	 15.40579	 32.92151	 84.04858	-22.87135	 -6.37462	 92.14412	710.21002	 38.30	
 19.999	 87.075	 73.57196	 26.34949	 21.70502	 85.03661	-23.64231	 -6.57459	 92.14304	710.13000	 38.30	
 19.992	 75.457	 73.45409	 36.33305	 11.36549	 83.60908	-22.76498	 -6.20307	 92.15922	710.10999	 38.30	
 20.009	 63.844	 73.20268	 47.79113	  2.30958	 79.65919	-20.40424	 -6.00343	 92.11275	710.16998	 38.40	
 19.989	 52.269	 73.21499	 58.53512	 -5.48942	 73.23396	-16.13829	 -5.74942	 92.09031	710.13000	 38.40	
 19.999	 40.602	 73.25828	 68.19976	-12.26360	 64.92182	-10.60023	 -5.24217	 92.05920	710.19000	 38.40	
 20.004	 29.051	 73.34953	 75.80679	-17.17437	 55.06525	 -3.41717	 -4.60006	 92.09769	710.23999	 38.40	
 20.005	 17.433	 73.38317	 81.24126	-20.70146	 44.06999	  5.35494	 -3.96615	 92.08551	710.16998	 38.40	
 20.006	  5.780	 73.53156	 84.39640	-22.71157	 32.60970	 15.20590	 -3.62158	 92.06874	710.12000	 38.40	
 20.006	 -5.780	 73.73113	 85.01684	-22.56121	 22.52091	 25.87395	 -3.42055	 92.10240	710.12000	 38.40	
 20.005	-17.433	 73.85037	 83.10387	-21.13444	 11.48971	 37.26923	 -2.94709	 92.08316	710.20001	 38.40	
 20.004	-29.051	 73.98804	 78.65973	-18.19547	  2.35855	 48.91029	 -2.64738	 92.06640	710.15997	 38.40	
 19.999	-40.602	 74.15383	 71.82494	-13.68492	 -5.52294	 59.55365	 -2.38336	 92.06960	710.10999	 38.50	
 19.989	-52.269	 74.32696	 63.02127	 -7.37453	-11.75270	 69.08664	 -2.26994	 92.04254	710.20001	 38.50	
 20.009	-63.844	 74.42098	 52.69172	  0.56457	-16.38195	 76.34286	 -2.11802	 92.09538	710.22998	 38.50	
 19.992	-75.457	 74.47575	 41.52374	  9.52251	-19.54157	 81.23362	 -1.94220	 92.06792	710.15002	 38.50	
 19.999	-87.075	 74.55256	 29.93240	 20.41763	-21.10711	 83.70496	 -1.96451	 92.09003	710.12000	 38.50	
 19.989	-98.733	 74.68005	 19.87088	 30.56757	-20.83014	 83.44441	 -1.74258	 92.06905	710.20001	 38.50	
 20.005	-110.327	 74.79408	  9.74358	 41.96249	-18.87633	 80.64703	 -1.75808	 92.08408	710.15002	 38.50	
 20.009	-121.926	 74.95119	  0.85233	 53.21984	-15.39794	 75.36192	 -1.93745	 92.07436	710.21997	 38.50	
 19.995	-133.545	 75.07930	 -6.48482	 63.61300	-10.35627	 67.82052	 -2.12674	 92.09400	710.08002	 38.50	
 20.000	-145.147	 75.03369	-12.35621	 72.07170	 -3.81476	 58.08901	 -2.32053	 92.07224	710.00000	 38.50	
 20.008	-156.764	 74.90345	-16.85346	 78.67949	  3.66481	 47.21304	 -2.57393	 92.09304	709.95001	 38.50	
 20.003	-168.362	 74.87949	-19.72809	 82.72705	 13.09551	 35.67356	 -2.93942	 92.10125	710.01001	 38.50	
 20.000	180.000	 74.64672	-20.99389	 84.23167	 23.82361	 24.86621	 -3.37082	 92.09982	710.08002	 38.50	
