FileType=PCF
NHL=14
Date=08/24/17	14:58:49
Facility=APL
Serial=16328-4
Customer=NASA
NP=6
Mach=0.250000
Calibration=1:1
CalPts=490
TstPts=95
PortNumbering=AP Standard
Units=Torr C m/s kg/m^3 deg mm 
Theta[deg]	Phi[deg]	P1[Torr]	P2[Torr]	P3[Torr]	P4[Torr]	P5[Torr]	P6[Torr]	Pt[Torr]	Ps[Abs,Torr]	Ts[C]	
  0.000	  0.000	 30.92386	 16.79635	 16.74470	 16.61226	 17.03150	  0.25932	 30.88212	703.58600	 22.60	
  1.691	128.401	 30.88857	 15.81289	 17.65205	 17.77993	 15.78474	  0.23996	 30.84780	703.54700	 22.60	
  1.692	 77.194	 30.88446	 17.11938	 16.31966	 18.09997	 15.46072	  0.23137	 30.83511	703.47302	 22.60	
  1.699	 26.182	 30.88827	 18.17412	 15.29447	 17.25669	 16.27213	  0.24396	 30.83933	703.42200	 22.60	
  1.699	-26.182	 30.88535	 18.12003	 15.31305	 15.86698	 17.64990	  0.23420	 30.85177	703.58899	 22.60	
  1.692	-77.194	 30.88448	 17.03607	 16.34445	 15.06929	 18.49015	  0.22796	 30.85571	703.40100	 22.60	
  1.691	-128.401	 30.88611	 15.75469	 17.66135	 15.36425	 18.21762	  0.23911	 30.85388	703.55798	 22.60	
  1.700	180.000	 30.87306	 15.19951	 18.25551	 16.53419	 17.00528	  0.25272	 30.82952	703.53497	 22.60	
  3.400	180.000	 30.82795	 13.59648	 19.73899	 16.41565	 16.87958	  0.20162	 30.85176	703.51801	 22.60	
  3.388	-152.325	 30.78967	 13.90174	 19.33608	 15.00808	 18.29498	  0.19204	 30.81913	703.46997	 22.60	
  3.397	-124.529	 30.81376	 14.83766	 18.34076	 13.96501	 19.43401	  0.17986	 30.86146	703.44897	 22.60	
  3.399	-96.763	 30.75879	 16.14681	 16.88270	 13.44610	 19.92198	  0.16524	 30.80533	703.46997	 22.50	
  3.394	-69.283	 30.81604	 17.62418	 15.48037	 13.64020	 19.75447	  0.17496	 30.85497	703.40002	 22.50	
  3.400	-41.398	 30.79594	 18.88817	 14.26595	 14.41862	 18.86635	  0.17690	 30.82343	703.45697	 22.50	
  3.401	-14.021	 30.81267	 19.63869	 13.60987	 15.65298	 17.55961	  0.18162	 30.82600	703.42297	 22.50	
  3.401	 14.021	 30.82532	 19.69168	 13.58372	 17.17278	 16.07061	  0.19579	 30.82717	703.45697	 22.50	
  3.400	 41.398	 30.84654	 19.03403	 14.24508	 18.52731	 14.81352	  0.21438	 30.83755	703.39398	 22.50	
  3.394	 69.283	 30.83489	 17.79889	 15.43314	 19.39249	 14.00234	  0.21230	 30.82300	703.40302	 22.50	
  3.399	 96.763	 30.81438	 16.32648	 16.86516	 19.55580	 13.85610	  0.21298	 30.79149	703.47101	 22.50	
  3.397	124.529	 30.90607	 14.98065	 18.35790	 19.06409	 14.41881	  0.21531	 30.89555	703.59698	 22.50	
  3.388	152.325	 30.90285	 13.99556	 19.39523	 17.91111	 15.49152	  0.20243	 30.90107	703.46002	 22.50	
  5.099	161.165	 30.78469	 12.24524	 20.91190	 17.78576	 15.22292	  0.10626	 30.92489	703.52698	 22.50	
  5.109	142.013	 30.72023	 12.94087	 20.09501	 19.12622	 13.93072	  0.06077	 30.85101	703.42200	 22.50	
  5.095	123.033	 30.76777	 14.04929	 18.93472	 20.21434	 12.99822	  0.08351	 30.87265	703.48499	 22.50	
  5.105	104.191	 30.69711	 15.37811	 17.44287	 20.82170	 12.37282	  0.09720	 30.79601	703.56702	 22.50	
  5.093	 85.207	 30.71348	 16.90743	 15.91935	 20.94779	 12.24864	  0.05381	 30.81350	703.50500	 22.50	
  5.104	 66.290	 30.68595	 18.38437	 14.45128	 20.57279	 12.52631	  0.11064	 30.79711	703.51300	 22.50	
  5.094	 47.331	 30.71047	 19.69787	 13.23567	 19.69998	 13.32081	  0.11119	 30.82197	703.45697	 22.50	
  5.089	 28.397	 30.70070	 20.64605	 12.33375	 18.44882	 14.42635	  0.10561	 30.81740	703.44897	 22.50	
  5.096	  9.576	 30.70414	 21.15035	 11.87993	 16.97897	 15.82244	  0.09138	 30.84946	703.38397	 22.50	
  5.096	 -9.576	 30.69166	 21.07515	 11.91516	 15.40895	 17.37552	  0.03841	 30.85383	703.46198	 22.50	
  5.089	-28.397	 30.68010	 20.53404	 12.37042	 14.05559	 18.81329	  0.08428	 30.86992	703.43903	 22.40	
  5.094	-47.331	 30.63533	 19.48327	 13.25008	 12.90633	 20.04060	  0.01006	 30.82455	703.44202	 22.40	
  5.104	-66.290	 30.60919	 18.14721	 14.46182	 12.10401	 20.93837	 -0.03236	 30.82537	703.50800	 22.40	
  5.093	-85.207	 30.63870	 16.66603	 15.91955	 11.75226	 21.37134	  0.04593	 30.86174	703.32202	 22.40	
  5.105	-104.191	 30.56032	 15.13679	 17.43316	 11.85994	 21.20755	  0.05306	 30.79164	703.38702	 22.40	
  5.095	-123.033	 30.61649	 13.83665	 18.92046	 12.46989	 20.60692	  0.07587	 30.84303	703.40900	 22.40	
  5.109	-142.013	 30.61205	 12.79890	 20.10264	 13.43830	 19.53004	  0.09549	 30.83197	703.39099	 22.40	
  5.099	-161.165	 30.63005	 12.15552	 20.86130	 14.72231	 18.14219	  0.09832	 30.82657	703.36102	 22.40	
  5.100	180.000	 30.68395	 11.96183	 21.13013	 16.20431	 16.65446	  0.07103	 30.85147	703.44897	 22.40	
  6.800	180.000	 30.43579	 10.22743	 22.49443	 15.89724	 16.35547	 -0.12282	 30.86291	703.40900	 22.40	
  6.796	-166.229	 30.36451	 10.33960	 22.28126	 14.42270	 17.81358	 -0.12346	 30.82709	703.29303	 22.40	
  6.808	-152.311	 30.34936	 10.79730	 21.72837	 13.08353	 19.24991	 -0.14396	 30.84830	703.35498	 22.40	
  6.795	-138.383	 30.31473	 11.55067	 20.79977	 11.91838	 20.52950	 -0.11655	 30.83136	703.34198	 22.30	
  6.792	-124.591	 30.30076	 12.54662	 19.62013	 10.98189	 21.57167	 -0.16893	 30.83502	703.33899	 22.30	
  6.787	-110.754	 30.30818	 13.78572	 18.24727	 10.34881	 22.29389	 -0.20689	 30.85034	703.40002	 22.30	
  6.800	-96.985	 30.31551	 15.15380	 16.76612	 10.00119	 22.67005	 -0.22750	 30.84016	703.40900	 22.30	
  6.800	-83.015	 30.29819	 16.65254	 15.22743	  9.95828	 22.64433	 -0.24343	 30.81165	703.45599	 22.30	
  6.787	-69.246	 30.33718	 18.13725	 13.84330	 10.30006	 22.26488	 -0.24991	 30.84093	703.31500	 22.30	
  6.792	-55.409	 30.34192	 19.51917	 12.57501	 10.92658	 21.54106	 -0.20219	 30.83479	703.32202	 22.30	
  6.795	-41.617	 30.35056	 20.72000	 11.52475	 11.86737	 20.47976	 -0.21231	 30.83071	703.37000	 22.30	
  6.808	-27.689	 30.36503	 21.66378	 10.72642	 13.07886	 19.18550	 -0.17471	 30.82714	703.29700	 22.30	
  6.796	-13.771	 30.41459	 22.28268	 10.24870	 14.42721	 17.75191	 -0.12843	 30.84503	703.26599	 22.30	
  6.800	  0.000	 30.47249	 22.54482	 10.09146	 15.88234	 16.29703	 -0.14620	 30.87828	703.29700	 22.30	
  6.796	 13.771	 30.45455	 22.37994	 10.23166	 17.37609	 14.81534	 -0.08235	 30.81995	703.45300	 22.30	
  6.808	 27.689	 30.47558	 21.85274	 10.70751	 18.83733	 13.46670	 -0.11957	 30.82623	703.33502	 22.30	
  6.795	 41.617	 30.48096	 20.98320	 11.50391	 20.11339	 12.32942	 -0.11314	 30.81382	703.25897	 22.30	
  6.792	 55.409	 30.47441	 19.81082	 12.55725	 21.16905	 11.42421	 -0.11166	 30.80877	703.28802	 22.30	
  6.787	 69.246	 30.51417	 18.48365	 13.83870	 21.93594	 10.81803	 -0.10617	 30.84600	703.29102	 22.30	
  6.800	 83.015	 30.45677	 16.98888	 15.21298	 22.29839	 10.47184	 -0.11975	 30.78887	703.39203	 22.30	
  6.800	 96.985	 30.50034	 15.51998	 16.73142	 22.32820	 10.51180	 -0.10900	 30.82744	703.33002	 22.20	
  6.787	110.754	 30.51334	 14.10470	 18.24598	 21.92419	 10.87331	 -0.12416	 30.83809	703.18701	 22.20	
  6.792	124.591	 30.51642	 12.81831	 19.63007	 21.17515	 11.51444	 -0.11050	 30.83740	703.34399	 22.20	
  6.795	138.383	 30.50136	 11.75789	 20.80376	 20.12284	 12.44347	 -0.12556	 30.84952	703.30701	 22.20	
  6.808	152.311	 30.48117	 10.92147	 21.74401	 18.82541	 13.58195	 -0.09997	 30.84425	703.27002	 22.20	
  6.796	166.229	 30.45031	 10.40745	 22.28901	 17.40715	 14.88430	 -0.11365	 30.84548	703.33801	 22.20	
  8.491	168.704	 30.11155	  8.63183	 23.61081	 17.07136	 14.45735	 -0.32795	 30.86333	703.42499	 22.20	
  8.502	157.493	 30.11445	  9.02639	 23.12800	 18.54047	 13.06492	 -0.19068	 30.84930	703.29602	 22.20	
  8.494	146.194	 30.11947	  9.70720	 22.32740	 19.93684	 11.80247	 -0.32838	 30.83015	703.23499	 22.20	
  8.495	135.039	 30.17871	 10.62578	 21.32305	 21.21135	 10.72767	 -0.34701	 30.86379	703.22101	 22.20	
  8.487	123.723	 30.22467	 11.74812	 20.08926	 22.27535	  9.87967	 -0.35756	 30.88855	703.36298	 22.20	
  8.492	112.575	 30.15396	 12.98480	 18.64816	 22.97692	  9.26364	 -0.37280	 30.81909	703.21802	 22.20	
  8.510	101.220	 30.14885	 14.39473	 17.13388	 23.45807	  8.87139	 -0.38048	 30.81335	703.28802	 22.20	
  8.500	 90.000	 30.17986	 15.90386	 15.62550	 23.62228	  8.76540	 -0.36093	 30.83927	703.36603	 22.20	
  8.510	 78.780	 30.19656	 17.43711	 14.12231	 23.48250	  8.87986	 -0.33421	 30.86028	703.18597	 22.20	
  8.492	 67.425	 30.16095	 18.91038	 12.69472	 22.97403	  9.23868	 -0.32332	 30.82601	703.32397	 22.20	
  8.487	 56.277	 30.15137	 20.27057	 11.44053	 22.20040	  9.82739	 -0.31994	 30.82113	703.25702	 22.20	
  8.495	 44.961	 30.15247	 21.50299	 10.32601	 21.15605	 10.66390	 -0.32311	 30.82298	703.30103	 22.20	
  8.494	 33.806	 30.12291	 22.47946	  9.44575	 19.88871	 11.72243	 -0.34042	 30.79442	703.30499	 22.20	
  8.502	 22.507	 30.14445	 23.25074	  8.82632	 18.51014	 12.97497	 -0.37366	 30.84454	703.33502	 22.20	
  8.491	 11.296	 30.13083	 23.66863	  8.47125	 17.02427	 14.36229	 -0.40265	 30.85168	703.25201	 22.20	
  8.500	  0.000	 30.07340	 23.78394	  8.33972	 15.44696	 15.87197	 -0.39014	 30.83019	703.31500	 22.20	
  8.491	-11.296	 30.02120	 23.55363	  8.47968	 13.96087	 17.38322	 -0.38570	 30.81201	703.10699	 22.20	
  8.502	-22.507	 30.04209	 23.08690	  8.87028	 12.58562	 18.88400	 -0.42043	 30.86728	703.15198	 22.20	
  8.494	-33.806	 29.97072	 22.23443	  9.47466	 11.27273	 20.27460	 -0.43317	 30.82486	703.30402	 22.20	
  8.495	-44.961	 29.93065	 21.18250	 10.31799	 10.16339	 21.50403	 -0.45284	 30.81398	703.33801	 22.20	
  8.487	-56.277	 29.96456	 19.93582	 11.43861	  9.31601	 22.54156	 -0.49035	 30.85318	703.25201	 22.20	
  8.492	-67.425	 29.91615	 18.52011	 12.67419	  8.66868	 23.27877	 -0.52453	 30.82208	703.36902	 22.20	
  8.510	-78.780	 29.94181	 17.01931	 14.10672	  8.28845	 23.81060	 -0.52605	 30.86213	703.32397	 22.20	
  8.500	-90.000	 29.90414	 15.47240	 15.59358	  8.13682	 23.95189	 -0.49979	 30.83453	703.33502	 22.20	
  8.510	-101.220	 29.92965	 13.97356	 17.15093	  8.27560	 23.84830	 -0.46996	 30.87463	703.31097	 22.20	
  8.492	-112.575	 29.94093	 12.58702	 18.68412	  8.70328	 23.37855	 -0.43332	 30.88289	703.16699	 22.20	
  8.487	-123.723	 29.87588	 11.34729	 20.03138	  9.31562	 22.57948	 -0.39792	 30.82155	703.14099	 22.20	
  8.495	-135.039	 29.95491	 10.30838	 21.33588	 10.18103	 21.63072	 -0.36539	 30.90316	703.15601	 22.20	
  8.494	-146.194	 29.94387	  9.47581	 22.34953	 11.27249	 20.36632	 -0.34542	 30.86544	703.17999	 22.20	
  8.502	-157.493	 29.95219	  8.87257	 23.11298	 12.56262	 18.92991	 -0.36540	 30.83210	703.14203	 22.20	
  8.491	-168.704	 30.01456	  8.56046	 23.59394	 13.99906	 17.47221	 -0.35299	 30.84995	703.27399	 22.20	
  8.500	180.000	 30.07757	  8.47001	 23.77948	 15.51248	 15.96152	 -0.34333	 30.87290	703.18103	 22.20	
 10.200	180.000	 29.54679	  6.65956	 24.92842	 15.02614	 15.45942	 -0.60837	 30.82591	703.23999	 22.20	
 10.191	-170.497	 29.53133	  6.73743	 24.81106	 13.52196	 17.00926	 -0.60313	 30.85503	703.28802	 22.20	
 10.210	-161.034	 29.48829	  7.00011	 24.41536	 12.06213	 18.53290	 -0.60998	 30.87800	703.28497	 22.20	
 10.194	-151.526	 29.46564	  7.48614	 23.75113	 10.69039	 20.02519	 -0.59784	 30.88559	703.24200	 22.20	
 10.190	-142.105	 29.38933	  8.13562	 22.80630	  9.47646	 21.33936	 -0.58471	 30.85603	703.17200	 22.10	
 10.215	-132.646	 29.37289	  8.98313	 21.69872	  8.45799	 22.53833	 -0.60343	 30.85865	704.97302	 22.20	
 10.203	-123.092	 29.36261	 10.08404	 20.38349	  7.62729	 23.55553	 -0.63185	 30.85874	703.76703	 22.20	
 10.192	-113.678	 29.37910	 11.33153	 18.96077	  6.99501	 24.34588	 -0.68517	 30.87149	703.12201	 22.20	
 10.208	-104.249	 29.37414	 12.69295	 17.46297	  6.56788	 24.87989	 -0.74664	 30.86305	703.15802	 22.20	
 10.210	-94.801	 29.40048	 14.17967	 15.92060	  6.33366	 25.17785	 -0.78301	 30.88249	703.17798	 22.20	
 10.210	-85.199	 29.38502	 15.71658	 14.33686	  6.34618	 25.14115	 -0.80915	 30.85523	702.98602	 22.20	
 10.208	-75.751	 29.42359	 17.28139	 12.86586	  6.56833	 24.88605	 -0.81401	 30.87789	702.95502	 22.20	
 10.192	-66.322	 29.42666	 18.80026	 11.48723	  7.00959	 24.30097	 -0.80414	 30.85366	704.76801	 22.20	
 10.203	-56.908	 29.46387	 20.26249	 10.22346	  7.62525	 23.53494	 -0.76633	 30.87505	704.74298	 22.20	
 10.215	-47.354	 29.46507	 21.59142	  9.10049	  8.44698	 22.50922	 -0.72223	 30.87183	703.39203	 22.20	
 10.190	-37.895	 29.48465	 22.71519	  8.22819	  9.48280	 21.29982	 -0.69568	 30.85454	704.74200	 22.20	
 10.194	-28.474	 29.52952	 23.66398	  7.51457	 10.67683	 19.96694	 -0.65804	 30.87645	704.73901	 22.20	
 10.210	-18.966	 29.57531	 24.38550	  6.98102	 12.03726	 18.48312	 -0.64980	 30.89017	703.67798	 22.20	
 10.191	 -9.503	 29.62779	 24.82378	  6.69110	 13.51192	 16.96277	 -0.65356	 30.89014	703.27002	 22.20	
 10.200	  0.000	 29.60647	 24.96646	  6.53298	 14.96524	 15.39155	 -0.64121	 30.83146	703.06799	 22.20	
 10.191	  9.503	 29.67626	 24.90647	  6.65768	 16.54942	 13.88377	 -0.65009	 30.86348	703.14398	 22.20	
 10.210	 18.966	 29.69263	 24.55270	  6.94768	 18.07186	 12.44349	 -0.64534	 30.84938	704.82898	 22.20	
 10.194	 28.474	 29.70617	 23.89450	  7.48167	 19.53003	 11.14864	 -0.61853	 30.83571	703.09601	 22.20	
 10.190	 37.895	 29.73728	 23.03179	  8.20319	 20.92472	  9.97228	 -0.58560	 30.85671	703.15198	 22.20	
 10.215	 47.354	 29.71449	 21.93570	  9.08319	 22.14243	  8.95493	 -0.55019	 30.83399	703.12500	 22.20	
 10.203	 56.908	 29.73767	 20.68257	 10.22052	 23.17901	  8.17561	 -0.54369	 30.85304	703.19000	 22.20	
 10.192	 66.322	 29.72975	 19.26818	 11.48623	 23.96552	  7.59093	 -0.54967	 30.84422	703.19501	 22.20	
 10.208	 75.751	 29.70327	 17.77588	 12.85214	 24.51843	  7.16389	 -0.59187	 30.82867	703.33600	 22.20	
 10.210	 85.199	 29.72158	 16.25446	 14.35206	 24.79534	  6.99528	 -0.63110	 30.83681	703.09900	 22.20	
 10.210	 94.801	 29.69098	 14.67674	 15.90915	 24.77051	  6.99786	 -0.65909	 30.80247	703.07098	 22.20	
 10.208	104.249	 29.75397	 13.23504	 17.48158	 24.55353	  7.21979	 -0.67283	 30.86369	703.64600	 22.20	
 10.192	113.678	 29.72435	 11.82900	 18.97227	 23.97219	  7.64366	 -0.64966	 30.83176	703.11401	 22.20	
 10.203	123.092	 29.74940	 10.57981	 20.40439	 23.22811	  8.23337	 -0.62963	 30.86167	703.46503	 22.20	
 10.215	132.646	 29.74305	  9.41920	 21.72587	 22.23152	  8.98478	 -0.60212	 30.87850	704.81097	 22.20	
 10.190	142.105	 29.71078	  8.46493	 22.82733	 20.97934	 10.02167	 -0.56209	 30.85817	704.38800	 22.20	
 10.194	151.526	 29.68483	  7.74025	 23.72330	 19.60668	 11.20871	 -0.55328	 30.85009	703.08502	 22.20	
 10.210	161.034	 29.67317	  7.18924	 24.42114	 18.14137	 12.52493	 -0.56897	 30.87510	703.07300	 22.20	
 10.191	170.497	 29.61437	  6.83807	 24.79527	 16.62608	 13.94542	 -0.58326	 30.83731	703.03699	 22.20	
 11.899	171.783	 29.03235	  5.01987	 25.91471	 16.08284	 13.39144	 -0.84994	 30.85639	703.09302	 22.20	
 11.890	163.610	 29.08766	  5.34543	 25.55430	 17.63915	 11.95899	 -0.82045	 30.85983	703.36700	 22.20	
 11.889	155.445	 29.11495	  5.82511	 24.96091	 19.15384	 10.59048	 -0.80801	 30.85251	703.46503	 22.20	
 11.909	147.299	 29.12589	  6.43794	 24.17242	 20.59462	  9.33983	 -0.80032	 30.84488	702.99799	 22.20	
 11.902	139.148	 29.12661	  7.22381	 23.15128	 21.90614	  8.24828	 -0.81583	 30.82262	703.05499	 22.20	
 11.894	130.867	 29.17628	  8.21154	 21.98180	 23.08421	  7.37375	 -0.85198	 30.83755	703.07599	 22.20	
 11.897	122.732	 29.14228	  9.32527	 20.65866	 24.05107	  6.60361	 -0.89100	 30.80011	703.81097	 22.20	
 11.903	114.597	 29.15196	 10.57893	 19.24026	 24.87034	  6.00853	 -0.92698	 30.82392	703.06299	 22.20	
 11.893	106.346	 29.16433	 11.98292	 17.71282	 25.46541	  5.58261	 -0.96059	 30.82100	703.91199	 22.20	
 11.892	 98.155	 29.17218	 13.44776	 16.16589	 25.82310	  5.32030	 -0.95639	 30.83663	704.70599	 22.30	
 11.900	 90.000	 29.18866	 14.96612	 14.61566	 25.95515	  5.20305	 -0.92632	 30.85651	704.64203	 22.30	
 11.892	 81.845	 29.17014	 16.51467	 13.08569	 25.80177	  5.27966	 -0.87121	 30.84033	704.70398	 22.30	
 11.893	 73.654	 29.13572	 18.03417	 11.60465	 25.40038	  5.51956	 -0.82753	 30.80035	704.69397	 22.30	
 11.903	 65.403	 29.12781	 19.53085	 10.21900	 24.78788	  5.94278	 -0.77182	 30.79290	704.53998	 22.30	
 11.897	 57.268	 29.18217	 20.97369	  8.97660	 24.00701	  6.54469	 -0.74639	 30.84560	704.60797	 22.30	
 11.894	 49.133	 29.19512	 22.26704	  7.90050	 22.99913	  7.31974	 -0.76242	 30.85373	703.97998	 22.30	
 11.902	 40.852	 29.13631	 23.37746	  6.90423	 21.78184	  8.22949	 -0.79597	 30.79884	704.50598	 22.30	
 11.909	 32.701	 29.14745	 24.36002	  6.12671	 20.47370	  9.29300	 -0.87223	 30.82181	704.58801	 22.30	
 11.889	 24.555	 29.13001	 25.09945	  5.54414	 19.01812	 10.54679	 -0.89012	 30.81455	704.63300	 22.30	
 11.890	 16.390	 29.09095	 25.63504	  5.11940	 17.51797	 11.88153	 -0.89752	 30.79882	704.51398	 22.30	
 11.899	  8.217	 29.06172	 25.95047	  4.85682	 15.98843	 13.30708	 -0.90119	 30.80291	704.56500	 22.30	
 11.900	  0.000	 29.03325	 26.03168	  4.75484	 14.41939	 14.84409	 -0.91416	 30.82439	704.68298	 22.30	
 11.899	 -8.217	 28.93551	 25.83118	  4.84768	 12.87267	 16.36072	 -0.89841	 30.77398	704.58698	 22.30	
 11.890	-16.390	 28.91992	 25.45436	  5.13107	 11.43892	 17.89892	 -0.89424	 30.79816	704.56500	 22.30	
 11.889	-24.555	 28.88439	 24.85300	  5.55908	 10.05712	 19.41555	 -0.89562	 30.81046	704.35999	 22.30	
 11.909	-32.701	 28.81854	 24.00967	  6.14662	  8.77871	 20.82874	 -0.90782	 30.78250	704.52600	 22.30	
 11.902	-40.852	 28.79573	 22.98054	  6.93414	  7.73320	 22.13181	 -0.94351	 30.78245	704.43799	 22.30	
 11.894	-49.133	 28.79205	 21.77734	  7.88862	  6.80843	 23.33221	 -0.97684	 30.80889	704.57599	 22.30	
 11.897	-57.268	 28.79852	 20.45735	  8.96922	  5.97594	 24.35512	 -1.01585	 30.84325	704.55701	 22.30	
 11.903	-65.403	 28.76354	 18.98055	 10.19130	  5.35291	 25.13278	 -1.04663	 30.82384	704.49298	 22.30	
 11.893	-73.654	 28.74832	 17.43926	 11.57075	  4.92380	 25.70227	 -1.03788	 30.81203	704.53802	 22.30	
 11.892	-81.845	 28.68934	 15.85808	 13.01714	  4.66834	 26.01704	 -1.04292	 30.76645	704.61603	 22.30	
 11.900	-90.000	 28.72931	 14.33441	 14.55407	  4.57792	 26.20290	 -1.04210	 30.82695	704.56000	 22.30	
 11.892	-98.155	 28.71805	 12.82679	 16.09667	  4.65651	 26.08163	 -1.02291	 30.82365	704.51501	 22.30	
 11.893	-106.346	 28.69135	 11.37769	 17.63396	  4.89107	 25.73610	 -0.96614	 30.80697	704.60199	 22.30	
 11.903	-114.597	 28.67660	 10.01156	 19.15487	  5.28561	 25.17711	 -0.92128	 30.81990	704.50299	 22.30	
 11.897	-122.732	 28.64197	  8.77916	 20.56400	  5.90756	 24.35021	 -0.85616	 30.77626	704.56897	 22.30	
 11.894	-130.867	 28.65213	  7.71172	 21.89033	  6.71994	 23.35501	 -0.81322	 30.77383	704.48102	 22.30	
 11.902	-139.148	 28.69435	  6.83250	 23.10505	  7.73117	 22.17106	 -0.81169	 30.78929	704.38501	 22.30	
 11.909	-147.299	 28.74160	  6.10209	 24.12111	  8.83568	 20.89255	 -0.85439	 30.81240	704.40302	 22.30	
 11.889	-155.445	 28.78336	  5.57770	 24.91363	 10.09227	 19.47722	 -0.88095	 30.80144	704.48999	 22.30	
 11.890	-163.610	 28.81308	  5.16086	 25.48827	 11.46784	 17.95025	 -0.88679	 30.77696	704.47601	 22.30	
 11.899	-171.783	 28.86618	  4.90685	 25.86546	 12.93320	 16.43453	 -0.88976	 30.80047	704.45502	 22.30	
 11.900	180.000	 28.93902	  4.86656	 25.99618	 14.47160	 14.91376	 -0.87573	 30.81355	704.46198	 22.30	
 13.600	180.000	 28.21275	  3.08609	 26.94625	 13.81768	 14.25904	 -1.12505	 30.77522	704.54901	 22.30	
 13.608	-172.853	 28.16415	  3.11415	 26.86208	 12.30191	 15.77055	 -1.14225	 30.79411	704.59399	 22.30	
 13.611	-165.583	 28.13625	  3.31232	 26.57931	 10.83315	 17.32786	 -1.15364	 30.82821	704.55402	 22.30	
 13.601	-158.353	 28.07332	  3.67723	 26.02888	  9.44407	 18.86718	 -1.14269	 30.81262	702.80902	 22.30	
 13.609	-151.210	 28.02671	  4.14212	 25.31350	  8.18105	 20.30768	 -1.12765	 30.80786	704.37402	 22.40	
 13.611	-143.999	 27.98857	  4.78337	 24.41257	  7.02230	 21.69484	 -1.06334	 30.81794	704.39301	 22.40	
 13.601	-136.825	 27.94072	  5.53350	 23.30759	  5.96639	 22.95608	 -1.03296	 30.78321	703.09100	 22.40	
 13.596	-129.640	 27.93028	  6.44831	 22.08915	  5.05839	 24.11338	 -1.02625	 30.79904	704.50598	 22.40	
 13.611	-122.431	 27.87664	  7.47816	 20.71228	  4.26545	 25.06398	 -1.04541	 30.74800	704.41602	 22.40	
 13.604	-115.211	 27.89229	  8.68696	 19.27669	  3.67895	 25.87101	 -1.12060	 30.75867	704.47803	 22.40	
 13.595	-108.042	 27.93650	  9.99976	 17.78304	  3.25895	 26.48871	 -1.16465	 30.79509	704.53699	 22.40	
 13.607	-100.793	 27.97203	 11.41807	 16.23543	  2.94556	 26.93271	 -1.17446	 30.82425	704.53198	 22.40	
 13.601	-93.617	 27.94727	 12.87927	 14.67204	  2.80248	 27.10770	 -1.18984	 30.79058	704.42200	 22.40	
 13.601	-86.383	 27.96738	 14.40932	 13.13614	  2.81993	 27.12315	 -1.17401	 30.80401	704.59399	 22.40	
 13.607	-79.207	 27.96517	 15.93016	 11.64834	  2.93564	 26.90941	 -1.16353	 30.79386	704.53198	 22.40	
 13.595	-71.958	 27.99419	 17.51743	 10.22286	  3.25107	 26.48041	 -1.16572	 30.78783	704.44702	 22.40	
 13.604	-64.789	 28.02575	 19.07542	  8.90968	  3.69292	 25.89528	 -1.17362	 30.81792	704.44397	 22.40	
 13.611	-57.569	 28.03650	 20.53790	  7.70032	  4.31823	 25.09250	 -1.15415	 30.81799	704.40302	 22.40	
 13.596	-50.360	 28.05037	 21.89768	  6.62576	  5.07843	 24.10367	 -1.13882	 30.80562	702.77502	 22.40	
 13.601	-43.175	 28.11266	 23.18121	  5.67293	  5.98163	 22.98255	 -1.12559	 30.84139	704.50299	 22.40	
 13.611	-36.001	 28.14085	 24.29141	  4.83159	  7.00700	 21.69822	 -1.10194	 30.83890	704.62701	 22.40	
 13.609	-28.790	 28.18776	 25.24266	  4.15380	  8.12413	 20.31514	 -1.08498	 30.84893	704.59100	 22.40	
 13.601	-21.647	 28.21598	 25.96363	  3.65301	  9.39447	 18.84812	 -1.08042	 30.83300	704.51099	 22.40	
 13.611	-14.417	 28.22894	 26.50014	  3.27597	 10.79491	 17.27823	 -1.08180	 30.80403	704.50598	 22.40	
 13.608	 -7.147	 28.26709	 26.82575	  3.05442	 12.27044	 15.71226	 -1.08122	 30.78334	704.45203	 22.40	
 13.600	  0.000	 28.36001	 27.01209	  2.96283	 13.78007	 14.22033	 -1.08747	 30.82575	704.48999	 22.40	
 13.608	  7.147	 28.39603	 26.95395	  3.02389	 15.32413	 12.69230	 -1.09204	 30.81553	704.34900	 22.40	
 13.611	 14.417	 28.44821	 26.70552	  3.24607	 16.87836	 11.24651	 -1.10745	 30.82553	704.41400	 22.40	
 13.601	 21.647	 28.52501	 26.25414	  3.63645	 18.43894	  9.89881	 -1.11512	 30.86798	704.50897	 22.40	
 13.609	 28.790	 28.47674	 25.52343	  4.16644	 19.88787	  8.62200	 -1.10687	 30.80127	704.46198	 22.40	
 13.611	 36.001	 28.51191	 24.69477	  4.78453	 21.30599	  7.49941	 -1.05905	 30.83273	704.40302	 22.40	
 13.601	 43.175	 28.56322	 23.69112	  5.62574	 22.62812	  6.51727	 -1.00149	 30.87508	704.36200	 22.40	
 13.596	 50.360	 28.48893	 22.46612	  6.60280	 23.74187	  5.59478	 -0.96086	 30.79846	704.27301	 22.40	
 13.611	 57.569	 28.53121	 21.21219	  7.66798	 24.82419	  4.81994	 -0.96695	 30.87943	704.30902	 22.40	
 13.604	 64.789	 28.53407	 19.78156	  8.90166	 25.65423	  4.23058	 -0.99480	 30.87430	704.37201	 22.40	
 13.595	 71.958	 28.46854	 18.24590	 10.23714	 26.22438	  3.81028	 -1.04779	 30.80804	704.35101	 22.40	
 13.607	 79.207	 28.54383	 16.74183	 11.70839	 26.71642	  3.54587	 -1.11840	 30.87847	704.38501	 22.40	
 13.601	 86.383	 28.54132	 15.20068	 13.22560	 26.92438	  3.42879	 -1.15835	 30.87814	704.41400	 22.40	
 13.601	 93.617	 28.55314	 13.65444	 14.79061	 26.94743	  3.44806	 -1.19449	 30.87728	704.42102	 22.40	
 13.607	100.793	 28.54851	 12.13437	 16.33235	 26.74987	  3.64165	 -1.19977	 30.88367	704.25800	 22.50	
 13.595	108.042	 28.55613	 10.68653	 17.89437	 26.33292	  3.93162	 -1.20115	 30.88811	704.19299	 22.40	
 13.604	115.211	 28.53293	  9.32486	 19.39553	 25.70964	  4.36499	 -1.19476	 30.86266	704.36200	 22.50	
 13.611	122.431	 28.55464	  8.07403	 20.86735	 24.92344	  4.97241	 -1.14995	 30.88247	704.31702	 22.40	
 13.596	129.640	 28.54837	  6.97827	 22.21200	 23.92369	  5.69463	 -1.09641	 30.86573	704.31201	 22.40	
 13.601	136.825	 28.56828	  6.04459	 23.46128	 22.77280	  6.60244	 -1.08532	 30.89899	704.38300	 22.50	
 13.611	143.999	 28.51213	  5.19057	 24.50333	 21.47679	  7.54045	 -1.05404	 30.87393	704.36902	 22.50	
 13.609	151.210	 28.46385	  4.48175	 25.36601	 20.05521	  8.64492	 -1.05085	 30.85495	704.28198	 22.40	
 13.601	158.353	 28.43510	  3.93545	 26.07116	 18.54971	  9.94533	 -1.05296	 30.84315	704.30402	 22.40	
 13.611	165.583	 28.38855	  3.49408	 26.59997	 16.98914	 11.32716	 -1.08247	 30.84293	704.21698	 22.40	
 13.608	172.853	 28.34054	  3.20331	 26.91729	 15.42486	 12.76920	 -1.11537	 30.85455	704.25897	 22.40	
 15.298	173.587	 27.56919	  1.46514	 27.79564	 14.74701	 12.07135	 -1.32529	 30.85873	704.28601	 22.50	
 15.291	167.167	 27.64122	  1.68808	 27.53548	 16.29978	 10.64990	 -1.30218	 30.87909	704.20001	 22.50	
 15.307	160.676	 27.66359	  2.09714	 27.04758	 17.85376	  9.25452	 -1.27997	 30.84480	704.26703	 22.50	
 15.300	154.261	 27.67986	  2.56766	 26.40497	 19.37601	  7.93052	 -1.26330	 30.82928	704.36603	 22.50	
 15.288	147.854	 27.71456	  3.17096	 25.60992	 20.81659	  6.84494	 -1.24877	 30.83217	704.28998	 22.50	
 15.293	141.428	 27.75125	  3.92237	 24.64128	 22.18879	  5.82149	 -1.25253	 30.84756	704.21698	 22.50	
 15.299	134.985	 27.78082	  4.75968	 23.52460	 23.47040	  4.81685	 -1.27332	 30.86261	704.35498	 22.50	
 15.305	128.583	 27.77675	  5.72283	 22.25807	 24.60429	  3.96470	 -1.30206	 30.85459	704.33502	 22.40	
 15.309	122.142	 27.74920	  6.76480	 20.87229	 25.57188	  3.25829	 -1.32087	 30.82253	704.34900	 22.40	
 15.304	115.711	 27.79489	  8.00904	 19.45503	 26.39540	  2.72399	 -1.32861	 30.86550	704.33398	 22.50	
 15.297	109.291	 27.78854	  9.33267	 17.94197	 27.02319	  2.28900	 -1.31099	 30.86656	704.32599	 22.50	
 15.293	102.897	 27.73628	 10.72977	 16.36859	 27.42687	  1.92241	 -1.30467	 30.81365	704.36902	 22.40	
 15.293	 96.458	 27.75062	 12.19846	 14.83150	 27.72077	  1.72494	 -1.29396	 30.82211	704.20599	 22.50	
 15.300	 90.000	 27.75494	 13.71408	 13.28944	 27.81721	  1.63445	 -1.29925	 30.84016	704.41302	 22.50	
 15.293	 83.542	 27.75647	 15.29432	 11.76642	 27.69979	  1.70182	 -1.29467	 30.84383	704.33698	 22.40	
 15.293	 77.103	 27.77014	 16.85040	 10.30386	 27.40360	  1.89288	 -1.26112	 30.84851	704.26202	 22.40	
 15.297	 70.709	 27.78189	 18.38495	  8.91252	 26.94053	  2.19335	 -1.21492	 30.86289	704.19897	 22.50	
 15.304	 64.289	 27.75228	 19.84980	  7.57445	 26.25474	  2.60580	 -1.16549	 30.82509	704.35999	 22.50	
 15.309	 57.858	 27.74516	 21.26815	  6.37507	 25.42937	  3.17122	 -1.13494	 30.81749	704.34497	 22.50	
 15.305	 51.417	 27.77014	 22.62140	  5.30890	 24.45019	  3.88652	 -1.12537	 30.84055	704.23401	 22.40	
 15.299	 45.015	 27.79344	 23.84677	  4.34013	 23.31362	  4.74236	 -1.15461	 30.85115	704.27502	 22.40	
 15.293	 38.572	 27.77300	 24.89869	  3.53198	 22.01142	  5.73111	 -1.17505	 30.81310	704.36798	 22.40	
 15.288	 32.146	 27.75600	 25.81650	  2.81721	 20.64843	  6.78255	 -1.20288	 30.80114	704.31702	 22.50	
 15.300	 25.739	 27.76221	 26.60455	  2.17384	 19.22323	  7.93469	 -1.21288	 30.83550	704.12598	 22.40	
 15.307	 19.324	 27.74826	 27.21495	  1.70086	 17.70535	  9.19001	 -1.17560	 30.84565	704.27802	 22.40	
 15.291	 12.833	 27.70492	 27.63015	  1.40107	 16.15906	 10.57013	 -1.16103	 30.84184	704.24103	 22.40	
 15.298	  6.413	 27.64350	 27.83863	  1.20245	 14.62552	 11.98878	 -1.15761	 30.81545	704.19397	 22.50	
 15.300	  0.000	 27.60608	 27.90182	  1.14805	 13.08133	 13.51518	 -1.17302	 30.84079	704.24103	 22.40	
 15.298	 -6.413	 27.53020	 27.74062	  1.22789	 11.56877	 15.02405	 -1.18181	 30.81592	704.21698	 22.50	
 15.291	-12.833	 27.49936	 27.44991	  1.43675	 10.13349	 16.57206	 -1.17302	 30.83475	704.33197	 22.50	
 15.307	-19.324	 27.42629	 26.94945	  1.74085	  8.69431	 18.13039	 -1.17911	 30.83323	704.19098	 22.50	
 15.300	-25.739	 27.35787	 26.23411	  2.20612	  7.46068	 19.60081	 -1.18176	 30.79707	704.15698	 22.50	
 15.288	-32.146	 27.37692	 25.43198	  2.79738	  6.32609	 21.05701	 -1.18023	 30.85488	704.31000	 22.50	
 15.293	-38.572	 27.31144	 24.38729	  3.52589	  5.21153	 22.41632	 -1.17983	 30.82571	704.16101	 22.50	
 15.299	-45.015	 27.26200	 23.21895	  4.37294	  4.20664	 23.66393	 -1.18849	 30.80846	704.13800	 22.50	
 15.305	-51.417	 27.25642	 21.95492	  5.34091	  3.38661	 24.77808	 -1.17550	 30.83167	704.19897	 22.50	
 15.309	-57.858	 27.21717	 20.55230	  6.39574	  2.69541	 25.72561	 -1.16870	 30.81710	704.16901	 22.50	
 15.304	-64.289	 27.24108	 19.10721	  7.58846	  2.07626	 26.57413	 -1.16297	 30.85817	704.10101	 22.50	
 15.297	-70.709	 27.18921	 17.55416	  8.85519	  1.60378	 27.17338	 -1.12468	 30.82340	704.17999	 22.50	
 15.293	-77.103	 27.18193	 15.99661	 10.22082	  1.29679	 27.64014	 -1.11141	 30.83361	704.15399	 22.50	
 15.293	-83.542	 27.16326	 14.43118	 11.68257	  1.10997	 27.92566	 -1.13251	 30.83597	704.32599	 22.50	
 15.300	-90.000	 27.13967	 12.88041	 13.20053	  1.01268	 28.02233	 -1.16339	 30.82536	704.20203	 22.50	
 15.293	-96.458	 27.13220	 11.38397	 14.74808	  1.07137	 27.92900	 -1.22295	 30.82483	704.25098	 22.50	
 15.293	-102.897	 27.12626	  9.96494	 16.28086	  1.27004	 27.65556	 -1.27034	 30.82665	704.22498	 22.50	
 15.297	-109.291	 27.12885	  8.60769	 17.86419	  1.62056	 27.22363	 -1.28215	 30.84545	704.21100	 22.50	
 15.304	-115.711	 27.11759	  7.36405	 19.38419	  2.04692	 26.58460	 -1.25773	 30.85649	704.18597	 22.50	
 15.309	-122.142	 27.10208	  6.19515	 20.82354	  2.64177	 25.75646	 -1.21774	 30.83004	704.22498	 22.50	
 15.305	-128.583	 27.10664	  5.15716	 22.18818	  3.36749	 24.77353	 -1.21784	 30.82555	704.20001	 22.50	
 15.299	-134.985	 27.11476	  4.24307	 23.43072	  4.21472	 23.67663	 -1.21900	 30.82846	704.14899	 22.50	
 15.293	-141.428	 27.13768	  3.45092	 24.56432	  5.20730	 22.41578	 -1.26635	 30.81192	704.15698	 22.50	
 15.288	-147.854	 27.20075	  2.82853	 25.55768	  6.31461	 21.07334	 -1.31856	 30.82890	704.16803	 22.50	
 15.300	-154.261	 27.22405	  2.25870	 26.35345	  7.48949	 19.62850	 -1.34370	 30.81424	704.27301	 22.50	
 15.307	-160.676	 27.31492	  1.83979	 27.04219	  8.78714	 18.18077	 -1.34507	 30.86919	704.24799	 22.50	
 15.291	-167.167	 27.35517	  1.56140	 27.48007	 10.18068	 16.60674	 -1.34792	 30.81944	704.34302	 22.50	
 15.298	-173.587	 27.40904	  1.40581	 27.75589	 11.62787	 15.07023	 -1.34708	 30.81699	704.28198	 22.50	
 15.300	180.000	 27.47563	  1.36520	 27.85833	 13.15051	 13.57473	 -1.33521	 30.82570	704.21399	 22.50	
 17.000	180.000	 26.60008	 -0.36971	 28.63558	 12.37548	 12.79498	 -1.44621	 30.83459	704.31000	 22.50	
 16.990	-174.179	 26.52853	 -0.28954	 28.53101	 10.89300	 14.29832	 -1.42569	 30.81640	704.17499	 22.50	
 17.009	-168.383	 26.48639	 -0.19954	 28.32685	  9.47760	 15.82568	 -1.42236	 30.85836	704.17902	 22.50	
 17.000	-162.596	 26.38381	  0.02875	 27.85789	  8.08899	 17.32491	 -1.43090	 30.81540	704.12402	 22.60	
 16.990	-156.759	 26.35856	  0.39595	 27.29798	  6.81231	 18.88413	 -1.44255	 30.84715	704.14600	 22.60	
 16.995	-150.919	 26.28927	  0.87926	 26.55138	  5.57600	 20.34542	 -1.43778	 30.82025	704.06500	 22.60	
 16.988	-145.161	 26.28187	  1.42170	 25.69131	  4.45729	 21.76960	 -1.42578	 30.86943	704.08099	 22.60	
 17.014	-139.343	 26.20551	  2.08000	 24.63197	  3.40667	 23.07143	 -1.37350	 30.83431	704.21100	 22.60	
 17.007	-133.546	 26.17766	  2.92298	 23.44489	  2.50031	 24.24944	 -1.37682	 30.81854	704.15698	 22.60	
 17.001	-127.699	 26.20006	  3.84947	 22.18768	  1.69674	 25.35405	 -1.35109	 30.85790	704.20001	 22.60	
 17.006	-121.937	 26.19869	  4.86125	 20.81156	  1.00612	 26.33459	 -1.33320	 30.87226	704.12097	 22.60	
 17.002	-116.134	 26.14164	  5.97795	 19.31000	  0.42701	 27.08767	 -1.31367	 30.81380	704.04999	 22.60	
 17.001	-110.310	 26.16618	  7.17796	 17.82257	  0.01345	 27.76994	 -1.30873	 30.82723	704.36200	 22.60	
 16.988	-104.517	 26.19482	  8.50463	 16.26658	 -0.31833	 28.25379	 -1.25106	 30.82903	704.02802	 22.60	
 17.008	-98.662	 26.20299	  9.87710	 14.70542	 -0.57902	 28.58130	 -1.18992	 30.82115	704.14801	 22.60	
 16.996	-92.909	 26.20911	 11.32082	 13.19618	 -0.70011	 28.73514	 -1.11492	 30.82378	704.10699	 22.60	
 16.996	-87.091	 26.21720	 12.83613	 11.68945	 -0.73141	 28.72100	 -1.05734	 30.80528	704.17902	 22.60	
 17.012	-81.253	 26.25885	 14.41756	 10.20240	 -0.66823	 28.61186	 -1.03865	 30.87412	704.19299	 22.60	
 16.988	-75.483	 26.24617	 15.94575	  8.81698	 -0.42009	 28.23294	 -1.01259	 30.80868	704.05902	 22.60	
 17.001	-69.690	 26.26270	 17.48704	  7.47726	 -0.06648	 27.77225	 -1.00636	 30.83092	704.13702	 22.60	
 17.002	-63.866	 26.33591	 19.02859	  6.25100	  0.45516	 27.16678	 -1.03317	 30.88325	704.06097	 22.60	
 17.006	-58.063	 26.36385	 20.51675	  5.09035	  1.03692	 26.35516	 -1.07213	 30.89205	704.14001	 22.60	
 17.001	-52.301	 26.40280	 21.91606	  4.04782	  1.70639	 25.40565	 -1.11485	 30.89545	704.05103	 22.60	
 17.007	-46.454	 26.42422	 23.23664	  3.05122	  2.50438	 24.30132	 -1.14718	 30.89211	704.06097	 22.60	
 17.014	-40.657	 26.37984	 24.38065	  2.16818	  3.39131	 23.05327	 -1.16220	 30.82394	704.12402	 22.60	
 16.988	-34.839	 26.45153	 25.46977	  1.45989	  4.43545	 21.75102	 -1.16920	 30.84437	704.30902	 22.60	
 16.995	-29.081	 26.51165	 26.42185	  0.86094	  5.52112	 20.37016	 -1.17257	 30.86489	704.13000	 22.60	
 16.990	-23.241	 26.53957	 27.18542	  0.36893	  6.71358	 18.88198	 -1.19991	 30.84786	704.23401	 22.60	
 17.000	-17.404	 26.61639	 27.84223	 -0.01796	  7.97647	 17.38918	 -1.18198	 30.88757	704.07001	 22.60	
 17.009	-11.617	 26.63899	 28.25067	 -0.28831	  9.37188	 15.81900	 -1.18880	 30.84103	704.07300	 22.60	
 16.990	 -5.821	 26.73401	 28.55192	 -0.43203	 10.83874	 14.30804	 -1.15798	 30.87142	704.14600	 22.60	
 17.000	  0.000	 26.75629	 28.65710	 -0.50731	 12.29614	 12.77219	 -1.13817	 30.83293	704.07800	 22.60	
 16.990	  5.821	 26.80445	 28.59621	 -0.44604	 13.85149	 11.24785	 -1.13242	 30.81867	704.04199	 22.60	
 17.009	 11.617	 26.86018	 28.42016	 -0.31909	 15.37738	  9.81805	 -1.12402	 30.84023	704.09198	 22.60	
 17.000	 17.404	 26.91049	 28.05958	 -0.05441	 16.91419	  8.51302	 -1.12957	 30.85198	704.15503	 22.60	
 16.990	 23.241	 26.92114	 27.50559	  0.33561	 18.43699	  7.21393	 -1.16762	 30.82947	704.12903	 22.60	
 16.995	 29.081	 26.95168	 26.83822	  0.83068	 19.91908	  6.01960	 -1.19579	 30.84416	704.04498	 22.60	
 16.988	 34.839	 26.97507	 25.98623	  1.44992	 21.31683	  4.94605	 -1.24026	 30.84137	704.12598	 22.60	
 17.014	 40.657	 26.90508	 24.95520	  2.13114	 22.62799	  3.89175	 -1.24833	 30.78657	704.03601	 22.60	
 17.007	 46.454	 26.95084	 23.87708	  2.98148	 23.91074	  2.98589	 -1.24045	 30.84530	704.07300	 22.60	
 17.001	 52.301	 26.92395	 22.61438	  3.95461	 25.02025	  2.18738	 -1.25227	 30.83388	705.61798	 22.60	
 17.006	 58.063	 26.90315	 21.27301	  5.01914	 25.98430	  1.51475	 -1.25762	 30.81936	704.75098	 22.60	
 17.002	 63.866	 26.87493	 19.84523	  6.19397	 26.80847	  0.95117	 -1.28600	 30.80387	704.02698	 22.60	
 17.001	 69.690	 26.90520	 18.39876	  7.46703	 27.54748	  0.50788	 -1.32035	 30.87004	704.09900	 22.60	
 16.988	 75.483	 26.89404	 16.85754	  8.83354	 28.04090	  0.20426	 -1.35675	 30.84694	704.08197	 22.60	
 17.012	 81.253	 26.90555	 15.34314	 10.23770	 28.41767	  0.00891	 -1.36894	 30.86855	704.22198	 22.60	
 16.996	 87.091	 26.86817	 13.77383	 11.71091	 28.54116	 -0.06484	 -1.33712	 30.81600	704.25000	 22.60	
 16.996	 92.909	 26.88601	 12.24234	 13.24876	 28.57674	 -0.10645	 -1.30318	 30.83178	704.03699	 22.60	
 17.008	 98.662	 26.88389	 10.77067	 14.74630	 28.43765	 -0.03045	 -1.25086	 30.84120	705.13599	 22.60	
 16.988	104.517	 26.89873	  9.34076	 16.30785	 28.08304	  0.25170	 -1.26928	 30.82602	703.81598	 22.60	
 17.001	110.310	 26.92374	  7.96750	 17.86621	 27.63605	  0.59829	 -1.30205	 30.85984	703.94000	 22.60	
 17.002	116.134	 26.92241	  6.65365	 19.36424	 26.97124	  1.07815	 -1.37102	 30.84793	703.91901	 22.60	
 17.006	121.937	 26.95225	  5.47977	 20.83479	 26.15997	  1.64499	 -1.40310	 30.85257	705.51898	 22.60	
 17.001	127.699	 26.96724	  4.43496	 22.19931	 25.21844	  2.30242	 -1.42918	 30.87168	703.85303	 22.60	
 17.007	133.546	 26.87792	  3.44214	 23.43110	 24.05183	  3.05952	 -1.41955	 30.79319	703.89600	 22.60	
 17.014	139.343	 26.90134	  2.56685	 24.65262	 22.86750	  3.96978	 -1.42234	 30.86078	703.92603	 22.60	
 16.988	145.161	 26.88365	  1.83171	 25.68698	 21.50218	  4.99503	 -1.42034	 30.83858	703.96399	 22.60	
 16.995	150.919	 26.82319	  1.16551	 26.55058	 20.08094	  6.04954	 -1.42645	 30.80328	703.91302	 22.60	
 16.990	156.759	 26.82154	  0.65210	 27.31296	 18.61279	  7.21679	 -1.45007	 30.82909	705.42603	 22.60	
 17.000	162.596	 26.77889	  0.21449	 27.89055	 17.04251	  8.51422	 -1.45611	 30.83382	705.50598	 22.60	
 17.009	168.383	 26.71202	 -0.13993	 28.30081	 15.49609	  9.86541	 -1.46494	 30.82468	705.52197	 22.60	
 16.990	174.179	 26.62392	 -0.29557	 28.49379	 13.93209	 11.27182	 -1.46506	 30.78097	704.52100	 22.60	
 18.709	174.675	 25.71355	 -1.93874	 29.22552	 13.12851	 10.46601	 -1.47876	 30.85145	704.64398	 22.60	
 18.703	169.441	 25.76409	 -1.76459	 28.98817	 14.64824	  9.07894	 -1.52228	 30.82978	703.88501	 22.60	
 18.691	164.085	 25.84677	 -1.45346	 28.63464	 16.24778	  7.71655	 -1.53307	 30.84072	703.97998	 22.60	
 18.706	158.818	 25.82891	 -1.09664	 28.06903	 17.76903	  6.39745	 -1.53551	 30.79532	705.58600	 22.60	
 18.695	153.537	 25.91165	 -0.62522	 27.43175	 19.28403	  5.26054	 -1.54760	 30.82928	705.43201	 22.60	
 18.704	148.255	 25.95131	 -0.06697	 26.62491	 20.74214	  4.14729	 -1.55643	 30.84723	704.75702	 22.60	
 18.698	142.952	 25.96202	  0.55630	 25.64696	 22.11905	  3.12189	 -1.52335	 30.83811	704.81299	 22.50	
 18.699	137.625	 25.99945	  1.30111	 24.56870	 23.43527	  2.11438	 -1.50027	 30.86080	703.84003	 22.50	
 18.705	132.343	 26.01289	  2.14003	 23.37008	 24.60672	  1.27546	 -1.46403	 30.84638	705.55902	 22.50	
 18.713	127.067	 26.01035	  3.06123	 22.07803	 25.69001	  0.51629	 -1.41718	 30.84540	703.75403	 22.50	
 18.700	121.794	 26.02050	  4.12509	 20.71369	 26.66107	 -0.10981	 -1.35459	 30.86900	705.48798	 22.50	
 18.698	116.504	 26.01891	  5.32818	 19.27286	 27.48654	 -0.64913	 -1.28801	 30.87769	704.02002	 22.50	
 18.707	111.165	 25.95169	  6.55868	 17.71052	 28.11930	 -1.12122	 -1.18520	 30.81927	703.90399	 22.50	
 18.690	105.863	 25.98517	  7.90645	 16.20877	 28.64548	 -1.42986	 -1.14334	 30.85466	704.01898	 22.50	
 18.696	100.583	 25.97234	  9.30158	 14.67078	 28.99914	 -1.66889	 -1.12588	 30.84892	704.33398	 22.50	
 18.700	 95.309	 25.95105	 10.73395	 13.14534	 29.19596	 -1.79867	 -1.15360	 30.82749	704.46997	 22.50	
 18.700	 90.000	 25.94939	 12.23689	 11.62712	 29.25135	 -1.82208	 -1.18976	 30.82749	704.40503	 22.50	
 18.700	 84.691	 25.97569	 13.78004	 10.15766	 29.18995	 -1.74522	 -1.26196	 30.85591	705.67200	 22.50	
 18.696	 79.417	 25.98021	 15.31704	  8.73667	 28.93288	 -1.55279	 -1.33483	 30.84358	703.94098	 22.50	
 18.690	 74.137	 25.98100	 16.82972	  7.38827	 28.54619	 -1.31428	 -1.35757	 30.84947	704.08398	 22.50	
 18.707	 68.835	 25.96685	 18.32274	  6.06424	 27.99974	 -1.03147	 -1.36836	 30.84365	704.33502	 22.50	
 18.698	 63.496	 25.95912	 19.78443	  4.82248	 27.28368	 -0.62265	 -1.36758	 30.82515	703.93701	 22.50	
 18.700	 58.206	 25.99047	 21.20477	  3.69204	 26.46064	 -0.09062	 -1.35685	 30.83977	703.91602	 22.50	
 18.713	 52.933	 25.95341	 22.50992	  2.63264	 25.43339	  0.54661	 -1.31672	 30.77645	703.99103	 22.50	
 18.705	 47.657	 26.03128	 23.81388	  1.72080	 24.37537	  1.33224	 -1.29973	 30.83654	703.84698	 22.50	
 18.699	 42.375	 26.05492	 24.95851	  0.88861	 23.19182	  2.15850	 -1.26563	 30.86157	704.02197	 22.50	
 18.698	 37.048	 26.02562	 25.96823	  0.15797	 21.85703	  3.06939	 -1.22447	 30.81632	705.55902	 22.50	
 18.704	 31.745	 26.03373	 26.90875	 -0.46582	 20.46168	  4.13731	 -1.15485	 30.83407	703.88702	 22.50	
 18.695	 26.463	 26.02142	 27.67066	 -0.97542	 19.02253	  5.28378	 -1.09820	 30.82652	703.89502	 22.50	
 18.706	 21.182	 26.00423	 28.31284	 -1.41406	 17.56517	  6.47813	 -1.05218	 30.85196	703.85602	 22.50	
 18.691	 15.915	 25.94334	 28.73168	 -1.73643	 16.02931	  7.76314	 -1.04122	 30.79127	704.26501	 22.50	
 18.703	 10.559	 25.90676	 29.08807	 -1.97810	 14.49503	  9.07351	 -1.03038	 30.81178	705.49200	 22.50	
 18.709	  5.325	 25.87222	 29.28958	 -2.10787	 13.00787	 10.42927	 -1.05311	 30.85253	704.20599	 22.50	
 18.700	  0.000	 25.81237	 29.31317	 -2.13089	 11.46966	 11.94412	 -1.05879	 30.83175	703.94702	 22.50	
 18.709	 -5.325	 25.72180	 29.16997	 -2.06238	  9.97592	 13.44137	 -1.06577	 30.81027	703.96301	 22.50	
 18.703	-10.559	 25.67554	 28.93368	 -1.91666	  8.57676	 14.95101	 -1.08264	 30.82095	703.90100	 22.50	
 18.691	-15.915	 25.65379	 28.55627	 -1.67846	  7.21953	 16.53733	 -1.10134	 30.86680	703.97400	 22.50	
 18.706	-21.182	 25.60297	 28.01025	 -1.36821	  5.96377	 18.03687	 -1.11157	 30.87012	703.93500	 22.50	
 18.695	-26.463	 25.54529	 27.28679	 -0.94541	  4.74803	 19.50647	 -1.13139	 30.85263	704.03900	 22.50	
 18.704	-31.745	 25.43465	 26.37306	 -0.44397	  3.59230	 20.89529	 -1.10845	 30.78476	705.57001	 22.50	
 18.698	-37.048	 25.43541	 25.39791	  0.18409	  2.59537	 22.27797	 -1.11165	 30.81923	705.80902	 22.50	
 18.699	-42.375	 25.41224	 24.27981	  0.91365	  1.68850	 23.55915	 -1.08680	 30.82871	705.38098	 22.50	
 18.705	-47.657	 25.36466	 23.04115	  1.72522	  0.79466	 24.73751	 -1.06222	 30.82622	705.71100	 22.50	
 18.713	-52.933	 25.33004	 21.72154	  2.63791	 -0.03514	 25.81200	 -1.02705	 30.82846	705.64001	 22.50	
 18.700	-58.206	 25.30496	 20.31248	  3.68382	 -0.67199	 26.72759	 -0.99417	 30.81120	705.61298	 22.50	
 18.698	-63.496	 25.27348	 18.86392	  4.85672	 -1.16000	 27.50187	 -0.93440	 30.78724	705.77301	 22.50	
 18.707	-68.835	 25.30736	 17.38754	  6.08933	 -1.60631	 28.22774	 -0.93455	 30.84576	705.47498	 22.50	
 18.690	-74.137	 25.31568	 15.86476	  7.42140	 -1.93390	 28.75538	 -0.96154	 30.87352	705.56500	 22.50	
 18.696	-79.417	 25.26517	 14.30497	  8.75470	 -2.20340	 29.10660	 -0.94370	 30.84991	705.58600	 22.50	
 18.700	-84.691	 25.23723	 12.77147	 10.12755	 -2.35120	 29.32280	 -0.99326	 30.84767	705.64600	 22.50	
 18.700	-90.000	 25.24228	 11.25259	 11.62744	 -2.38996	 29.42811	 -1.00411	 30.87524	705.01001	 22.50	
 18.700	-95.309	 25.22407	  9.75627	 13.13253	 -2.30265	 29.34973	 -1.05026	 30.86279	703.98901	 22.50	
 18.696	-100.583	 25.21585	  8.34939	 14.66710	 -2.11513	 29.12318	 -1.11892	 30.85468	703.89801	 22.50	
 18.690	-105.863	 25.19498	  7.02808	 16.22933	 -1.86133	 28.75137	 -1.17555	 30.85634	703.95502	 22.50	
 18.707	-111.165	 25.14901	  5.76511	 17.73692	 -1.53637	 28.20599	 -1.25170	 30.83364	704.59302	 22.50	
 18.698	-116.504	 25.14410	  4.58539	 19.22739	 -1.10498	 27.54695	 -1.36534	 30.83598	704.06097	 22.50	
 18.700	-121.794	 25.15397	  3.49705	 20.66179	 -0.59662	 26.77693	 -1.41463	 30.85406	704.00000	 22.50	
 18.713	-127.067	 25.12908	  2.50500	 22.01405	 -0.00378	 25.82638	 -1.44798	 30.83139	703.94397	 22.50	
 18.705	-132.343	 25.18560	  1.64117	 23.34727	  0.77559	 24.79027	 -1.45544	 30.88418	703.95697	 22.50	
 18.699	-137.625	 25.20574	  0.83658	 24.54042	  1.67262	 23.59237	 -1.45993	 30.86366	703.98901	 22.50	
 18.698	-142.952	 25.27834	  0.10178	 25.69378	  2.64105	 22.34828	 -1.46451	 30.91652	705.63800	 22.50	
 18.704	-148.255	 25.29704	 -0.50874	 26.64503	  3.67590	 20.96595	 -1.45074	 30.89957	704.09003	 22.50	
 18.695	-153.537	 25.31706	 -0.98416	 27.43184	  4.83969	 19.50444	 -1.42220	 30.85210	705.46802	 22.50	
 18.706	-158.818	 25.38428	 -1.39351	 28.12810	  6.06648	 18.04375	 -1.39857	 30.88388	704.01898	 22.50	
 18.691	-164.085	 25.48565	 -1.67443	 28.67012	  7.37891	 16.57439	 -1.40075	 30.91193	704.07300	 22.50	
 18.703	-169.441	 25.51511	 -1.86895	 29.01773	  8.76807	 15.00061	 -1.39195	 30.87012	704.04199	 22.50	
 18.709	-174.675	 25.63968	 -2.00539	 29.30617	 10.15874	 13.49092	 -1.42688	 30.93521	705.64600	 22.40	
 18.700	180.000	 25.69336	 -2.01474	 29.34957	 11.58996	 11.98710	 -1.45645	 30.90884	704.00800	 22.50	
 20.400	180.000	 24.63390	 -3.53630	 29.88395	 10.76361	 11.09288	 -1.38235	 30.89825	704.06799	 22.50	
 20.401	-175.153	 24.58750	 -3.54215	 29.84397	  9.39490	 12.62060	 -1.34016	 30.92936	703.91803	 22.50	
 20.407	-170.264	 24.49529	 -3.47108	 29.63850	  7.98002	 14.11819	 -1.31841	 30.92267	703.81702	 22.40	
 20.410	-165.423	 24.43475	 -3.30568	 29.32472	  6.59885	 15.64265	 -1.30015	 30.94041	704.14001	 22.50	
 20.392	-160.496	 24.35869	 -3.04197	 28.82133	  5.30527	 17.14639	 -1.28188	 30.91575	703.97198	 22.50	
 20.401	-155.705	 24.28340	 -2.72394	 28.20428	  4.06529	 18.58782	 -1.30950	 30.91115	703.99597	 22.50	
 20.405	-150.835	 24.23263	 -2.31087	 27.45656	  2.89176	 20.04726	 -1.34998	 30.92213	704.00000	 22.40	
 20.397	-145.903	 24.17933	 -1.79810	 26.55456	  1.82429	 21.45428	 -1.38686	 30.91687	703.90198	 22.40	
 20.392	-141.062	 24.09369	 -1.15057	 25.48370	  0.85914	 22.72693	 -1.42431	 30.84262	703.87500	 22.50	
 20.396	-136.227	 24.12865	 -0.44297	 24.42351	 -0.04373	 24.04856	 -1.47226	 30.92745	704.70898	 22.40	
 20.408	-131.372	 24.10703	  0.25704	 23.20510	 -0.88229	 25.22315	 -1.47184	 30.95144	703.99103	 22.40	
 20.410	-126.511	 24.07011	  1.10846	 21.88074	 -1.52962	 26.21047	 -1.46231	 30.90182	705.68298	 22.50	
 20.400	-121.604	 24.06417	  2.07812	 20.49838	 -2.09526	 27.12555	 -1.40424	 30.88144	705.63800	 22.40	
 20.403	-116.741	 24.06234	  3.12592	 19.03205	 -2.70438	 27.95100	 -1.33492	 30.89415	703.92401	 22.50	
 20.413	-111.900	 24.06008	  4.24602	 17.56856	 -3.11922	 28.62481	 -1.21751	 30.89369	703.91803	 22.50	
 20.398	-107.004	 24.10224	  5.48086	 16.06470	 -3.42028	 29.17881	 -1.13247	 30.90664	703.94098	 22.50	
 20.394	-102.132	 24.10582	  6.79721	 14.52551	 -3.63441	 29.56516	 -1.02171	 30.89477	703.94000	 22.50	
 20.403	-97.332	 24.10974	  8.14324	 13.02005	 -3.81720	 29.80672	 -0.98384	 30.86732	703.87000	 22.50	
 20.392	-92.440	 24.11009	  9.57970	 11.49784	 -3.94505	 29.93967	 -0.94909	 30.87424	705.57800	 22.50	
 20.392	-87.560	 24.12399	 11.06923	 10.02341	 -3.99123	 29.93752	 -0.93888	 30.87142	704.40802	 22.50	
 20.403	-82.668	 24.16878	 12.59967	  8.62690	 -3.90999	 29.84932	 -0.92124	 30.91790	703.85303	 22.50	
 20.394	-77.868	 24.17347	 14.07628	  7.25127	 -3.74929	 29.56038	 -0.93588	 30.88305	705.58398	 22.50	
 20.398	-72.996	 24.24498	 15.64091	  5.91286	 -3.49733	 29.20925	 -0.87349	 30.93490	703.88501	 22.50	
 20.413	-68.100	 24.26472	 17.16845	  4.65398	 -3.17292	 28.66959	 -0.88261	 30.92198	703.97400	 22.50	
 20.403	-63.259	 24.29412	 18.66320	  3.48524	 -2.72569	 27.98384	 -0.89105	 30.91385	705.54498	 22.50	
 20.400	-58.396	 24.31386	 20.12667	  2.36598	 -2.23807	 27.19887	 -0.91685	 30.91547	705.59198	 22.50	
 20.410	-53.489	 24.32409	 21.54174	  1.33805	 -1.66100	 26.28138	 -0.96000	 30.92601	705.56097	 22.50	
 20.408	-48.628	 24.31034	 22.83529	  0.42588	 -0.97283	 25.19755	 -0.97903	 30.87419	705.57800	 22.50	
 20.396	-43.773	 24.35415	 24.08569	 -0.33293	 -0.17419	 24.03826	 -1.03025	 30.86712	705.22101	 22.50	
 20.392	-38.938	 24.41721	 25.26744	 -1.00764	  0.74034	 22.81499	 -1.05377	 30.89079	703.78601	 22.50	
 20.397	-34.097	 24.41915	 26.28670	 -1.65664	  1.70066	 21.46808	 -1.04396	 30.86770	705.53900	 22.50	
 20.405	-29.165	 24.44770	 27.24272	 -2.24265	  2.75255	 20.03833	 -1.03957	 30.87210	705.64099	 22.50	
 20.401	-24.295	 24.50487	 28.03789	 -2.66741	  3.93105	 18.57977	 -1.04202	 30.86979	705.49701	 22.50	
 20.392	-19.504	 24.59104	 28.70907	 -3.02731	  5.16344	 17.13400	 -1.02746	 30.90582	703.83698	 22.50	
 20.410	-14.577	 24.59517	 29.18114	 -3.31640	  6.36831	 15.58099	 -1.00952	 30.86042	705.63000	 22.50	
 20.407	 -9.736	 24.66087	 29.54169	 -3.48568	  7.72311	 14.06754	 -0.97095	 30.85589	705.64899	 22.50	
 20.401	 -4.847	 24.71575	 29.75655	 -3.62187	  9.13443	 12.53861	 -0.96720	 30.83812	704.88397	 22.50	
 20.400	  0.000	 24.77831	 29.86047	 -3.70055	 10.57897	 11.06496	 -0.97532	 30.84006	705.47998	 22.50	
 20.401	  4.847	 24.86509	 29.87654	 -3.69579	 12.10021	  9.61215	 -0.95055	 30.87985	705.59302	 22.50	
 20.407	  9.736	 24.92487	 29.72983	 -3.59659	 13.58691	  8.30847	 -0.94567	 30.89127	703.82599	 22.50	
 20.410	 14.577	 24.92984	 29.39879	 -3.41129	 15.04964	  6.96855	 -0.94896	 30.83725	703.94702	 22.50	
 20.392	 19.504	 24.98279	 28.94768	 -3.10909	 16.59457	  5.68158	 -0.97158	 30.83243	704.90002	 22.50	
 20.401	 24.295	 25.03628	 28.42383	 -2.73595	 18.06468	  4.47954	 -0.98926	 30.85858	705.59802	 22.50	
 20.405	 29.165	 25.06770	 27.74847	 -2.29489	 19.54095	  3.25189	 -1.01393	 30.88820	703.94000	 22.50	
 20.397	 34.097	 25.03891	 26.84394	 -1.74532	 20.96232	  2.17416	 -1.03998	 30.84228	703.92700	 22.50	
 20.392	 38.938	 25.06448	 25.91870	 -1.12313	 22.32658	  1.23764	 -1.13477	 30.86589	703.99402	 22.50	
 20.396	 43.773	 25.07798	 24.87197	 -0.38861	 23.60761	  0.39346	 -1.21096	 30.89502	704.12402	 22.50	
 20.408	 48.628	 25.02254	 23.67152	  0.40530	 24.77623	 -0.39957	 -1.28758	 30.85283	704.12299	 22.50	
 20.410	 53.489	 24.98215	 22.38611	  1.31230	 25.85497	 -1.09566	 -1.33230	 30.84712	705.33301	 22.50	
 20.400	 58.396	 24.97026	 21.02397	  2.33273	 26.84108	 -1.70854	 -1.37902	 30.85611	705.64801	 22.50	
 20.403	 63.259	 24.98977	 19.65411	  3.44752	 27.71851	 -2.18025	 -1.37003	 30.89103	703.91803	 22.50	
 20.413	 68.100	 24.92721	 18.18331	  4.60400	 28.36177	 -2.56605	 -1.35230	 30.83775	703.84497	 22.50	
 20.398	 72.996	 24.95532	 16.71878	  5.86038	 28.96167	 -2.85601	 -1.31793	 30.86993	704.58301	 22.50	
 20.394	 77.868	 24.94988	 15.20380	  7.16888	 29.38404	 -3.08647	 -1.24514	 30.85777	705.60699	 22.50	
 20.403	 82.668	 24.98526	 13.73115	  8.58655	 29.71263	 -3.25699	 -1.15630	 30.91177	705.58398	 22.40	
 20.392	 87.560	 24.95745	 12.18386	 10.00698	 29.83537	 -3.37876	 -1.08506	 30.87726	704.80798	 22.50	
 20.392	 92.440	 24.95345	 10.67072	 11.50492	 29.84157	 -3.39553	 -1.01303	 30.86865	704.09003	 22.50	
 20.403	 97.332	 24.98186	  9.20903	 13.02936	 29.75905	 -3.33442	 -1.02924	 30.90822	705.74799	 22.50	
 20.394	102.132	 24.92630	  7.78668	 14.49010	 29.43637	 -3.17810	 -0.99825	 30.83147	705.63397	 22.50	
 20.398	107.004	 24.96933	  6.45150	 16.03450	 29.08377	 -2.92068	 -1.03023	 30.86627	704.24701	 22.50	
 20.413	111.900	 25.01067	  5.16241	 17.57695	 28.58601	 -2.62252	 -1.06176	 30.90372	704.03699	 22.50	
 20.403	116.741	 25.02277	  3.95732	 19.06065	 27.91547	 -2.22177	 -1.15203	 30.91589	705.68298	 22.50	
 20.400	121.604	 25.02327	  2.81108	 20.49072	 27.12275	 -1.70486	 -1.20909	 30.89221	705.55902	 22.50	
 20.410	126.511	 25.01006	  1.75937	 21.87398	 26.17348	 -1.11023	 -1.32035	 30.87158	705.54999	 22.50	
 20.408	131.372	 25.01228	  0.83561	 23.18251	 25.10769	 -0.42245	 -1.37862	 30.87355	703.75500	 22.50	
 20.396	136.227	 25.00503	  0.04060	 24.39699	 23.92319	  0.38920	 -1.46352	 30.84796	705.52197	 22.40	
 20.392	141.062	 24.99505	 -0.69659	 25.52389	 22.69767	  1.24691	 -1.52103	 30.88348	705.72699	 22.40	
 20.397	145.903	 24.95833	 -1.33901	 26.52417	 21.35752	  2.19686	 -1.56682	 30.87388	705.52698	 22.40	
 20.405	150.835	 24.94256	 -1.91189	 27.43986	 19.92481	  3.28439	 -1.56225	 30.87401	703.96802	 22.40	
 20.401	155.705	 24.88345	 -2.40657	 28.16692	 18.42951	  4.41263	 -1.54370	 30.84197	703.81897	 22.50	
 20.392	160.496	 24.82708	 -2.83324	 28.76185	 16.94412	  5.57897	 -1.52792	 30.83466	705.53900	 22.40	
 20.410	165.423	 24.79568	 -3.16158	 29.27598	 15.33333	  6.85689	 -1.50252	 30.86836	705.45697	 22.40	
 20.407	170.264	 24.77462	 -3.36538	 29.62425	 13.81863	  8.22400	 -1.45862	 30.89007	705.62299	 22.40	
 20.401	175.153	 24.73336	 -3.49741	 29.84838	 12.29603	  9.62758	 -1.39997	 30.92267	705.57800	 22.40	
  0.141	 45.000	 30.96407	 16.92355	 16.69101	 16.71856	 16.98621	  0.27467	 30.90030	705.56201	 22.40	
  4.001	128.691	 30.90247	 14.42877	 18.86065	 19.30209	 14.11252	  0.17715	 30.92162	705.51300	 22.40	
  4.002	 76.995	 30.89978	 17.51932	 15.70275	 20.05323	 13.38758	  0.17347	 30.91590	705.57599	 22.40	
  4.002	 25.892	 30.91684	 20.01020	 13.30661	 18.04380	 15.23196	  0.16708	 30.94953	705.60901	 22.40	
  4.002	-25.892	 30.84930	 19.88794	 13.31401	 14.82262	 18.37885	  0.14701	 30.91862	705.54199	 22.40	
  4.002	-76.995	 30.79837	 17.28580	 15.67968	 12.95657	 20.40954	  0.12315	 30.89196	705.55402	 22.40	
  4.001	-128.691	 30.76486	 14.26587	 18.82006	 13.62953	 19.66991	  0.13957	 30.85812	705.54498	 22.40	
  4.000	180.000	 30.80285	 13.01568	 20.26331	 16.35966	 16.80707	  0.15890	 30.85996	705.53900	 22.40	
  8.000	180.000	 30.22084	  8.97539	 23.44588	 15.64110	 16.10363	 -0.28899	 30.91244	705.47498	 22.40	
  7.991	-152.370	 30.14298	  9.63279	 22.54377	 12.32760	 19.55240	 -0.31437	 30.91998	705.44897	 22.40	
  7.997	-124.550	 30.07775	 11.66515	 20.03345	  9.85971	 22.30966	 -0.36017	 30.89125	704.80402	 22.40	
  8.006	-96.837	 30.07159	 14.73867	 16.63767	  8.71845	 23.61926	 -0.43400	 30.88522	705.52197	 22.40	
  7.988	-69.228	 30.08533	 18.24764	 13.20691	  9.07415	 23.12193	 -0.46657	 30.86536	704.90802	 22.40	
  7.997	-41.563	 30.10067	 21.30867	 10.48974	 10.89509	 20.99899	 -0.40450	 30.84944	704.25598	 22.40	
  8.008	-13.821	 30.17603	 23.15133	  9.06380	 13.90610	 17.75353	 -0.35099	 30.85798	704.05902	 22.40	
  8.008	 13.821	 30.26940	 23.29076	  9.02637	 17.39097	 14.30325	 -0.32140	 30.88320	705.52802	 22.40	
  7.997	 41.563	 30.34224	 21.64078	 10.50404	 20.65979	 11.41440	 -0.28622	 30.91525	705.66199	 22.40	
  7.988	 69.228	 30.33314	 18.65464	 13.20528	 22.80063	  9.65979	 -0.29058	 30.89435	705.58600	 22.40	
  8.006	 96.837	 30.33375	 15.17452	 16.62210	 23.28522	  9.28228	 -0.33214	 30.89661	705.71600	 22.40	
  7.997	124.550	 30.31717	 11.99687	 20.02299	 21.92356	 10.38511	 -0.31313	 30.87757	705.57599	 22.40	
  7.991	152.370	 30.29189	  9.79745	 22.53022	 19.10847	 12.85457	 -0.28303	 30.89600	705.65997	 22.40	
 12.009	161.059	 29.08570	  5.34134	 25.50139	 18.11774	 11.47566	 -0.86582	 30.90414	705.56702	 22.40	
 12.013	142.081	 29.14355	  6.83192	 23.62821	 21.51584	  8.54591	 -0.87285	 30.89034	705.53101	 22.40	
 12.006	123.113	 29.20007	  9.18492	 20.81717	 24.14475	  6.55382	 -0.96511	 30.91856	705.49200	 22.40	
 12.007	104.200	 29.12757	 12.28076	 17.29827	 25.65597	  5.38404	 -1.01432	 30.84879	705.57001	 22.40	
 11.989	 85.301	 29.19890	 15.84803	 13.71443	 26.00109	  5.13896	 -0.95623	 30.91860	705.44299	 22.40	
 12.013	 66.294	 29.19010	 19.43076	 10.32754	 24.99534	  5.81160	 -0.82324	 30.90525	705.45502	 22.40	
 12.012	 47.388	 29.24827	 22.63929	  7.63069	 22.85568	  7.46102	 -0.81372	 30.94894	705.43201	 22.40	
 11.990	 28.440	 29.18361	 24.88253	  5.72207	 19.78133	  9.89503	 -0.91418	 30.90628	705.45697	 22.40	
 11.991	  9.464	 29.12281	 26.04648	  4.81589	 16.24852	 13.08226	 -0.93249	 30.90186	705.32202	 22.40	
 11.991	 -9.464	 29.03665	 25.95804	  4.81543	 12.66916	 16.66370	 -0.92105	 30.92756	705.40900	 22.40	
 11.990	-28.440	 28.89717	 24.58596	  5.74481	  9.37556	 20.18143	 -0.93063	 30.88826	705.46002	 22.40	
 12.012	-47.388	 28.85383	 22.14431	  7.61710	  6.92421	 23.22845	 -1.01336	 30.91309	705.55103	 22.40	
 12.013	-66.294	 28.79292	 18.85762	 10.29459	  5.19477	 25.34572	 -1.08066	 30.90659	705.60901	 22.40	
 11.989	-85.301	 28.77593	 15.25047	 13.66382	  4.54855	 26.26787	 -1.07288	 30.89843	705.54700	 22.40	
 12.007	-104.200	 28.71578	 11.70312	 17.25779	  4.71684	 25.96703	 -1.01978	 30.87959	705.50500	 22.40	
 12.006	-123.113	 28.71360	  8.66996	 20.73345	  5.86876	 24.45795	 -0.88840	 30.90631	705.53699	 22.40	
 12.013	-142.081	 28.73145	  6.45791	 23.59238	  8.04388	 21.79744	 -0.86937	 30.87104	705.62402	 22.40	
 12.009	-161.059	 28.81549	  5.14612	 25.46090	 10.97019	 18.46020	 -0.93363	 30.86086	705.53101	 22.40	
 16.000	180.000	 27.19141	  0.64405	 28.26848	 12.86660	 13.28394	 -1.41469	 30.91578	705.51099	 22.40	
 15.990	-165.604	 27.04832	  0.91110	 27.76597	  9.43279	 16.85422	 -1.40118	 30.90298	705.39502	 22.40	
 16.002	-151.165	 26.91574	  1.82337	 26.31274	  6.39861	 20.36156	 -1.40227	 30.90366	705.42902	 22.40	
 16.002	-136.836	 26.80541	  3.35047	 23.98926	  3.87678	 23.48869	 -1.30881	 30.89009	705.44299	 22.40	
 15.995	-122.439	 26.80316	  5.59313	 20.97044	  2.01973	 26.00223	 -1.29368	 30.91730	705.33002	 22.40	
 15.993	-107.966	 26.79998	  8.42187	 17.42875	  0.83103	 27.67318	 -1.31258	 30.90192	705.48199	 22.40	
 16.005	-93.629	 26.81036	 11.68057	 13.81543	  0.29590	 28.38401	 -1.20200	 30.89385	705.47998	 22.40	
 15.992	-79.234	 26.83887	 15.25310	 10.31054	  0.48230	 28.13507	 -1.11185	 30.88438	705.47400	 22.40	
 16.009	-64.774	 26.86773	 18.89996	  7.17693	  1.30701	 26.94604	 -1.15334	 30.87872	705.55798	 22.40	
 15.997	-50.364	 26.97486	 22.29688	  4.61135	  2.87233	 24.86003	 -1.17746	 30.91163	705.45099	 22.40	
 15.997	-36.045	 27.02143	 25.05892	  2.54218	  5.05331	 22.01254	 -1.19123	 30.89256	705.53400	 22.40	
 16.000	-21.597	 27.10725	 27.03794	  1.18480	  7.74858	 18.62950	 -1.21216	 30.88236	705.51898	 22.30	
 16.003	 -7.169	 27.23482	 28.08759	  0.53897	 11.04330	 15.00301	 -1.19428	 30.86845	705.50598	 22.30	
 16.003	  7.169	 27.36751	 28.19872	  0.52436	 14.59498	 11.46260	 -1.16898	 30.87639	705.56702	 22.30	
 16.000	 21.597	 27.46757	 27.34302	  1.13046	 18.19575	  8.26753	 -1.21742	 30.89307	705.52301	 22.30	
 15.997	 36.045	 27.47741	 25.53661	  2.56511	 21.56870	  5.55597	 -1.23557	 30.86134	705.51898	 22.30	
 15.997	 50.364	 27.46868	 22.93891	  4.54967	 24.47365	  3.35872	 -1.18591	 30.87269	705.54999	 22.30	
 16.009	 64.774	 27.44838	 19.73548	  7.14169	 26.64564	  1.82750	 -1.22811	 30.88468	705.46002	 22.30	
 15.992	 79.234	 27.43585	 16.15325	 10.33942	 27.91035	  1.01866	 -1.32984	 30.89020	705.47498	 22.40	
 16.005	 93.629	 27.44083	 12.54775	 13.87277	 28.18755	  0.89768	 -1.31060	 30.89501	705.42902	 22.40	
 15.993	107.966	 27.47672	  9.18227	 17.50368	 27.47304	  1.47569	 -1.31234	 30.90502	705.46100	 22.30	
 15.995	122.439	 27.47116	  6.19183	 20.96740	 25.79289	  2.64240	 -1.37972	 30.87825	705.47198	 22.30	
 16.002	136.836	 27.46832	  3.87197	 24.03726	 23.28700	  4.45865	 -1.35221	 30.89611	705.43701	 22.30	
 16.002	151.165	 27.39601	  2.13116	 26.34067	 20.10099	  6.87904	 -1.34251	 30.88368	705.25702	 22.30	
 15.990	165.604	 27.34109	  1.06992	 27.77582	 16.52378	  9.88151	 -1.37804	 30.90788	705.40900	 22.30	
 20.003	168.362	 25.05783	 -2.91082	 29.40960	 14.55701	  7.96722	 -1.49409	 30.89753	705.34003	 22.30	
 20.008	156.764	 25.12622	 -2.14186	 28.22989	 18.14488	  4.96443	 -1.52514	 30.85248	705.45801	 22.30	
 20.000	145.147	 25.22464	 -0.89730	 26.34319	 21.60520	  2.37998	 -1.55396	 30.89845	705.46503	 22.30	
 19.995	133.545	 25.27097	  0.81295	 23.74661	 24.55993	  0.28523	 -1.41279	 30.87703	705.51099	 22.30	
 20.009	121.926	 25.25083	  3.03917	 20.63507	 26.95061	 -1.31628	 -1.26740	 30.88911	705.36499	 22.30	
 20.005	110.327	 25.24673	  5.86167	 17.18984	 28.65038	 -2.35145	 -1.08432	 30.88504	705.47699	 22.30	
 19.989	 98.733	 25.22028	  9.04056	 13.63185	 29.54149	 -2.90960	 -1.02724	 30.87002	705.38501	 22.30	
 19.999	 87.075	 25.21504	 12.51640	 10.09932	 29.70271	 -3.00684	 -1.12343	 30.87657	705.31403	 22.30	
 19.992	 75.457	 25.24699	 16.09555	  6.85606	 29.08071	 -2.57807	 -1.29845	 30.87659	705.33698	 22.30	
 20.009	 63.844	 25.24868	 19.55118	  3.92456	 27.69220	 -1.85086	 -1.37559	 30.87577	705.36700	 22.30	
 19.989	 52.269	 25.30403	 22.76355	  1.43975	 25.56540	 -0.53466	 -1.32019	 30.87807	705.29199	 22.30	
 19.999	 40.602	 25.32583	 25.53494	 -0.52532	 22.78920	  1.28365	 -1.18579	 30.89006	705.32202	 22.30	
 20.004	 29.051	 25.32467	 27.68121	 -1.92306	 19.58551	  3.66287	 -1.01672	 30.89210	705.34198	 22.30	
 20.005	 17.433	 25.26695	 29.11304	 -2.88014	 16.11879	  6.50422	 -0.94777	 30.90294	705.37903	 22.30	
 20.006	  5.780	 25.08694	 29.69946	 -3.33322	 12.55258	  9.53591	 -0.94849	 30.83132	705.29901	 22.30	
 20.006	 -5.780	 24.95102	 29.60976	 -3.24360	  9.09826	 12.99915	 -0.96918	 30.82883	705.40997	 22.30	
 20.005	-17.433	 24.84622	 28.82178	 -2.80371	  5.95503	 16.60966	 -1.02143	 30.88155	705.33002	 22.30	
 20.004	-29.051	 24.72082	 27.19841	 -1.89503	  3.11980	 20.05862	 -1.02976	 30.88060	705.45801	 22.30	
 19.999	-40.602	 24.63144	 24.82425	 -0.46000	  0.77955	 23.18881	 -1.03593	 30.84474	705.37903	 22.30	
 19.989	-52.269	 24.55006	 21.86124	  1.44230	 -1.12340	 25.91096	 -0.95727	 30.84931	705.40997	 22.30	
 20.009	-63.844	 24.48724	 18.53134	  3.91194	 -2.40489	 27.89856	 -0.89436	 30.82349	705.49200	 22.30	
 19.992	-75.457	 24.45791	 15.01097	  6.87063	 -3.22217	 29.22794	 -0.88726	 30.85128	705.46802	 22.30	
 19.999	-87.075	 24.41763	 11.45898	 10.09368	 -3.59014	 29.80476	 -0.90765	 30.87493	705.34698	 22.30	
 19.989	-98.733	 24.43239	  8.03947	 13.65049	 -3.36912	 29.66494	 -0.98534	 30.91251	705.33099	 22.30	
 20.005	-110.327	 24.37915	  4.96302	 17.21592	 -2.83186	 28.73876	 -1.20894	 30.92545	705.40100	 22.30	
 20.009	-121.926	 24.37037	  2.36026	 20.64513	 -1.73899	 27.04952	 -1.39701	 30.91770	705.33301	 22.30	
 19.995	-133.545	 24.38847	  0.29076	 23.73932	 -0.17150	 24.67135	 -1.46819	 30.92183	705.42700	 22.30	
 20.000	-145.147	 24.43591	 -1.34232	 26.32514	  2.00639	 21.68631	 -1.39378	 30.89044	705.34698	 22.30	
 20.008	-156.764	 24.58324	 -2.43037	 28.28816	  4.63916	 18.37453	 -1.32017	 30.92829	705.41998	 22.30	
 20.003	-168.362	 24.76600	 -3.03570	 29.44566	  7.69490	 14.88631	 -1.31298	 30.95632	705.48798	 22.30	
 20.000	180.000	 24.93141	 -3.18005	 29.80577	 10.98541	 11.32311	 -1.37164	 30.93427	705.33099	 22.30	
