FileType=PCF
NHL=14
Date=08/24/17	15:35:46
Facility=APL
Serial=16328-4
Customer=NASA
NP=6
Mach=0.200000
Calibration=1:1
CalPts=490
TstPts=95
PortNumbering=AP Standard
Units=Torr C m/s kg/m^3 deg mm 
Theta[deg]	Phi[deg]	P1[Torr]	P2[Torr]	P3[Torr]	P4[Torr]	P5[Torr]	P6[Torr]	Pt[Torr]	Ps[Abs,Torr]	Ts[C]	
  0.000	  0.000	 19.66825	 10.72654	 10.65130	 10.59583	 10.84019	  0.16266	 19.64596	705.16998	 22.10	
  1.691	128.401	 19.67968	 10.11756	 11.24399	 11.34895	 10.06877	  0.16050	 19.65565	705.19000	 22.10	
  1.692	 77.194	 19.64374	 10.91607	 10.39998	 11.51767	  9.85230	  0.13825	 19.62062	705.09802	 22.10	
  1.699	 26.182	 19.64383	 11.56846	  9.75067	 10.99259	 10.35801	  0.14390	 19.61924	705.17297	 22.10	
  1.699	-26.182	 19.63299	 11.54163	  9.74039	 10.11905	 11.21985	  0.12748	 19.61067	705.08002	 22.10	
  1.692	-77.194	 19.66987	 10.87883	 10.42331	  9.63257	 11.77181	  0.13496	 19.64242	705.15698	 22.10	
  1.691	-128.401	 19.67805	 10.07621	 11.24823	  9.80664	 11.60719	  0.14986	 19.65228	705.18201	 22.10	
  1.700	180.000	 19.69838	  9.73889	 11.64375	 10.57137	 10.85192	  0.15863	 19.68001	705.19800	 22.10	
  3.400	180.000	 19.63274	  8.72029	 12.52980	 10.45560	 10.74475	  0.10812	 19.64130	705.15002	 22.10	
  3.388	-152.325	 19.63122	  8.90761	 12.31324	  9.59258	 11.64753	  0.09906	 19.66351	705.16803	 22.10	
  3.397	-124.529	 19.62475	  9.48110	 11.66650	  8.93144	 12.34730	  0.10226	 19.65282	705.20898	 22.10	
  3.399	-96.763	 19.65067	 10.33239	 10.78940	  8.62433	 12.70255	  0.09281	 19.67557	705.18799	 22.10	
  3.394	-69.283	 19.61004	 11.23319	  9.85467	  8.71914	 12.55835	  0.09474	 19.63363	705.19000	 22.10	
  3.400	-41.398	 19.60088	 12.02285	  9.10257	  9.20998	 11.98073	  0.07922	 19.62218	705.29498	 22.10	
  3.401	-14.021	 19.65043	 12.51235	  8.72261	 10.01056	 11.19139	  0.09635	 19.66129	705.22101	 22.10	
  3.401	 14.021	 19.65487	 12.55067	  8.71406	 10.96902	 10.24088	  0.11366	 19.65694	705.20398	 22.10	
  3.400	 41.398	 19.66384	 12.11608	  9.13039	 11.80468	  9.45910	  0.09962	 19.65566	705.08899	 22.10	
  3.394	 69.283	 19.65451	 11.36127	  9.85753	 12.33150	  8.97121	  0.11900	 19.64766	705.15997	 22.10	
  3.399	 96.763	 19.65370	 10.45622	 10.76338	 12.45283	  8.87380	  0.12792	 19.63987	705.24701	 22.10	
  3.397	124.529	 19.65928	  9.58122	 11.66447	 12.11070	  9.19395	  0.12991	 19.64973	705.15698	 22.10	
  3.388	152.325	 19.66765	  8.97964	 12.31138	 11.39629	  9.87067	  0.12634	 19.65661	705.16199	 22.10	
  5.099	161.165	 19.54579	  7.84242	 13.24372	 11.28456	  9.65739	  0.03476	 19.63853	705.19800	 22.10	
  5.109	142.013	 19.54982	  8.28274	 12.75470	 12.15700	  8.83643	  0.02628	 19.62973	705.13599	 22.10	
  5.095	123.033	 19.57788	  8.97017	 12.02995	 12.84025	  8.25484	  0.02321	 19.64079	705.11200	 22.10	
  5.105	104.191	 19.59394	  9.84298	 11.12910	 13.27633	  7.90662	  0.02357	 19.65705	705.07397	 22.10	
  5.093	 85.207	 19.59897	 10.79909	 10.16282	 13.34349	  7.84342	  0.02514	 19.65716	705.19299	 22.10	
  5.104	 66.290	 19.58405	 11.73551	  9.23433	 13.08906	  8.02845	  0.02827	 19.64417	705.10303	 22.10	
  5.094	 47.331	 19.60412	 12.57518	  8.48291	 12.54356	  8.51744	  0.02747	 19.67230	705.16498	 22.10	
  5.089	 28.397	 19.56678	 13.14825	  7.91522	 11.74592	  9.20680	  0.01847	 19.64207	705.19598	 22.10	
  5.096	  9.576	 19.54863	 13.44933	  7.61820	 10.82567	 10.06068	  0.00543	 19.63467	705.07800	 22.10	
  5.096	 -9.576	 19.53854	 13.41339	  7.62125	  9.82988	 11.04912	 -0.01005	 19.63441	705.09802	 22.10	
  5.089	-28.397	 19.53169	 13.06706	  7.92156	  8.96458	 11.97763	 -0.00013	 19.65217	705.16803	 22.10	
  5.094	-47.331	 19.54564	 12.43402	  8.47597	  8.25922	 12.77134	 -0.02418	 19.67387	705.07397	 22.10	
  5.104	-66.290	 19.52934	 11.58033	  9.23816	  7.73616	 13.33783	 -0.03004	 19.66364	705.12598	 22.10	
  5.093	-85.207	 19.51138	 10.63730	 10.14170	  7.51074	 13.59625	 -0.03397	 19.65388	705.04901	 22.10	
  5.105	-104.191	 19.49070	  9.65725	 11.11533	  7.56117	 13.50904	 -0.01403	 19.63478	705.05701	 22.10	
  5.095	-123.033	 19.53209	  8.84039	 12.04349	  7.95072	 13.12385	 -0.00107	 19.67888	705.05499	 22.10	
  5.109	-142.013	 19.51203	  8.17887	 12.78345	  8.55741	 12.43349	  0.02481	 19.65416	705.08099	 22.10	
  5.099	-161.165	 19.54552	  7.78847	 13.28584	  9.39742	 11.55253	  0.02305	 19.67033	704.88300	 22.10	
  5.100	180.000	 19.55842	  7.67796	 13.43480	 10.32071	 10.60876	  0.02539	 19.65974	704.86700	 22.10	
  6.800	180.000	 19.37531	  6.54283	 14.30180	 10.10904	 10.38859	 -0.10355	 19.63942	704.90802	 22.10	
  6.796	-166.229	 19.34048	  6.61172	 14.17360	  9.18761	 11.32842	 -0.08437	 19.63784	705.03302	 22.10	
  6.808	-152.311	 19.35798	  6.89702	 13.84039	  8.33833	 12.26627	 -0.10153	 19.67660	704.97302	 22.10	
  6.795	-138.383	 19.32223	  7.35209	 13.24024	  7.57803	 13.06738	 -0.11366	 19.65562	704.94202	 22.20	
  6.792	-124.591	 19.31016	  7.98717	 12.48500	  6.98733	 13.72070	 -0.12999	 19.64920	704.93103	 22.20	
  6.787	-110.754	 19.29751	  8.77299	 11.60226	  6.59213	 14.17873	 -0.14318	 19.62872	705.10303	 22.10	
  6.800	-96.985	 19.29896	  9.64796	 10.66479	  6.38408	 14.41546	 -0.16148	 19.62572	705.10602	 22.20	
  6.800	-83.015	 19.33728	 10.62750	  9.72060	  6.39752	 14.44009	 -0.16834	 19.66458	705.18799	 22.20	
  6.787	-69.246	 19.30770	 11.54433	  8.80993	  6.59236	 14.15847	 -0.16973	 19.63029	705.04102	 22.20	
  6.792	-55.409	 19.32711	 12.44082	  8.01272	  6.99411	 13.70159	 -0.16345	 19.64305	705.04102	 22.20	
  6.795	-41.617	 19.33048	 13.19575	  7.35138	  7.58280	 13.01532	 -0.14916	 19.63646	705.21503	 22.20	
  6.808	-27.689	 19.37266	 13.82685	  6.85767	  8.33454	 12.21139	 -0.13522	 19.65608	705.23297	 22.20	
  6.796	-13.771	 19.38745	 14.21434	  6.55671	  9.18274	 11.29641	 -0.12558	 19.66434	705.05701	 22.20	
  6.800	  0.000	 19.36957	 14.33036	  6.44348	 10.09056	 10.33775	 -0.11167	 19.62528	705.05499	 22.20	
  6.796	 13.771	 19.40700	 14.26080	  6.55570	 11.05830	  9.42769	 -0.09745	 19.64324	705.09698	 22.20	
  6.808	 27.689	 19.44161	 13.94390	  6.85367	 11.99177	  8.57580	 -0.10457	 19.66969	705.13599	 22.20	
  6.795	 41.617	 19.44768	 13.37934	  7.34864	 12.81880	  7.84838	 -0.10122	 19.66447	705.09998	 22.20	
  6.792	 55.409	 19.44008	 12.64243	  8.01143	 13.48127	  7.30315	 -0.07502	 19.65114	705.22400	 22.20	
  6.787	 69.246	 19.43585	 11.77043	  8.81423	 13.95622	  6.91315	 -0.08170	 19.64811	705.13702	 22.20	
  6.800	 83.015	 19.43520	 10.84162	  9.70851	 14.20385	  6.71369	 -0.09028	 19.64891	705.19897	 22.20	
  6.800	 96.985	 19.46217	  9.90584	 10.67751	 14.22861	  6.72941	 -0.08477	 19.67639	705.17603	 22.20	
  6.787	110.754	 19.42145	  8.97904	 11.59767	 13.94944	  6.91933	 -0.10108	 19.63131	705.08899	 22.20	
  6.792	124.591	 19.43041	  8.18556	 12.48805	 13.48641	  7.32649	 -0.09582	 19.64576	705.12903	 22.20	
  6.795	138.383	 19.43288	  7.52818	 13.22484	 12.81102	  7.90337	 -0.07230	 19.65079	705.21198	 22.20	
  6.808	152.311	 19.41161	  6.99877	 13.81631	 11.99624	  8.61064	 -0.07875	 19.64465	705.15100	 22.20	
  6.796	166.229	 19.40469	  6.68986	 14.18440	 11.08203	  9.46476	 -0.08519	 19.65800	705.12000	 22.20	
  8.491	168.704	 19.19599	  5.53593	 15.02779	 10.87986	  9.20445	 -0.22751	 19.68410	705.11200	 22.20	
  8.502	157.493	 19.17542	  5.78286	 14.70273	 11.80966	  8.30533	 -0.21646	 19.63691	705.12201	 22.20	
  8.494	146.194	 19.24116	  6.24092	 14.24221	 12.73121	  7.53335	 -0.21290	 19.68816	705.12000	 22.20	
  8.495	135.039	 19.20057	  6.78607	 13.55257	 13.50265	  6.83347	 -0.22439	 19.63589	705.15997	 22.20	
  8.487	123.723	 19.22276	  7.49594	 12.76139	 14.17000	  6.28108	 -0.24745	 19.64823	705.10498	 22.20	
  8.492	112.575	 19.23737	  8.30022	 11.88233	 14.66428	  5.89331	 -0.25404	 19.66268	705.13702	 22.20	
  8.510	101.220	 19.24162	  9.20168	 10.92669	 14.98468	  5.63940	 -0.25318	 19.66371	705.10303	 22.20	
  8.500	 90.000	 19.25087	 10.15958	  9.95723	 15.07115	  5.57758	 -0.24396	 19.67565	705.06598	 22.20	
  8.510	 78.780	 19.24349	 11.12587	  8.99721	 14.97014	  5.64021	 -0.23578	 19.67319	705.06000	 22.20	
  8.492	 67.425	 19.25353	 12.08440	  8.10088	 14.65718	  5.88592	 -0.21957	 19.68147	705.08301	 22.20	
  8.487	 56.277	 19.27213	 12.96502	  7.31059	 14.18209	  6.27309	 -0.21512	 19.70091	705.13397	 22.20	
  8.495	 44.961	 19.22847	 13.72266	  6.59086	 13.48021	  6.79693	 -0.22411	 19.65951	705.10303	 22.20	
  8.494	 33.806	 19.21374	 14.34830	  6.03312	 12.67688	  7.47313	 -0.23810	 19.64999	705.05701	 22.20	
  8.502	 22.507	 19.22106	 14.83057	  5.63050	 11.79171	  8.26491	 -0.25629	 19.67285	705.03198	 22.20	
  8.491	 11.296	 19.19748	 15.09663	  5.38839	 10.83145	  9.14831	 -0.25389	 19.65909	705.00201	 22.20	
  8.500	  0.000	 19.15671	 15.14775	  5.29915	  9.84076	 10.09219	 -0.28333	 19.64269	704.96002	 22.20	
  8.491	-11.296	 19.14331	 15.03407	  5.38653	  8.88539	 11.07326	 -0.26647	 19.64915	704.98102	 22.20	
  8.502	-22.507	 19.11961	 14.70421	  5.62406	  8.00836	 12.01110	 -0.27020	 19.65454	704.93402	 22.20	
  8.494	-33.806	 19.11869	 14.19160	  6.04525	  7.20161	 12.92892	 -0.28070	 19.66663	705.05200	 22.20	
  8.495	-44.961	 19.07144	 13.50881	  6.57984	  6.49877	 13.68384	 -0.31373	 19.63414	705.17603	 22.20	
  8.487	-56.277	 19.11587	 12.73105	  7.29684	  5.97548	 14.36385	 -0.31698	 19.68359	705.03497	 22.20	
  8.492	-67.425	 19.10874	 11.83335	  8.09611	  5.56133	 14.86059	 -0.33968	 19.68192	705.03900	 22.20	
  8.510	-78.780	 19.08175	 10.84909	  8.98876	  5.27517	 15.17783	 -0.34958	 19.67026	705.05701	 22.20	
  8.500	-90.000	 19.04179	  9.86382	  9.93070	  5.19723	 15.25294	 -0.33774	 19.63744	704.95599	 22.20	
  8.510	-101.220	 19.03047	  8.90788	 10.90031	  5.26675	 15.15526	 -0.30902	 19.63152	705.09998	 22.20	
  8.492	-112.575	 19.03661	  8.02196	 11.86859	  5.53204	 14.84579	 -0.28626	 19.63444	705.18402	 22.20	
  8.487	-123.723	 19.03409	  7.24204	 12.75238	  5.94046	 14.36419	 -0.25821	 19.63554	705.12903	 22.20	
  8.495	-135.039	 19.05046	  6.56984	 13.56130	  6.48797	 13.74042	 -0.24456	 19.64975	705.20898	 22.20	
  8.494	-146.194	 19.06319	  6.04880	 14.20872	  7.18596	 12.95648	 -0.24651	 19.64305	705.19000	 22.20	
  8.502	-157.493	 19.11827	  5.68936	 14.73745	  8.03652	 12.07205	 -0.23533	 19.67635	705.13599	 22.20	
  8.491	-168.704	 19.12067	  5.47287	 15.01678	  8.91758	 11.11443	 -0.21597	 19.64793	705.21301	 22.20	
  8.500	180.000	 19.17415	  5.42456	 15.14262	  9.88426	 10.16419	 -0.22296	 19.68092	705.16199	 22.20	
 10.200	180.000	 18.85441	  4.26057	 15.88220	  9.57917	  9.86398	 -0.38878	 19.66622	705.26300	 22.20	
 10.191	-170.497	 18.80016	  4.28158	 15.79057	  8.60475	 10.82587	 -0.39547	 19.64204	705.13397	 22.20	
 10.210	-161.034	 18.77462	  4.45310	 15.53573	  7.67842	 11.79449	 -0.39701	 19.65253	705.24402	 22.20	
 10.194	-151.526	 18.75406	  4.77544	 15.10056	  6.82321	 12.73788	 -0.39951	 19.66185	705.15698	 22.20	
 10.190	-142.105	 18.74117	  5.21934	 14.52462	  6.06088	 13.59113	 -0.38764	 19.66070	705.21802	 22.20	
 10.215	-132.646	 18.71106	  5.76392	 13.81498	  5.40177	 14.34655	 -0.37527	 19.64878	705.16498	 22.20	
 10.203	-123.092	 18.71972	  6.45382	 12.98640	  4.86169	 14.99511	 -0.40047	 19.65606	705.13702	 22.20	
 10.192	-113.678	 18.71360	  7.24202	 12.07851	  4.45282	 15.49490	 -0.43228	 19.65916	705.34698	 22.20	
 10.208	-104.249	 18.72243	  8.11068	 11.11994	  4.16256	 15.84681	 -0.47370	 19.66810	705.21301	 22.20	
 10.210	-94.801	 18.70507	  9.03383	 10.12982	  4.01979	 16.00234	 -0.50573	 19.64033	705.17798	 22.20	
 10.210	-85.199	 18.73656	 10.03865	  9.13899	  4.01756	 16.02113	 -0.52284	 19.67078	705.10498	 22.20	
 10.208	-75.751	 18.74176	 11.02079	  8.19820	  4.15720	 15.83234	 -0.53349	 19.66777	705.22302	 22.20	
 10.192	-66.322	 18.74774	 11.98855	  7.31942	  4.45020	 15.47364	 -0.52431	 19.65919	705.03302	 22.20	
 10.203	-56.908	 18.77113	 12.91851	  6.51618	  4.86348	 14.97707	 -0.50983	 19.67388	705.15002	 22.20	
 10.215	-47.354	 18.75496	 13.75475	  5.78740	  5.39538	 14.31202	 -0.48703	 19.65102	705.10498	 22.20	
 10.190	-37.895	 18.77822	 14.47908	  5.21213	  6.05275	 13.55712	 -0.45474	 19.65278	705.11102	 22.20	
 10.194	-28.474	 18.80743	 15.08838	  4.74170	  6.79862	 12.70432	 -0.43096	 19.67218	705.11499	 22.20	
 10.210	-18.966	 18.82206	 15.55192	  4.37816	  7.65736	 11.75312	 -0.42331	 19.67656	705.01599	 22.20	
 10.191	 -9.503	 18.84831	 15.81753	  4.18479	  8.57331	 10.78322	 -0.43387	 19.65602	705.24402	 22.20	
 10.200	  0.000	 18.87960	 15.94638	  4.11391	  9.53769	  9.81212	 -0.43365	 19.66862	705.18103	 22.20	
 10.191	  9.503	 18.89941	 15.87368	  4.18400	 10.53309	  8.83976	 -0.41954	 19.65437	705.10303	 22.20	
 10.210	 18.966	 18.93666	 15.66780	  4.37977	 11.51761	  7.93549	 -0.41481	 19.67370	705.04401	 22.20	
 10.194	 28.474	 18.90498	 15.21751	  4.72196	 12.42549	  7.08780	 -0.41073	 19.62483	705.06598	 22.20	
 10.190	 37.895	 18.94675	 14.68430	  5.21095	 13.33231	  6.34486	 -0.38466	 19.65986	705.02600	 22.20	
 10.215	 47.354	 18.93193	 13.99313	  5.78840	 14.11097	  5.68462	 -0.35869	 19.64372	704.97699	 22.20	
 10.203	 56.908	 18.93630	 13.18644	  6.50383	 14.76859	  5.17624	 -0.34530	 19.65616	704.96301	 22.20	
 10.192	 66.322	 18.94248	 12.29953	  7.31249	 15.27554	  4.79250	 -0.35460	 19.66101	704.94800	 22.20	
 10.208	 75.751	 18.95421	 11.36317	  8.20180	 15.63604	  4.52780	 -0.37671	 19.67466	705.04102	 22.20	
 10.210	 85.199	 18.95525	 10.37971	  9.14495	 15.82348	  4.40267	 -0.42002	 19.67383	705.07202	 22.20	
 10.210	 94.801	 18.96023	  9.38443	 10.15128	 15.82907	  4.40907	 -0.42939	 19.67621	704.99402	 22.20	
 10.208	104.249	 18.93053	  8.42895	 11.11760	 15.63150	  4.54705	 -0.43438	 19.63696	705.05701	 22.20	
 10.192	113.678	 18.96372	  7.56423	 12.09773	 15.30728	  4.83286	 -0.42413	 19.67328	704.88599	 22.20	
 10.203	123.092	 18.94697	  6.74723	 12.98616	 14.79902	  5.20781	 -0.41230	 19.66176	704.92200	 22.20	
 10.215	132.646	 18.95240	  6.02497	 13.83708	 14.17529	  5.72855	 -0.39443	 19.68077	704.98199	 22.20	
 10.190	142.105	 18.96127	  5.43222	 14.55513	 13.40242	  6.38767	 -0.36473	 19.69407	705.05499	 22.20	
 10.194	151.526	 18.93933	  4.96048	 15.11916	 12.52300	  7.15203	 -0.34977	 19.68276	705.02399	 22.20	
 10.210	161.034	 18.91291	  4.57613	 15.55300	 11.57701	  7.98317	 -0.36444	 19.67700	704.92297	 22.20	
 10.191	170.497	 18.88217	  4.36079	 15.78844	 10.59276	  8.88950	 -0.37152	 19.65857	705.06403	 22.30	
 11.899	171.783	 18.50873	  3.19026	 16.50350	 10.26616	  8.53223	 -0.54966	 19.66702	704.78998	 22.30	
 11.890	163.610	 18.53159	  3.39213	 16.27295	 11.25360	  7.61630	 -0.52765	 19.66419	705.01898	 22.30	
 11.889	155.445	 18.60241	  3.70531	 15.93950	 12.24768	  6.77237	 -0.51264	 19.71239	704.95300	 22.30	
 11.909	147.299	 18.59481	  4.10559	 15.41843	 13.16144	  5.95679	 -0.50999	 19.69503	704.84998	 22.30	
 11.902	139.148	 18.57556	  4.62572	 14.75025	 13.97861	  5.24682	 -0.53831	 19.65956	704.95697	 22.30	
 11.894	130.867	 18.59965	  5.26632	 14.01226	 14.72906	  4.65626	 -0.54764	 19.66837	704.98700	 22.30	
 11.897	122.732	 18.59799	  5.96897	 13.17227	 15.36424	  4.14708	 -0.58179	 19.66257	704.97302	 22.30	
 11.903	114.597	 18.61694	  6.76861	 12.27682	 15.89641	  3.74023	 -0.60566	 19.68877	704.98999	 22.30	
 11.893	106.346	 18.64749	  7.67567	 11.31551	 16.29460	  3.46127	 -0.61742	 19.71217	704.98499	 22.30	
 11.892	 98.155	 18.62313	  8.59677	 10.31747	 16.50134	  3.29326	 -0.61945	 19.69470	704.96002	 22.30	
 11.900	 90.000	 18.61214	  9.56474	  9.31096	 16.56017	  3.23329	 -0.60420	 19.68695	705.08099	 22.30	
 11.892	 81.845	 18.60544	 10.55037	  8.33720	 16.46870	  3.28726	 -0.57082	 19.67328	704.96002	 22.30	
 11.893	 73.654	 18.60184	 11.53089	  7.39514	 16.21914	  3.45370	 -0.53048	 19.66746	705.03497	 22.30	
 11.903	 65.403	 18.62499	 12.50351	  6.52089	 15.85052	  3.73867	 -0.49397	 19.68537	704.99298	 22.30	
 11.897	 57.268	 18.63409	 13.40797	  5.72642	 15.32852	  4.13284	 -0.48025	 19.70401	704.80103	 22.30	
 11.894	 49.133	 18.61809	 14.21947	  5.01382	 14.66548	  4.63285	 -0.49438	 19.67544	704.98102	 22.30	
 11.902	 40.852	 18.62036	 14.95613	  4.39014	 13.91938	  5.23044	 -0.52953	 19.68542	704.89502	 22.30	
 11.909	 32.701	 18.62721	 15.57857	  3.87074	 13.08422	  5.93009	 -0.55658	 19.70010	704.94501	 22.30	
 11.889	 24.555	 18.59072	 16.04488	  3.47523	 12.13680	  6.72399	 -0.58072	 19.67463	704.91498	 22.30	
 11.890	 16.390	 18.57211	 16.39303	  3.18903	 11.17984	  7.57621	 -0.58993	 19.67123	704.85999	 22.30	
 11.899	  8.217	 18.56811	 16.59845	  3.02362	 10.20651	  8.49638	 -0.58277	 19.68900	705.00098	 22.30	
 11.900	  0.000	 18.53971	 16.65174	  2.96719	  9.20513	  9.47451	 -0.57629	 19.69711	704.97101	 22.30	
 11.899	 -8.217	 18.50687	 16.54599	  3.01801	  8.23134	 10.46229	 -0.57499	 19.69747	704.84399	 22.30	
 11.890	-16.390	 18.49391	 16.31052	  3.19548	  7.31048	 11.45397	 -0.57369	 19.71371	704.95599	 22.30	
 11.889	-24.555	 18.44037	 15.89089	  3.47372	  6.41429	 12.39204	 -0.57464	 19.68049	704.86298	 22.30	
 11.909	-32.701	 18.39970	 15.35042	  3.86721	  5.60683	 13.28481	 -0.59079	 19.66399	704.91803	 22.30	
 11.902	-40.852	 18.42978	 14.72428	  4.39669	  4.93482	 14.14126	 -0.60893	 19.70828	704.98499	 22.30	
 11.894	-49.133	 18.38738	 13.92316	  5.01553	  4.31146	 14.88464	 -0.62730	 19.67845	704.98199	 22.30	
 11.897	-57.268	 18.38374	 13.07343	  5.71776	  3.79648	 15.52518	 -0.65363	 19.68968	705.01599	 22.30	
 11.903	-65.403	 18.37263	 12.15124	  6.50628	  3.38422	 16.03591	 -0.67737	 19.68810	704.89203	 22.30	
 11.893	-73.654	 18.37881	 11.16840	  7.39314	  3.10717	 16.41200	 -0.69143	 19.69844	704.88702	 22.30	
 11.892	-81.845	 18.33200	 10.15520	  8.31937	  2.92668	 16.62140	 -0.67381	 19.66165	705.04700	 22.30	
 11.900	-90.000	 18.33141	  9.16656	  9.29065	  2.86622	 16.70772	 -0.67176	 19.67388	705.12799	 22.30	
 11.892	-98.155	 18.34573	  8.21624	 10.29049	  2.93010	 16.65077	 -0.65267	 19.69558	705.02899	 22.30	
 11.893	-106.346	 18.33966	  7.29192	 11.27979	  3.09544	 16.43873	 -0.63234	 19.69469	704.98199	 22.30	
 11.903	-114.597	 18.31294	  6.41914	 12.24128	  3.36719	 16.05834	 -0.58869	 19.67354	705.08801	 22.30	
 11.897	-122.732	 18.31335	  5.64425	 13.14969	  3.77532	 15.54967	 -0.55986	 19.67746	705.06702	 22.30	
 11.894	-130.867	 18.34755	  4.98137	 14.00793	  4.31259	 14.93172	 -0.52610	 19.68947	704.90002	 22.30	
 11.902	-139.148	 18.37526	  4.39007	 14.78309	  4.94262	 14.18621	 -0.53161	 19.71032	704.98499	 22.30	
 11.909	-147.299	 18.35576	  3.90523	 15.38877	  5.64306	 13.33611	 -0.55736	 19.66813	704.94501	 22.30	
 11.889	-155.445	 18.41082	  3.55353	 15.91606	  6.45978	 12.44675	 -0.56869	 19.69783	704.96301	 22.30	
 11.890	-163.610	 18.40287	  3.28783	 16.26698	  7.33599	 11.46148	 -0.57022	 19.65543	704.87500	 22.30	
 11.899	-171.783	 18.47352	  3.13824	 16.53496	  8.27993	 10.51361	 -0.56309	 19.70199	704.99298	 22.30	
 11.900	180.000	 18.48890	  3.10721	 16.59563	  9.25320	  9.52167	 -0.56131	 19.68082	704.85303	 22.30	
 13.600	180.000	 18.05294	  1.97573	 17.22987	  8.86626	  9.11439	 -0.73005	 19.69480	704.89502	 22.30	
 13.608	-172.853	 17.99877	  1.99105	 17.15870	  7.89991	 10.06503	 -0.74155	 19.67750	704.87000	 22.30	
 13.611	-165.583	 17.96919	  2.10511	 16.96476	  6.94663	 11.06765	 -0.75049	 19.68663	704.83502	 22.30	
 13.601	-158.353	 17.93533	  2.32649	 16.61875	  6.03300	 12.04270	 -0.74260	 19.67773	704.89099	 22.30	
 13.609	-151.210	 17.92958	  2.63575	 16.17976	  5.21300	 12.98414	 -0.72199	 19.70067	704.95001	 22.30	
 13.611	-143.999	 17.90487	  3.04349	 15.60659	  4.47282	 13.86815	 -0.69880	 19.70265	704.86102	 22.30	
 13.601	-136.825	 17.85576	  3.53218	 14.88900	  3.78187	 14.66133	 -0.67609	 19.66951	704.88000	 22.30	
 13.596	-129.640	 17.85781	  4.13149	 14.11750	  3.20494	 15.40079	 -0.66213	 19.68693	704.95300	 22.30	
 13.611	-122.431	 17.86864	  4.81573	 13.27340	  2.71601	 16.04848	 -0.69050	 19.70664	704.99402	 22.30	
 13.604	-115.211	 17.84114	  5.57273	 12.33265	  2.33259	 16.52675	 -0.73443	 19.66529	705.03900	 22.30	
 13.595	-108.042	 17.86267	  6.41524	 11.37629	  2.04134	 16.92524	 -0.76384	 19.69089	704.84601	 22.30	
 13.607	-100.793	 17.84669	  7.30100	 10.37400	  1.82978	 17.17903	 -0.76795	 19.66849	704.91699	 22.30	
 13.601	-93.617	 17.83571	  8.23765	  9.37121	  1.73353	 17.28960	 -0.77453	 19.64938	704.93201	 22.30	
 13.601	-86.383	 17.88453	  9.24060	  8.40129	  1.72825	 17.33204	 -0.76891	 19.69919	705.05798	 22.30	
 13.607	-79.207	 17.89710	 10.23450	  7.45063	  1.82365	 17.20498	 -0.76769	 19.70052	704.91498	 22.30	
 13.595	-71.958	 17.90376	 11.22995	  6.54204	  2.03296	 16.91887	 -0.76340	 19.68787	704.86401	 22.30	
 13.604	-64.789	 17.90285	 12.20317	  5.67707	  2.31641	 16.52121	 -0.75805	 19.68608	705.00800	 22.30	
 13.611	-57.569	 17.92248	 13.14370	  4.89097	  2.70243	 16.01775	 -0.74903	 19.69561	704.96802	 22.30	
 13.596	-50.360	 17.91557	 14.00309	  4.19079	  3.18530	 15.37122	 -0.73086	 19.66894	704.84998	 22.30	
 13.601	-43.175	 17.95237	 14.81816	  3.57178	  3.76339	 14.65928	 -0.72099	 19.69535	704.87500	 22.30	
 13.611	-36.001	 17.94703	 15.51244	  3.03159	  4.43158	 13.82230	 -0.71039	 19.67526	704.97302	 22.30	
 13.609	-28.790	 17.97206	 16.11620	  2.59025	  5.17759	 12.94214	 -0.70967	 19.67927	704.93103	 22.40	
 13.601	-21.647	 18.00723	 16.59909	  2.26238	  5.99912	 12.02727	 -0.70106	 19.68247	704.86102	 22.30	
 13.611	-14.417	 18.00695	 16.93415	  2.00589	  6.87382	 11.02518	 -0.69926	 19.65861	704.95697	 22.40	
 13.608	 -7.147	 18.08003	 17.19452	  1.87127	  7.83855	 10.05699	 -0.69991	 19.70698	704.95697	 22.40	
 13.600	  0.000	 18.10111	 17.27180	  1.82552	  8.78983	  9.07788	 -0.70220	 19.68164	704.87799	 22.40	
 13.608	  7.147	 18.13326	 17.24175	  1.86915	  9.78767	  8.10994	 -0.71278	 19.69141	704.96198	 22.40	
 13.611	 14.417	 18.18194	 17.08803	  2.01084	 10.79225	  7.18546	 -0.71749	 19.71367	704.96802	 22.40	
 13.601	 21.647	 18.19666	 16.77136	  2.25080	 11.76779	  6.30914	 -0.72593	 19.70421	704.74298	 22.40	
 13.609	 28.790	 18.20308	 16.34073	  2.58389	 12.71257	  5.49164	 -0.71531	 19.69741	704.91699	 22.40	
 13.611	 36.001	 18.19588	 15.78505	  3.01455	 13.59582	  4.74516	 -0.68384	 19.68156	704.98499	 22.40	
 13.601	 43.175	 18.21095	 15.12743	  3.56428	 14.42592	  4.11006	 -0.65648	 19.68858	704.95398	 22.40	
 13.596	 50.360	 18.17576	 14.35674	  4.17492	 15.14598	  3.52358	 -0.62331	 19.65251	704.90900	 22.40	
 13.611	 57.569	 18.18885	 13.54384	  4.87420	 15.81806	  3.02739	 -0.62540	 19.67971	705.01599	 22.40	
 13.604	 64.789	 18.21037	 12.65696	  5.66590	 16.37707	  2.63536	 -0.63827	 19.71691	704.82703	 22.40	
 13.595	 71.958	 18.20589	 11.70082	  6.53312	 16.78523	  2.36520	 -0.67181	 19.71355	704.87500	 22.40	
 13.607	 79.207	 18.20103	 10.71099	  7.44932	 17.05420	  2.18358	 -0.71401	 19.69651	704.99298	 22.40	
 13.601	 86.383	 18.20424	  9.72276	  8.41812	 17.18836	  2.09416	 -0.74848	 19.69843	704.84998	 22.40	
 13.601	 93.617	 18.21778	  8.73810	  9.42349	 17.20458	  2.10506	 -0.77654	 19.70945	704.83600	 22.40	
 13.607	100.793	 18.17949	  7.75532	 10.39318	 17.04838	  2.19052	 -0.77530	 19.67041	704.82898	 22.40	
 13.595	108.042	 18.18020	  6.82226	 11.38399	 16.77351	  2.38925	 -0.77490	 19.66312	704.84601	 22.40	
 13.604	115.211	 18.20370	  5.96736	 12.36651	 16.41596	  2.66962	 -0.76632	 19.69203	704.99597	 22.40	
 13.611	122.431	 18.22261	  5.17623	 13.30326	 15.91851	  3.05708	 -0.74012	 19.71737	704.93201	 22.40	
 13.596	129.640	 18.21341	  4.47122	 14.15373	 15.26966	  3.55779	 -0.70489	 19.69976	705.03198	 22.40	
 13.601	136.825	 18.19337	  3.84218	 14.92502	 14.53482	  4.13534	 -0.69737	 19.68884	704.92200	 22.40	
 13.611	143.999	 18.22103	  3.30260	 15.63550	 13.75498	  4.79026	 -0.68066	 19.73002	704.93402	 22.40	
 13.609	151.210	 18.15330	  2.83408	 16.16726	 12.82486	  5.51101	 -0.67668	 19.68351	704.92603	 22.40	
 13.601	158.353	 18.13360	  2.48475	 16.61786	 11.86808	  6.33993	 -0.68024	 19.67737	705.00201	 22.40	
 13.611	165.583	 18.12207	  2.21054	 16.97190	 10.89264	  7.22539	 -0.70372	 19.69410	704.92902	 22.40	
 13.608	172.853	 18.10488	  2.04892	 17.18228	  9.88910	  8.15628	 -0.71355	 19.71172	704.97302	 22.30	
 15.298	173.587	 17.61171	  0.94779	 17.74232	  9.45605	  7.70022	 -0.86172	 19.70732	704.90802	 22.40	
 15.291	167.167	 17.65051	  1.08463	 17.57534	 10.43645	  6.78987	 -0.84780	 19.71896	705.02100	 22.40	
 15.307	160.676	 17.65727	  1.30601	 17.26600	 11.42599	  5.89903	 -0.82925	 19.69675	704.93201	 22.40	
 15.300	154.261	 17.64652	  1.61448	 16.82605	 12.38459	  5.05263	 -0.81711	 19.66043	704.72498	 22.40	
 15.288	147.854	 17.68223	  2.00651	 16.32269	 13.31100	  4.30356	 -0.80802	 19.67551	704.82098	 22.40	
 15.293	141.428	 17.70595	  2.47217	 15.70647	 14.18595	  3.61883	 -0.81372	 19.68531	704.94202	 22.40	
 15.299	134.985	 17.70828	  3.01667	 14.97853	 14.99599	  2.98897	 -0.82904	 19.68246	704.96997	 22.40	
 15.305	128.583	 17.74163	  3.64325	 14.19908	 15.74683	  2.44162	 -0.84823	 19.72046	704.91498	 22.40	
 15.309	122.142	 17.70904	  4.33690	 13.29488	 16.33718	  1.98167	 -0.85995	 19.67916	704.94202	 22.40	
 15.304	115.711	 17.72167	  5.12832	 12.38645	 16.85126	  1.62343	 -0.86777	 19.69252	705.03302	 22.40	
 15.297	109.291	 17.73720	  5.98041	 11.43856	 17.26650	  1.34951	 -0.85878	 19.71279	704.98999	 22.40	
 15.293	102.897	 17.71855	  6.87477	 10.44922	 17.54286	  1.13985	 -0.85072	 19.68621	704.91803	 22.40	
 15.293	 96.458	 17.69675	  7.80162	  9.44502	 17.70428	  1.01097	 -0.84991	 19.67073	704.97302	 22.40	
 15.300	 90.000	 17.68937	  8.76450	  8.45192	 17.74702	  0.96554	 -0.86045	 19.66715	705.00403	 22.40	
 15.293	 83.542	 17.70882	  9.78842	  7.48887	 17.69233	  1.01199	 -0.84660	 19.68313	704.94598	 22.40	
 15.293	 77.103	 17.71540	 10.78158	  6.55564	 17.49930	  1.13827	 -0.82136	 19.68654	705.01300	 22.40	
 15.297	 70.709	 17.73989	 11.76984	  5.67298	 17.21583	  1.34628	 -0.77366	 19.71503	705.00500	 22.40	
 15.304	 64.289	 17.71487	 12.70027	  4.82494	 16.76313	  1.61920	 -0.74595	 19.68335	704.95697	 22.40	
 15.309	 57.858	 17.71802	 13.60412	  4.04880	 16.24598	  1.97649	 -0.73358	 19.69281	704.83197	 22.40	
 15.305	 51.417	 17.70716	 14.43661	  3.34543	 15.59499	  2.42429	 -0.72767	 19.66154	704.97400	 22.40	
 15.299	 45.015	 17.76779	 15.26156	  2.73540	 14.90621	  2.97829	 -0.75052	 19.73101	705.04700	 22.40	
 15.293	 38.572	 17.74625	 15.93551	  2.19784	 14.06880	  3.60039	 -0.76567	 19.70204	704.91101	 22.40	
 15.288	 32.146	 17.73804	 16.51833	  1.74180	 13.18853	  4.28638	 -0.78410	 19.69503	704.89099	 22.40	
 15.300	 25.739	 17.72724	 17.01120	  1.36614	 12.28018	  5.03871	 -0.77824	 19.69608	704.88300	 22.40	
 15.307	 19.324	 17.70276	 17.40003	  1.07147	 11.30998	  5.86038	 -0.77087	 19.69992	704.97699	 22.40	
 15.291	 12.833	 17.66856	 17.64770	  0.87944	 10.31333	  6.74081	 -0.75336	 19.67309	704.86298	 22.40	
 15.298	  6.413	 17.65737	 17.80859	  0.76394	  9.34534	  7.66144	 -0.75036	 19.70169	704.88599	 22.40	
 15.300	  0.000	 17.62277	 17.84164	  0.72210	  8.34682	  8.63224	 -0.75268	 19.69872	704.89099	 22.40	
 15.298	 -6.413	 17.57648	 17.75049	  0.75611	  7.37937	  9.59841	 -0.75208	 19.69498	704.83600	 22.40	
 15.291	-12.833	 17.54109	 17.54844	  0.88028	  6.45110	 10.58212	 -0.76255	 19.69302	704.88000	 22.40	
 15.307	-19.324	 17.54050	 17.27021	  1.07378	  5.55508	 11.59686	 -0.76505	 19.73371	704.78400	 22.40	
 15.300	-25.739	 17.47926	 16.79277	  1.36718	  4.72643	 12.51861	 -0.76206	 19.68869	704.87000	 22.40	
 15.288	-32.146	 17.47579	 16.25422	  1.75349	  3.97406	 13.44849	 -0.75582	 19.70322	704.98798	 22.40	
 15.293	-38.572	 17.47112	 15.62659	  2.20234	  3.25987	 14.33482	 -0.76080	 19.73195	704.89099	 22.40	
 15.299	-45.015	 17.43487	 14.86808	  2.74100	  2.62440	 15.11546	 -0.77022	 19.70712	704.96198	 22.40	
 15.305	-51.417	 17.42367	 14.05935	  3.36022	  2.10382	 15.82270	 -0.76250	 19.70661	704.93701	 22.40	
 15.309	-57.858	 17.40659	 13.16747	  4.05825	  1.65453	 16.43595	 -0.76392	 19.70056	704.78497	 22.50	
 15.304	-64.289	 17.40572	 12.22859	  4.82400	  1.28332	 16.95650	 -0.76070	 19.70873	704.71198	 22.40	
 15.297	-70.709	 17.38367	 11.24408	  5.65219	  0.99674	 17.35499	 -0.75324	 19.69783	704.80798	 22.40	
 15.293	-77.103	 17.35967	 10.25068	  6.52807	  0.77976	 17.64497	 -0.75004	 19.69260	704.74597	 22.50	
 15.293	-83.542	 17.35624	  9.25425	  7.46911	  0.64870	 17.84083	 -0.76240	 19.70193	704.75702	 22.40	
 15.300	-90.000	 17.32899	  8.25398	  8.43016	  0.60182	 17.89335	 -0.78020	 19.69122	704.80402	 22.40	
 15.293	-96.458	 17.31543	  7.29364	  9.41195	  0.65319	 17.81862	 -0.82564	 19.66821	704.78400	 22.50	
 15.293	-102.897	 17.32538	  6.38188	 10.41026	  0.76485	 17.66184	 -0.84032	 19.69482	704.86700	 22.50	
 15.297	-109.291	 17.35229	  5.53079	 11.42668	  0.98222	 17.40244	 -0.84555	 19.73166	704.95300	 22.50	
 15.304	-115.711	 17.30882	  4.69672	 12.37368	  1.27732	 16.96434	 -0.82537	 19.69422	704.96997	 22.50	
 15.309	-122.142	 17.32509	  3.96149	 13.30977	  1.65310	 16.45136	 -0.80141	 19.71564	704.91400	 22.50	
 15.305	-128.583	 17.33955	  3.29651	 14.19062	  2.12054	 15.83988	 -0.79723	 19.71555	704.94202	 22.50	
 15.299	-134.985	 17.33696	  2.70315	 14.97715	  2.65147	 15.13172	 -0.79767	 19.71076	704.95398	 22.50	
 15.293	-141.428	 17.36549	  2.19492	 15.70478	  3.29482	 14.33648	 -0.82004	 19.71558	704.95398	 22.50	
 15.288	-147.854	 17.38425	  1.76901	 16.31949	  4.00510	 13.45528	 -0.86001	 19.70147	704.87000	 22.50	
 15.300	-154.261	 17.40070	  1.42074	 16.83013	  4.76092	 12.54836	 -0.88854	 19.69556	704.90100	 22.50	
 15.307	-160.676	 17.42517	  1.16178	 17.24550	  5.60661	 11.59093	 -0.88902	 19.69032	704.91400	 22.50	
 15.291	-167.167	 17.48294	  0.99844	 17.54848	  6.53224	 10.60983	 -0.88379	 19.69881	704.81897	 22.50	
 15.298	-173.587	 17.50760	  0.90487	 17.71350	  7.45780	  9.62644	 -0.88637	 19.68591	704.78998	 22.50	
 15.300	180.000	 17.57261	  0.87440	 17.80389	  8.44874	  8.66451	 -0.87717	 19.71568	705.07001	 22.50	
 17.000	180.000	 16.97333	 -0.20263	 18.27139	  7.93479	  8.14395	 -0.95247	 19.67944	704.83899	 22.50	
 16.990	-174.179	 16.97207	 -0.18879	 18.25951	  7.01069	  9.12930	 -0.94611	 19.72457	704.89801	 22.50	
 17.009	-168.383	 16.90265	 -0.12260	 18.08460	  6.05483	 10.09416	 -0.94927	 19.70468	704.86902	 22.50	
 17.000	-162.596	 16.84634	  0.03157	 17.78958	  5.15021	 11.06227	 -0.94984	 19.68410	704.77698	 22.50	
 16.990	-156.759	 16.82945	  0.26012	 17.43404	  4.31861	 12.04716	 -0.95255	 19.69748	704.86401	 22.50	
 16.995	-150.919	 16.80314	  0.55423	 16.95787	  3.51760	 12.99336	 -0.96033	 19.70453	704.69000	 22.50	
 16.988	-145.161	 16.77751	  0.91622	 16.38856	  2.79089	 13.89154	 -0.93390	 19.70687	704.77399	 22.50	
 17.014	-139.343	 16.74037	  1.34221	 15.72007	  2.12550	 14.72579	 -0.92047	 19.69893	704.71802	 22.50	
 17.007	-133.546	 16.73540	  1.86029	 14.97982	  1.56292	 15.49004	 -0.89679	 19.70470	704.74902	 22.50	
 17.001	-127.699	 16.72188	  2.44666	 14.14866	  1.05050	 16.17570	 -0.88734	 19.69589	704.84698	 22.50	
 17.006	-121.937	 16.72336	  3.09592	 13.27648	  0.61623	 16.80311	 -0.88719	 19.70476	704.87000	 22.50	
 17.002	-116.134	 16.73153	  3.81739	 12.35340	  0.24545	 17.33671	 -0.89277	 19.72096	704.67798	 22.50	
 17.001	-110.310	 16.73004	  4.60506	 11.38592	 -0.05056	 17.75813	 -0.88375	 19.71364	704.76501	 22.50	
 16.988	-104.517	 16.72239	  5.44796	 10.38647	 -0.24382	 18.03273	 -0.85400	 19.68068	704.68597	 22.50	
 17.008	-98.662	 16.73899	  6.33646	  9.39737	 -0.39365	 18.26140	 -0.78354	 19.70354	704.78497	 22.50	
 16.996	-92.909	 16.76128	  7.26163	  8.43532	 -0.45012	 18.37680	 -0.75800	 19.71644	704.67297	 22.50	
 16.996	-87.091	 16.75216	  8.22869	  7.45138	 -0.45219	 18.34954	 -0.73899	 19.69364	704.60400	 22.50	
 17.012	-81.253	 16.79726	  9.23930	  6.51955	 -0.39515	 18.29773	 -0.68529	 19.74364	704.74298	 22.50	
 16.988	-75.483	 16.77411	 10.20519	  5.61619	 -0.24540	 18.04375	 -0.67395	 19.69892	704.67999	 22.50	
 17.001	-69.690	 16.77864	 11.17960	  4.75089	 -0.04663	 17.73220	 -0.67612	 19.69980	704.95001	 22.50	
 17.002	-63.866	 16.78536	 12.15340	  3.94537	  0.23524	 17.30751	 -0.68405	 19.69133	704.83197	 22.50	
 17.006	-58.063	 16.81623	 13.10589	  3.20654	  0.59069	 16.80032	 -0.70706	 19.70183	704.86102	 22.50	
 17.001	-52.301	 16.82524	 13.99014	  2.53448	  1.01871	 16.17539	 -0.73160	 19.69693	704.91498	 22.50	
 17.007	-46.454	 16.83743	 14.83660	  1.91339	  1.52621	 15.46973	 -0.73501	 19.69143	704.82898	 22.50	
 17.014	-40.657	 16.84096	 15.59270	  1.36433	  2.09141	 14.70498	 -0.74724	 19.68119	704.81097	 22.50	
 16.988	-34.839	 16.88076	 16.28732	  0.91830	  2.75853	 13.86827	 -0.76134	 19.69885	704.93402	 22.50	
 16.995	-29.081	 16.92965	 16.90416	  0.53436	  3.47855	 12.99996	 -0.75047	 19.72984	704.87000	 22.50	
 16.990	-23.241	 16.92496	 17.36501	  0.22223	  4.25280	 12.02472	 -0.76016	 19.68387	704.93201	 22.50	
 17.000	-17.404	 16.92846	 17.74232	 -0.03584	  5.07376	 11.04847	 -0.75435	 19.65983	704.82898	 22.50	
 17.009	-11.617	 16.98769	 18.05787	 -0.20086	  5.97211	 10.08853	 -0.74615	 19.68993	704.72803	 22.50	
 16.990	 -5.821	 17.04893	 18.25180	 -0.30441	  6.90123	  9.12997	 -0.74791	 19.70930	704.79602	 22.50	
 17.000	  0.000	 17.06839	 18.32519	 -0.34010	  7.85163	  8.14646	 -0.71935	 19.69926	704.91699	 22.50	
 16.990	  5.821	 17.11269	 18.29259	 -0.30764	  8.84189	  7.18250	 -0.72121	 19.69666	704.88397	 22.50	
 17.009	 11.617	 17.15240	 18.19039	 -0.21973	  9.82183	  6.27337	 -0.75058	 19.72080	704.76001	 22.50	
 17.000	 17.404	 17.16915	 17.93535	 -0.05140	 10.79281	  5.39784	 -0.73369	 19.69891	704.75403	 22.50	
 16.990	 23.241	 17.19415	 17.60534	  0.19705	 11.77392	  4.56926	 -0.75614	 19.71011	704.62799	 22.50	
 16.995	 29.081	 17.21095	 17.16929	  0.51373	 12.72321	  3.80435	 -0.78189	 19.72398	704.67200	 22.50	
 16.988	 34.839	 17.22451	 16.62278	  0.90592	 13.62327	  3.10160	 -0.80961	 19.73001	704.73102	 22.50	
 17.014	 40.657	 17.18710	 15.96304	  1.34822	 14.46838	  2.43113	 -0.80753	 19.69948	704.73901	 22.50	
 17.007	 46.454	 17.18001	 15.24105	  1.89117	 15.25784	  1.85673	 -0.80886	 19.68795	704.77002	 22.50	
 17.001	 52.301	 17.20018	 14.46375	  2.51956	 15.99005	  1.36155	 -0.80710	 19.70617	704.71399	 22.50	
 17.006	 58.063	 17.17222	 13.60064	  3.18455	 16.60305	  0.92749	 -0.81813	 19.69186	704.79700	 22.50	
 17.002	 63.866	 17.13868	 12.68493	  3.92009	 17.11928	  0.56720	 -0.83881	 19.66609	704.69800	 22.50	
 17.001	 69.690	 17.14245	 11.74903	  4.73166	 17.57188	  0.27622	 -0.86692	 19.67002	704.79700	 22.50	
 16.988	 75.483	 17.14924	 10.77938	  5.59528	 17.91128	  0.06597	 -0.87978	 19.68049	704.87701	 22.50	
 17.012	 81.253	 17.16544	  9.81051	  6.50455	 18.15865	 -0.07039	 -0.88217	 19.71387	704.62500	 22.50	
 16.996	 87.091	 17.14910	  8.81464	  7.44756	 18.24841	 -0.11812	 -0.87996	 19.68483	704.62799	 22.50	
 16.996	 92.909	 17.16605	  7.84119	  8.42663	 18.27676	 -0.12095	 -0.85679	 19.70505	704.66400	 22.50	
 17.008	 98.662	 17.16645	  6.89760	  9.40465	 18.18643	 -0.06096	 -0.83348	 19.70907	704.67798	 22.50	
 16.988	104.517	 17.16811	  5.97845	 10.39611	 17.95763	  0.09988	 -0.84731	 19.69496	704.73499	 22.50	
 17.001	110.310	 17.17675	  5.10038	 11.38426	 17.66117	  0.29735	 -0.86499	 19.69903	704.66302	 22.50	
 17.002	116.134	 17.16227	  4.26519	 12.33621	 17.22639	  0.59051	 -0.87866	 19.68278	704.65198	 22.50	
 17.006	121.937	 17.20524	  3.51218	 13.28352	 16.73227	  0.94856	 -0.92028	 19.71370	704.73401	 22.50	
 17.001	127.699	 17.19440	  2.81847	 14.15766	 16.11902	  1.37658	 -0.92625	 19.70951	704.75403	 22.50	
 17.007	133.546	 17.17867	  2.18900	 14.96833	 15.40418	  1.86836	 -0.93187	 19.70204	704.74902	 22.50	
 17.014	139.343	 17.18315	  1.63937	 15.73591	 14.63482	  2.44626	 -0.93668	 19.71370	704.73401	 22.50	
 16.988	145.161	 17.18173	  1.18943	 16.40604	 13.77052	  3.12113	 -0.93370	 19.72173	704.67200	 22.50	
 16.995	150.919	 17.14533	  0.78415	 16.95509	 12.85943	  3.81835	 -0.94916	 19.69624	704.71198	 22.50	
 16.990	156.759	 17.11978	  0.45407	 17.42204	 11.90873	  4.58959	 -0.94743	 19.68513	704.69501	 22.50	
 17.000	162.596	 17.07719	  0.17837	 17.78556	 10.90567	  5.41105	 -0.95678	 19.66870	704.68701	 22.50	
 17.009	168.383	 17.08254	 -0.02461	 18.08551	  9.93232	  6.29113	 -0.96220	 19.71671	704.70898	 22.50	
 16.990	174.179	 17.01287	 -0.13322	 18.20182	  8.92674	  7.18507	 -0.97146	 19.67419	704.72498	 22.50	
 18.709	174.675	 16.43044	 -1.20351	 18.68793	  8.41755	  6.66860	 -0.98945	 19.73156	704.75201	 22.50	
 18.703	169.441	 16.45014	 -1.09728	 18.51708	  9.37635	  5.77153	 -0.99885	 19.70119	704.75201	 22.50	
 18.691	164.085	 16.48615	 -0.92248	 18.28169	 10.38219	  4.89786	 -1.01222	 19.70082	704.75098	 22.50	
 18.706	158.818	 16.51320	 -0.70069	 17.95526	 11.37329	  4.06894	 -1.01022	 19.69735	704.77399	 22.50	
 18.695	153.537	 16.53301	 -0.40555	 17.51495	 12.32418	  3.31927	 -1.00928	 19.69782	704.66602	 22.50	
 18.704	148.255	 16.55551	 -0.05913	 17.00252	 13.25704	  2.60120	 -1.01132	 19.71437	704.76801	 22.40	
 18.698	142.952	 16.57930	  0.36161	 16.38668	 14.15245	  1.92809	 -0.99567	 19.71945	704.68298	 22.50	
 18.699	137.625	 16.57748	  0.83157	 15.67162	 14.96976	  1.32707	 -0.97506	 19.69621	704.78802	 22.50	
 18.705	132.343	 16.59751	  1.36970	 14.91450	 15.73448	  0.79580	 -0.93844	 19.70940	704.76801	 22.50	
 18.713	127.067	 16.63303	  1.97472	 14.11313	 16.46300	  0.32225	 -0.93113	 19.75287	704.78400	 22.50	
 18.700	121.794	 16.57181	  2.64758	 13.18198	 17.02682	 -0.08760	 -0.88970	 19.68859	704.74298	 22.50	
 18.698	116.504	 16.60588	  3.40399	 12.28129	 17.58460	 -0.42743	 -0.85202	 19.73329	704.73401	 22.40	
 18.707	111.165	 16.55607	  4.18642	 11.29177	 17.97486	 -0.71753	 -0.80409	 19.68635	704.69397	 22.50	
 18.690	105.863	 16.57873	  5.04748	 10.33576	 18.31064	 -0.90747	 -0.76787	 19.70739	704.75897	 22.40	
 18.696	100.583	 16.57630	  5.94459	  9.35300	 18.54550	 -1.06060	 -0.76083	 19.70748	704.65601	 22.40	
 18.700	 95.309	 16.58321	  6.88238	  8.38084	 18.69247	 -1.14799	 -0.75806	 19.72325	704.62402	 22.50	
 18.700	 90.000	 16.55752	  7.82132	  7.39711	 18.70433	 -1.17993	 -0.77118	 19.69797	704.68103	 22.50	
 18.700	 84.691	 16.58305	  8.81568	  6.45507	 18.66844	 -1.14039	 -0.82657	 19.71886	704.66602	 22.50	
 18.696	 79.417	 16.58190	  9.78250	  5.54277	 18.50180	 -1.05754	 -0.87405	 19.71059	704.69501	 22.50	
 18.690	 74.137	 16.55371	 10.73382	  4.67459	 18.21914	 -0.90133	 -0.87636	 19.68269	704.62500	 22.40	
 18.707	 68.835	 16.57617	 11.72308	  3.83772	 17.90963	 -0.71517	 -0.87770	 19.71292	704.76202	 22.50	
 18.698	 63.496	 16.56951	 12.65839	  3.04907	 17.43635	 -0.42517	 -0.88101	 19.69473	704.73499	 22.50	
 18.700	 58.206	 16.58633	 13.56234	  2.33063	 16.90699	 -0.08852	 -0.86338	 19.70699	704.67999	 22.50	
 18.713	 52.933	 16.59477	 14.42519	  1.66113	 16.28205	  0.31210	 -0.85275	 19.70816	704.61902	 22.40	
 18.705	 47.657	 16.60713	 15.22589	  1.07240	 15.57810	  0.79423	 -0.83193	 19.70435	704.67297	 22.50	
 18.699	 42.375	 16.58900	 15.93081	  0.54059	 14.78322	  1.31511	 -0.80684	 19.67132	704.73499	 22.50	
 18.698	 37.048	 16.63626	 16.64121	  0.07510	 13.98406	  1.91716	 -0.76462	 19.72953	704.56897	 22.50	
 18.704	 31.745	 16.60553	 17.20456	 -0.32674	 13.06155	  2.58350	 -0.72789	 19.69700	704.58301	 22.40	
 18.695	 26.463	 16.59436	 17.69697	 -0.66130	 12.13447	  3.30904	 -0.69177	 19.69595	704.74298	 22.40	
 18.706	 21.182	 16.59047	 18.10870	 -0.93097	 11.20528	  4.06616	 -0.66745	 19.71280	704.71698	 22.40	
 18.691	 15.915	 16.56345	 18.39756	 -1.12775	 10.23269	  4.89657	 -0.65919	 19.69218	704.79901	 22.40	
 18.703	 10.559	 16.52280	 18.59810	 -1.27801	  9.24344	  5.76144	 -0.65339	 19.68458	704.71802	 22.40	
 18.709	  5.325	 16.50825	 18.74399	 -1.36964	  8.30262	  6.66152	 -0.65328	 19.71359	704.69397	 22.40	
 18.700	  0.000	 16.45801	 18.73846	 -1.38059	  7.32396	  7.62080	 -0.66482	 19.69261	704.77399	 22.40	
 18.709	 -5.325	 16.41893	 18.67112	 -1.36100	  6.37160	  8.57739	 -0.66415	 19.69546	704.82703	 22.40	
 18.703	-10.559	 16.37879	 18.50157	 -1.26545	  5.48352	  9.53901	 -0.67951	 19.68900	704.65002	 22.40	
 18.691	-15.915	 16.35606	 18.24569	 -1.10674	  4.58714	 10.53951	 -0.70602	 19.70564	704.67499	 22.40	
 18.706	-21.182	 16.30175	 17.87483	 -0.90323	  3.76169	 11.47582	 -0.71268	 19.67865	704.71698	 22.40	
 18.695	-26.463	 16.30155	 17.45147	 -0.63570	  2.99096	 12.44112	 -0.71970	 19.71599	704.84399	 22.40	
 18.704	-31.745	 16.25436	 16.88528	 -0.30534	  2.25078	 13.34960	 -0.71104	 19.69526	704.74200	 22.40	
 18.698	-37.048	 16.24685	 16.25620	  0.09534	  1.59151	 14.22526	 -0.70845	 19.70896	704.67499	 22.40	
 18.699	-42.375	 16.22338	 15.52808	  0.56575	  0.99707	 15.03671	 -0.71147	 19.70069	704.68103	 22.40	
 18.705	-47.657	 16.20531	 14.75336	  1.08486	  0.44587	 15.79594	 -0.70209	 19.70225	704.77600	 22.40	
 18.713	-52.933	 16.17063	 13.89673	  1.67894	 -0.03306	 16.47786	 -0.66430	 19.69926	704.74500	 22.40	
 18.700	-58.206	 16.15338	 12.99034	  2.34520	 -0.42198	 17.06382	 -0.64185	 19.68440	704.60498	 22.40	
 18.698	-63.496	 16.17512	 12.08273	  3.07150	 -0.74065	 17.60031	 -0.60494	 19.71590	704.58002	 22.40	
 18.707	-68.835	 16.14023	 11.10331	  3.85781	 -1.00840	 18.00184	 -0.59749	 19.68026	704.58801	 22.40	
 18.690	-74.137	 16.16277	 10.14720	  4.70851	 -1.20637	 18.36483	 -0.60386	 19.71405	704.66602	 22.40	
 18.696	-79.417	 16.13431	  9.14618	  5.56002	 -1.38036	 18.59400	 -0.63413	 19.71640	704.63300	 22.40	
 18.700	-84.691	 16.13056	  8.18114	  6.46792	 -1.47384	 18.75492	 -0.63887	 19.73087	704.61102	 22.40	
 18.700	-90.000	 16.09096	  7.19403	  7.40217	 -1.50209	 18.76972	 -0.67357	 19.68796	704.56500	 22.40	
 18.700	-95.309	 16.07690	  6.25348	  8.36683	 -1.48024	 18.71815	 -0.69476	 19.68113	704.65503	 22.40	
 18.696	-100.583	 16.11410	  5.35846	  9.36960	 -1.40218	 18.62937	 -0.74506	 19.73708	704.59900	 22.40	
 18.690	-105.863	 16.10706	  4.49718	 10.35445	 -1.24296	 18.39008	 -0.81508	 19.73829	704.59399	 22.40	
 18.707	-111.165	 16.05729	  3.67924	 11.30772	 -1.02694	 18.02602	 -0.85710	 19.69981	704.50000	 22.40	
 18.698	-116.504	 16.04888	  2.92281	 12.26635	 -0.73758	 17.58947	 -0.90814	 19.68496	704.78198	 22.40	
 18.700	-121.794	 16.03950	  2.22344	 13.17598	 -0.40799	 17.07352	 -0.92979	 19.68744	704.69800	 22.40	
 18.713	-127.067	 16.05564	  1.58403	 14.07354	 -0.00409	 16.49125	 -0.95365	 19.70727	704.69800	 22.40	
 18.705	-132.343	 16.07393	  1.01991	 14.90988	  0.46967	 15.81671	 -0.95988	 19.71067	704.71802	 22.40	
 18.699	-137.625	 16.10129	  0.52259	 15.68401	  1.02710	 15.05901	 -0.96033	 19.72163	704.74298	 22.40	
 18.698	-142.952	 16.11481	  0.07014	 16.37344	  1.62798	 14.24305	 -0.96354	 19.71429	704.69800	 22.40	
 18.704	-148.255	 16.15551	 -0.30924	 17.00663	  2.29850	 13.38123	 -0.96528	 19.73048	704.83502	 22.40	
 18.695	-153.537	 16.18679	 -0.62032	 17.53684	  3.04767	 12.46064	 -0.96099	 19.73909	704.70398	 22.40	
 18.706	-158.818	 16.19687	 -0.87072	 17.94946	  3.82759	 11.50361	 -0.94332	 19.70524	704.81097	 22.40	
 18.691	-164.085	 16.26728	 -1.04832	 18.30440	  4.68442	 10.56420	 -0.93432	 19.73235	704.68701	 22.40	
 18.703	-169.441	 16.29795	 -1.18736	 18.54692	  5.58627	  9.56008	 -0.94026	 19.72843	704.66998	 22.40	
 18.709	-174.675	 16.32980	 -1.25790	 18.68040	  6.46324	  8.58030	 -0.95858	 19.71661	704.85498	 22.40	
 18.700	180.000	 16.40008	 -1.25176	 18.74315	  7.42952	  7.62826	 -0.96937	 19.74046	704.62402	 22.40	
 20.400	180.000	 15.73843	 -2.29155	 19.11298	  6.88988	  7.05997	 -0.92763	 19.76414	704.75897	 22.40	
 20.401	-175.153	 15.68143	 -2.28533	 19.05887	  5.95224	  8.01644	 -0.89372	 19.74637	704.71698	 22.40	
 20.407	-170.264	 15.63292	 -2.24268	 18.93646	  5.05198	  8.97257	 -0.89557	 19.74462	704.71100	 22.40	
 20.410	-165.423	 15.57648	 -2.13359	 18.71346	  4.17811	  9.95072	 -0.86093	 19.74771	704.71698	 22.40	
 20.392	-160.496	 15.55334	 -1.95470	 18.41060	  3.35291	 10.92214	 -0.86911	 19.75317	704.69397	 22.40	
 20.401	-155.705	 15.49615	 -1.74243	 18.00578	  2.56030	 11.84857	 -0.87651	 19.73459	704.60400	 22.40	
 20.405	-150.835	 15.48825	 -1.48212	 17.54912	  1.80856	 12.80480	 -0.88467	 19.77341	704.65503	 22.40	
 20.397	-145.903	 15.42320	 -1.14698	 16.93890	  1.12066	 13.67020	 -0.92775	 19.73083	704.70398	 22.40	
 20.392	-141.062	 15.40001	 -0.75774	 16.30001	  0.49984	 14.51416	 -0.95514	 19.72689	704.74902	 22.40	
 20.396	-136.227	 15.36333	 -0.31746	 15.56050	 -0.06865	 15.29761	 -0.96392	 19.70262	704.63599	 22.40	
 20.408	-131.372	 15.32861	  0.17099	 14.76783	 -0.59204	 16.01496	 -0.97283	 19.69390	704.70099	 22.40	
 20.410	-126.511	 15.34882	  0.72323	 13.96003	 -1.02819	 16.71742	 -0.95746	 19.71834	704.63202	 22.40	
 20.400	-121.604	 15.35128	  1.35239	 13.06892	 -1.40412	 17.31068	 -0.94102	 19.71484	704.61298	 22.40	
 20.403	-116.741	 15.35538	  2.02439	 12.15403	 -1.73987	 17.83689	 -0.87872	 19.72021	704.62500	 22.40	
 20.413	-111.900	 15.32916	  2.73534	 11.18734	 -2.01218	 18.24117	 -0.82486	 19.68571	704.54498	 22.40	
 20.398	-107.004	 15.34392	  3.51946	 10.22178	 -2.23322	 18.58681	 -0.75742	 19.68944	704.56799	 22.40	
 20.394	-102.132	 15.35557	  4.36254	  9.23904	 -2.39348	 18.85335	 -0.69776	 19.69515	704.57703	 22.40	
 20.403	-97.332	 15.35955	  5.21831	  8.27629	 -2.50621	 19.01656	 -0.64610	 19.68654	704.61298	 22.40	
 20.392	-92.440	 15.37871	  6.13974	  7.32013	 -2.55227	 19.11610	 -0.62789	 19.71525	704.73102	 22.40	
 20.392	-87.560	 15.39308	  7.08157	  6.37005	 -2.54984	 19.11904	 -0.62112	 19.71563	704.71698	 22.40	
 20.403	-82.668	 15.39341	  8.03291	  5.44634	 -2.50663	 19.02548	 -0.59681	 19.70863	704.68597	 22.40	
 20.394	-77.868	 15.40905	  8.99049	  4.57979	 -2.39372	 18.85692	 -0.58109	 19.69867	704.60797	 22.40	
 20.398	-72.996	 15.42941	  9.97788	  3.74511	 -2.22214	 18.60859	 -0.56468	 19.70567	704.70398	 22.40	
 20.413	-68.100	 15.42994	 10.93524	  2.93328	 -2.01144	 18.24291	 -0.56774	 19.69027	704.68103	 22.40	
 20.403	-63.259	 15.46782	 11.90468	  2.20631	 -1.73002	 17.83092	 -0.56817	 19.70353	704.74597	 22.40	
 20.400	-58.396	 15.47899	 12.83171	  1.50721	 -1.42102	 17.31614	 -0.58521	 19.69963	704.70599	 22.40	
 20.410	-53.489	 15.47617	 13.72283	  0.84328	 -1.04876	 16.71658	 -0.61345	 19.69214	704.54199	 22.40	
 20.408	-48.628	 15.45846	 14.55156	  0.25247	 -0.62499	 16.03133	 -0.63560	 19.66530	704.65900	 22.40	
 20.396	-43.773	 15.52009	 15.38806	 -0.25633	 -0.10211	 15.33050	 -0.65069	 19.70147	704.58801	 22.40	
 20.392	-38.938	 15.54215	 16.12320	 -0.71737	  0.46480	 14.52655	 -0.65774	 19.69559	704.61102	 22.40	
 20.397	-34.097	 15.56694	 16.79477	 -1.11949	  1.06318	 13.68098	 -0.67167	 19.70872	704.53699	 22.40	
 20.405	-29.165	 15.58813	 17.40689	 -1.47748	  1.74294	 12.78049	 -0.65800	 19.71002	704.61798	 22.40	
 20.401	-24.295	 15.62480	 17.91729	 -1.76115	  2.48352	 11.84709	 -0.66358	 19.72104	704.50897	 22.40	
 20.392	-19.504	 15.66113	 18.32585	 -1.98312	  3.24932	 10.91977	 -0.66402	 19.71427	704.61298	 22.40	
 20.410	-14.577	 15.68591	 18.65399	 -2.18353	  4.06545	  9.94659	 -0.65563	 19.71515	704.59601	 22.40	
 20.407	 -9.736	 15.71518	 18.87111	 -2.30675	  4.93805	  8.96768	 -0.62896	 19.69499	704.68701	 22.40	
 20.401	 -4.847	 15.75489	 19.02648	 -2.37958	  5.83159	  8.00095	 -0.61636	 19.69246	704.53101	 22.40	
 20.400	  0.000	 15.81497	 19.10906	 -2.41546	  6.75119	  7.06589	 -0.61465	 19.72173	704.70300	 22.40	
 20.401	  4.847	 15.84650	 19.08712	 -2.38734	  7.70376	  6.13224	 -0.60935	 19.71623	704.65002	 22.40	
 20.407	  9.736	 15.89297	 19.00725	 -2.33069	  8.65940	  5.23618	 -0.59776	 19.73087	704.63300	 22.40	
 20.410	 14.577	 15.89906	 18.80531	 -2.20775	  9.61044	  4.37022	 -0.59523	 19.70411	704.54602	 22.40	
 20.392	 19.504	 15.91037	 18.49475	 -2.00601	 10.57730	  3.53822	 -0.59303	 19.68167	704.62500	 22.40	
 20.401	 24.295	 15.94984	 18.17812	 -1.78850	 11.52574	  2.79854	 -0.61548	 19.71376	704.73102	 22.40	
 20.405	 29.165	 15.97172	 17.72712	 -1.49573	 12.46760	  2.07677	 -0.63857	 19.72731	704.68903	 22.40	
 20.397	 34.097	 15.96728	 17.16905	 -1.15262	 13.39180	  1.37787	 -0.68830	 19.71812	704.61902	 22.40	
 20.392	 38.938	 15.96865	 16.55774	 -0.73784	 14.25268	  0.77919	 -0.74121	 19.70994	704.62402	 22.40	
 20.396	 43.773	 15.95525	 15.86339	 -0.28395	 15.04940	  0.23483	 -0.77268	 19.70023	704.67499	 22.40	
 20.408	 48.628	 15.93101	 15.09776	  0.23759	 15.80060	 -0.28218	 -0.82145	 19.69273	704.60498	 22.40	
 20.410	 53.489	 15.93724	 14.31211	  0.81399	 16.52965	 -0.73847	 -0.85339	 19.72006	704.66602	 22.40	
 20.400	 58.396	 15.93812	 13.45509	  1.45943	 17.16417	 -1.11436	 -0.87280	 19.72592	704.54498	 22.40	
 20.403	 63.259	 15.91234	 12.53537	  2.15932	 17.68016	 -1.43720	 -0.87780	 19.70790	704.73901	 22.40	
 20.413	 68.100	 15.91271	 11.62774	  2.90515	 18.13836	 -1.69679	 -0.87509	 19.71167	704.61298	 22.40	
 20.398	 72.996	 15.92204	 10.66956	  3.70479	 18.51975	 -1.91147	 -0.86248	 19.72677	704.56000	 22.40	
 20.394	 77.868	 15.92052	  9.69784	  4.54730	 18.79503	 -2.07925	 -0.82094	 19.72355	704.66699	 22.40	
 20.403	 82.668	 15.91665	  8.75055	  5.42490	 18.97351	 -2.16695	 -0.76839	 19.73030	704.67297	 22.40	
 20.392	 87.560	 15.90965	  7.77988	  6.35054	 19.06324	 -2.22073	 -0.72618	 19.71423	704.59601	 22.40	
 20.392	 92.440	 15.89315	  6.81633	  7.29619	 19.04421	 -2.20469	 -0.69586	 19.68292	704.55499	 22.40	
 20.403	 97.332	 15.90692	  5.88551	  8.27420	 18.98880	 -2.15470	 -0.66952	 19.70751	704.60199	 22.40	
 20.394	102.132	 15.91995	  5.00379	  9.23777	 18.83838	 -2.04976	 -0.68890	 19.71398	704.69501	 22.40	
 20.398	107.004	 15.93782	  4.13826	 10.21567	 18.59355	 -1.89873	 -0.69338	 19.72643	704.54498	 22.40	
 20.413	111.900	 15.91897	  3.30844	 11.17436	 18.23624	 -1.68895	 -0.72671	 19.69866	704.68103	 22.40	
 20.403	116.741	 15.92967	  2.54411	 12.11574	 17.80690	 -1.42685	 -0.77079	 19.69741	704.66998	 22.40	
 20.400	121.604	 15.92984	  1.81051	 13.03536	 17.29760	 -1.10687	 -0.79081	 19.70833	704.71100	 22.40	
 20.410	126.511	 15.93269	  1.13202	 13.93913	 16.71786	 -0.73227	 -0.87146	 19.71087	704.63898	 22.40	
 20.408	131.372	 15.92712	  0.55041	 14.76482	 16.02971	 -0.28233	 -0.91624	 19.69082	704.57703	 22.40	
 20.396	136.227	 15.92997	  0.02123	 15.55018	 15.27675	  0.23397	 -0.96327	 19.69581	704.68597	 22.40	
 20.392	141.062	 15.93798	 -0.43657	 16.28450	 14.50628	  0.79202	 -0.98787	 19.72256	704.51501	 22.40	
 20.397	145.903	 15.93762	 -0.85943	 16.94760	 13.66606	  1.39066	 -1.01677	 19.74432	704.71997	 22.40	
 20.405	150.835	 15.90903	 -1.22223	 17.51517	 12.73186	  2.07509	 -1.01873	 19.72699	704.60797	 22.50	
 20.401	155.705	 15.89002	 -1.53072	 17.99710	 11.75229	  2.79227	 -1.01296	 19.72239	704.62701	 22.50	
 20.392	160.496	 15.84505	 -1.78451	 18.36762	 10.79507	  3.54806	 -1.01775	 19.69317	704.60199	 22.50	
 20.410	165.423	 15.82273	 -1.99763	 18.68868	  9.79904	  4.37564	 -0.98652	 19.71690	704.42999	 22.50	
 20.407	170.264	 15.77932	 -2.14078	 18.88377	  8.80479	  5.23248	 -0.96737	 19.69501	704.51703	 22.50	
 20.401	175.153	 15.74734	 -2.24048	 19.01777	  7.84448	  6.11468	 -0.95557	 19.71654	704.41101	 22.50	
  0.141	 45.000	 19.72122	 10.81378	 10.63155	 10.67342	 10.84053	  0.16091	 19.68592	704.36499	 22.50	
  4.001	128.691	 19.66416	  9.23661	 11.97581	 12.27956	  8.99397	  0.09729	 19.68964	704.53101	 22.50	
  4.002	 76.995	 19.69746	 11.19136	 10.00975	 12.73421	  8.60703	  0.08512	 19.71074	704.48401	 22.50	
  4.002	 25.892	 19.67087	 12.73164	  8.52221	 11.47889	  9.71068	  0.09288	 19.69727	704.51703	 22.50	
  4.002	-25.892	 19.66833	 12.68147	  8.52926	  9.47310	 11.72297	  0.07324	 19.71584	704.50702	 22.50	
  4.002	-76.995	 19.62437	 11.03415	  9.98865	  8.28873	 12.99492	  0.06529	 19.68541	704.58002	 22.50	
  4.001	-128.691	 19.63098	  9.14010	 11.98491	  8.71797	 12.53729	  0.06678	 19.69690	704.54901	 22.50	
  4.000	180.000	 19.67323	  8.39760	 12.87843	 10.43892	 10.75496	  0.07690	 19.71361	704.51398	 22.50	
  8.000	180.000	 19.26471	  5.75831	 14.91566	  9.96616	 10.26123	 -0.19577	 19.70350	704.44202	 22.50	
  7.991	-152.370	 19.22893	  6.16585	 14.35736	  7.87190	 12.45844	 -0.21644	 19.72432	704.47601	 22.50	
  7.997	-124.550	 19.21438	  7.46303	 12.77706	  6.29883	 14.24116	 -0.22645	 19.73473	704.47803	 22.50	
  8.006	-96.837	 19.19429	  9.42136	 10.60649	  5.58005	 15.06750	 -0.29367	 19.71593	704.64398	 22.50	
  7.988	-69.228	 19.18252	 11.64605	  8.41760	  5.81645	 14.74353	 -0.31400	 19.68836	704.56000	 22.50	
  7.997	-41.563	 19.24366	 13.64119	  6.70688	  6.98002	 13.42378	 -0.27160	 19.73262	704.58698	 22.50	
  8.008	-13.821	 19.29308	 14.82089	  5.76496	  8.86320	 11.36130	 -0.24109	 19.74384	704.61102	 22.50	
  8.008	 13.821	 19.30591	 14.86329	  5.76112	 11.08165	  9.11772	 -0.22772	 19.70815	704.53198	 22.50	
  7.997	 41.563	 19.33146	 13.80236	  6.69352	 13.14607	  7.27425	 -0.20371	 19.69828	704.53198	 22.50	
  7.988	 69.228	 19.36128	 11.92354	  8.42361	 14.54978	  6.17126	 -0.19487	 19.73704	704.46600	 22.50	
  8.006	 96.837	 19.34003	  9.69124	 10.59592	 14.83820	  5.94110	 -0.21819	 19.70617	704.60797	 22.50	
  7.997	124.550	 19.32985	  7.68419	 12.74764	 13.98243	  6.63592	 -0.20999	 19.69593	704.56799	 22.50	
  7.991	152.370	 19.31075	  6.29402	 14.34010	 12.18647	  8.18603	 -0.18831	 19.69963	704.48999	 22.50	
 12.009	161.059	 18.56763	  3.40097	 16.26194	 11.58148	  7.33912	 -0.56555	 19.72180	704.62402	 22.50	
 12.013	142.081	 18.56764	  4.36069	 15.04064	 13.71821	  5.44917	 -0.56363	 19.69242	704.52399	 22.50	
 12.006	123.113	 18.61381	  5.89439	 13.24648	 15.40662	  4.11282	 -0.61658	 19.71840	704.52899	 22.50	
 12.007	104.200	 18.60947	  7.86937	 11.04047	 16.40516	  3.34221	 -0.65134	 19.71577	704.50598	 22.50	
 11.989	 85.301	 18.60158	 10.12637	  8.72163	 16.57562	  3.20362	 -0.62291	 19.70320	704.35699	 22.60	
 12.013	 66.294	 18.59213	 12.40186	  6.56383	 15.92710	  3.65310	 -0.53283	 19.69638	704.48401	 22.50	
 12.012	 47.388	 18.60965	 14.41803	  4.81948	 14.54028	  4.72464	 -0.53046	 19.69783	704.46198	 22.60	
 11.990	 28.440	 18.59829	 15.88117	  3.58502	 12.60397	  6.31208	 -0.60543	 19.71407	704.69000	 22.60	
 11.991	  9.464	 18.53861	 16.60559	  2.97426	 10.34186	  8.33700	 -0.61334	 19.68645	704.55200	 22.60	
 11.991	 -9.464	 18.46918	 16.54035	  2.97296	  8.05240	 10.61056	 -0.61341	 19.69224	704.51501	 22.60	
 11.990	-28.440	 18.41405	 15.69381	  3.58543	  5.97577	 12.86997	 -0.61066	 19.69966	704.46899	 22.60	
 12.012	-47.388	 18.39247	 14.13398	  4.80992	  4.36042	 14.80449	 -0.65563	 19.71963	704.46100	 22.60	
 12.013	-66.294	 18.35275	 12.04668	  6.54974	  3.27643	 16.14838	 -0.70710	 19.70284	704.42102	 22.60	
 11.989	-85.301	 18.35886	  9.74785	  8.71372	  2.84455	 16.75724	 -0.70783	 19.72107	704.56897	 22.60	
 12.007	-104.200	 18.33595	  7.49823	 11.01906	  2.97119	 16.57819	 -0.67177	 19.72601	704.51099	 22.60	
 12.006	-123.113	 18.32098	  5.56884	 13.21840	  3.74349	 15.59381	 -0.58861	 19.71382	704.49200	 22.60	
 12.013	-142.081	 18.36379	  4.13928	 15.06218	  5.13970	 13.93841	 -0.57805	 19.72798	704.58698	 22.60	
 12.009	-161.059	 18.39552	  3.27846	 16.23326	  7.01638	 11.79806	 -0.60995	 19.70015	704.46600	 22.60	
 16.000	180.000	 17.32895	  0.43210	 18.00333	  8.25030	  8.46884	 -0.93493	 19.70490	704.50598	 22.60	
 15.990	-165.604	 17.23380	  0.57371	 17.69297	  6.02253	 10.74509	 -0.94574	 19.70339	704.54199	 22.60	
 16.002	-151.165	 17.16798	  1.14184	 16.77231	  4.04416	 12.98724	 -0.93582	 19.71711	704.43799	 22.60	
 16.002	-136.836	 17.09243	  2.12669	 15.29118	  2.42817	 14.98456	 -0.87087	 19.70876	704.51501	 22.60	
 15.995	-122.439	 17.07343	  3.56425	 13.34797	  1.25767	 16.55895	 -0.87176	 19.68856	704.49500	 22.60	
 15.993	-107.966	 17.08506	  5.38041	 11.11983	  0.48636	 17.64864	 -0.88637	 19.71167	704.53699	 22.60	
 16.005	-93.629	 17.07794	  7.45908	  8.80203	  0.15538	 18.09632	 -0.80814	 19.69269	704.56799	 22.60	
 15.992	-79.234	 17.10489	  9.75623	  6.56138	  0.25729	 17.93721	 -0.73944	 19.69895	704.51398	 22.60	
 16.009	-64.774	 17.13667	 12.07906	  4.54379	  0.78459	 17.18591	 -0.74416	 19.70251	704.53802	 22.60	
 15.997	-50.364	 17.18920	 14.23183	  2.87281	  1.76314	 15.83757	 -0.77474	 19.70533	704.69000	 22.60	
 15.997	-36.045	 17.22749	 15.99516	  1.59165	  3.14457	 14.03631	 -0.77773	 19.70800	704.71198	 22.60	
 16.000	-21.597	 17.29780	 17.28448	  0.73830	  4.93059	 11.89843	 -0.79226	 19.73341	704.60797	 22.60	
 16.003	 -7.169	 17.34336	 17.93081	  0.32386	  7.02295	  9.57892	 -0.77973	 19.69503	704.62500	 22.60	
 16.003	  7.169	 17.43220	 17.99902	  0.32119	  9.29504	  7.32642	 -0.77009	 19.69870	704.50000	 22.60	
 16.000	 21.597	 17.51221	 17.46946	  0.72406	 11.60079	  5.26261	 -0.79872	 19.72488	704.69501	 22.60	
 15.997	 36.045	 17.52005	 16.29396	  1.57740	 13.75604	  3.50005	 -0.82467	 19.69612	704.61102	 22.60	
 15.997	 50.364	 17.49448	 14.62815	  2.84436	 15.60462	  2.09656	 -0.79180	 19.68841	704.48999	 22.60	
 16.009	 64.774	 17.51333	 12.61656	  4.53508	 17.01381	  1.14342	 -0.80849	 19.72788	704.60199	 22.60	
 15.992	 79.234	 17.49659	 10.33391	  6.56953	 17.81746	  0.61599	 -0.88648	 19.71989	704.53400	 22.60	
 16.005	 93.629	 17.49864	  8.03087	  8.82522	 17.99780	  0.52079	 -0.88497	 19.71773	704.51398	 22.70	
 15.993	107.966	 17.51579	  5.87331	 11.13541	 17.53376	  0.85167	 -0.88629	 19.71708	704.59302	 22.70	
 15.995	122.439	 17.49644	  3.95383	 13.33927	 16.45616	  1.60430	 -0.91521	 19.68410	704.55200	 22.70	
 16.002	136.836	 17.52315	  2.45505	 15.30739	 14.88613	  2.77674	 -0.90229	 19.72779	704.52899	 22.70	
 16.002	151.165	 17.48124	  1.36367	 16.78550	 12.85720	  4.36832	 -0.88571	 19.71196	704.50098	 22.70	
 15.990	165.604	 17.41672	  0.69816	 17.68517	 10.55531	  6.30871	 -0.92026	 19.69311	704.55402	 22.70	
 20.003	168.362	 15.96287	 -1.85361	 18.74362	  9.28536	  5.07456	 -1.00317	 19.70610	704.53198	 22.70	
 20.008	156.764	 16.01627	 -1.36507	 18.01014	 11.58377	  3.15227	 -1.03782	 19.70394	704.46899	 22.70	
 20.000	145.147	 16.04036	 -0.56947	 16.76013	 13.73205	  1.51911	 -1.02460	 19.67876	704.47498	 22.70	
 19.995	133.545	 16.11514	  0.53425	 15.14373	 15.69176	  0.19012	 -0.96178	 19.72036	704.37201	 22.70	
 20.009	121.926	 16.08874	  1.96171	 13.13701	 17.20567	 -0.83964	 -0.84862	 19.70852	704.53998	 22.70	
 20.005	110.327	 16.07648	  3.74396	 10.93739	 18.28031	 -1.50002	 -0.75158	 19.70105	704.60400	 22.70	
 19.989	 98.733	 16.09875	  5.79379	  8.67906	 18.88990	 -1.86131	 -0.72694	 19.74240	704.52301	 22.70	
 19.999	 87.075	 16.07352	  7.99339	  6.41352	 18.97002	 -1.94357	 -0.77335	 19.71746	704.45203	 22.70	
 19.992	 75.457	 16.09633	 10.26532	  4.32842	 18.58260	 -1.71860	 -0.85988	 19.72452	704.47601	 22.70	
 20.009	 63.844	 16.08220	 12.46317	  2.46295	 17.68243	 -1.21063	 -0.91070	 19.71199	704.62799	 22.70	
 19.989	 52.269	 16.11310	 14.52176	  0.89434	 16.32220	 -0.36339	 -0.86769	 19.71339	704.42999	 22.70	
 19.999	 40.602	 16.12881	 16.30227	 -0.35411	 14.53908	  0.82287	 -0.77489	 19.71480	704.49298	 22.70	
 20.004	 29.051	 16.13416	 17.68043	 -1.26774	 12.49940	  2.29271	 -0.67183	 19.72809	704.51801	 22.80	
 20.005	 17.433	 16.07329	 18.56301	 -1.86140	 10.27065	  4.06555	 -0.64154	 19.70074	704.64398	 22.80	
 20.006	  5.780	 16.02990	 19.01814	 -2.15135	  8.02376	  6.11508	 -0.63515	 19.74093	704.50098	 22.80	
 20.006	 -5.780	 15.89258	 18.91278	 -2.14743	  5.79526	  8.30769	 -0.64415	 19.68751	704.66998	 22.80	
 20.005	-17.433	 15.82325	 18.38816	 -1.83511	  3.75696	 10.60304	 -0.67373	 19.71024	704.52600	 22.80	
 20.004	-29.051	 15.75549	 17.36727	 -1.25114	  1.95479	 12.80553	 -0.70493	 19.71517	704.54199	 22.80	
 19.999	-40.602	 15.70659	 15.86810	 -0.34016	  0.48239	 14.81198	 -0.69926	 19.71464	704.55200	 22.80	
 19.989	-52.269	 15.64098	 13.95542	  0.90972	 -0.72108	 16.52906	 -0.66448	 19.69787	704.65503	 22.80	
 20.009	-63.844	 15.66418	 11.86510	  2.49310	 -1.53755	 17.86876	 -0.62997	 19.74643	704.56299	 22.80	
 19.992	-75.457	 15.60245	  9.57540	  4.34369	 -2.04617	 18.65886	 -0.61996	 19.69801	704.59302	 22.80	
 19.999	-87.075	 15.57238	  7.31884	  6.41966	 -2.28846	 19.03599	 -0.65944	 19.71346	704.67999	 22.80	
 19.989	-98.733	 15.55829	  5.14408	  8.67355	 -2.23219	 18.93233	 -0.71611	 19.72080	704.54797	 22.80	
 20.005	-110.327	 15.54279	  3.18349	 10.96622	 -1.85184	 18.34951	 -0.84340	 19.74280	704.55200	 22.80	
 20.009	-121.926	 15.53613	  1.50662	 13.16229	 -1.15077	 17.25640	 -0.96823	 19.73532	704.77600	 22.80	
 19.995	-133.545	 15.50647	  0.16606	 15.09868	 -0.14152	 15.68182	 -1.01440	 19.68776	704.59302	 22.80	
 20.000	-145.147	 15.56934	 -0.85133	 16.77800	  1.22216	 13.83200	 -0.97625	 19.71272	704.60797	 22.80	
 20.008	-156.764	 15.65479	 -1.56321	 18.01887	  2.90685	 11.70464	 -0.91815	 19.72496	704.63501	 22.80	
 20.003	-168.362	 15.75762	 -1.96181	 18.75551	  4.87461	  9.45934	 -0.92348	 19.72624	704.58002	 22.80	
 20.000	180.000	 15.85729	 -2.05584	 18.98015	  6.99141	  7.18257	 -0.96483	 19.71689	704.57300	 22.80	
