FileType=PCF
NHL=14
Date=08/31/17	08:30:35
Facility=APL
Serial=16328-20
Customer=NASA
NP=6
Mach=0.250000
Calibration=1:1
CalPts=490
TstPts=95
PortNumbering=AP Standard
Units=Torr C m/s kg/m^3 deg mm 
Theta[deg]	Phi[deg]	P1[Torr]	P2[Torr]	P3[Torr]	P4[Torr]	P5[Torr]	P6[Torr]	Pt[Torr]	Ps[Abs,Torr]	Ts[C]	
  0.000	  0.000	 30.26725	 16.98853	 16.46845	 16.35680	 17.08707	  0.25997	 30.23993	705.21503	 23.80	
  1.691	128.401	 30.25873	 16.04685	 17.38907	 17.45384	 15.86185	  0.23424	 30.23558	705.18201	 23.80	
  1.692	 77.194	 30.29741	 17.26241	 16.12742	 17.81938	 15.53796	  0.23882	 30.28308	705.34198	 23.80	
  1.699	 26.182	 30.23550	 18.21103	 15.07735	 16.99250	 16.30167	  0.23576	 30.21806	705.35400	 23.80	
  1.699	-26.182	 30.26925	 18.24402	 15.05981	 15.67570	 17.66932	  0.22887	 30.25562	705.31097	 23.80	
  1.692	-77.194	 30.27996	 17.26778	 16.02266	 14.82383	 18.50781	  0.22195	 30.26115	705.39301	 23.80	
  1.691	-128.401	 30.26699	 16.05108	 17.36703	 15.14238	 18.24367	  0.22356	 30.25583	705.36700	 23.80	
  1.700	180.000	 30.29337	 15.51613	 18.01350	 16.30512	 17.10019	  0.23712	 30.27354	705.32202	 23.80	
  3.400	180.000	 30.23893	 13.79358	 19.39262	 16.15720	 17.03800	  0.17870	 30.27144	705.34399	 23.80	
  3.388	-152.325	 30.20460	 14.13025	 19.02862	 14.66419	 18.41152	  0.18101	 30.24170	705.38202	 23.80	
  3.397	-124.529	 30.20572	 15.11570	 17.98937	 13.59921	 19.41718	  0.15315	 30.25224	705.29102	 23.80	
  3.399	-96.763	 30.22816	 16.44487	 16.54446	 13.17455	 19.85831	  0.14403	 30.26087	705.35400	 23.80	
  3.394	-69.283	 30.19460	 17.80282	 15.10254	 13.33271	 19.63747	  0.13956	 30.23566	705.27100	 23.80	
  3.400	-41.398	 30.20254	 19.00136	 14.00064	 14.12138	 18.78574	  0.14183	 30.24548	705.41199	 23.80	
  3.401	-14.021	 30.21679	 19.56046	 13.44515	 15.49489	 17.53969	  0.15959	 30.26267	705.29199	 23.80	
  3.401	 14.021	 30.17506	 19.50881	 13.46248	 16.90725	 16.04535	  0.17135	 30.20714	705.26801	 23.80	
  3.400	 41.398	 30.21818	 18.83891	 14.12126	 18.16827	 14.82657	  0.17121	 30.24960	705.25201	 23.80	
  3.394	 69.283	 30.19279	 17.80777	 15.25372	 18.96476	 14.09201	  0.17375	 30.22391	705.26001	 23.80	
  3.399	 96.763	 30.23242	 16.47020	 16.67624	 19.13555	 14.01867	  0.17468	 30.25225	705.33899	 23.80	
  3.397	124.529	 30.23656	 15.13279	 18.11102	 18.57363	 14.50812	  0.17874	 30.26421	705.32599	 23.70	
  3.388	152.325	 30.17062	 14.15718	 19.03459	 17.48405	 15.56666	  0.17648	 30.19988	705.32300	 23.70	
  5.099	161.165	 30.08127	 12.38021	 20.38862	 17.36883	 15.36476	  0.08775	 30.24570	705.29498	 23.70	
  5.109	142.013	 30.08314	 13.01797	 19.82877	 18.64141	 14.09040	  0.08246	 30.24391	705.30902	 23.80	
  5.095	123.033	 30.08329	 14.15292	 18.72928	 19.72459	 13.14308	  0.07234	 30.24869	705.41199	 23.70	
  5.105	104.191	 30.10281	 15.51374	 17.34068	 20.39961	 12.56295	  0.06646	 30.26163	705.10797	 23.80	
  5.093	 85.207	 30.08212	 16.92036	 15.81325	 20.52884	 12.43018	  0.07466	 30.24677	705.19598	 23.80	
  5.104	 66.290	 30.06797	 18.31936	 14.41302	 20.16863	 12.68600	  0.08225	 30.24586	705.15302	 23.80	
  5.094	 47.331	 30.06285	 19.44532	 13.19396	 19.31002	 13.39200	  0.07937	 30.24260	705.36700	 23.80	
  5.089	 28.397	 30.03248	 20.39798	 12.28556	 18.16512	 14.41469	  0.06674	 30.22758	705.29498	 23.80	
  5.096	  9.576	 30.09206	 20.95641	 11.82376	 16.83737	 15.78444	  0.06271	 30.28034	705.29999	 23.80	
  5.096	 -9.576	 30.04135	 20.92581	 11.76555	 15.31614	 17.27178	  0.05667	 30.24551	705.34198	 23.80	
  5.089	-28.397	 30.01571	 20.43782	 12.14924	 13.81027	 18.63796	  0.03686	 30.21572	705.23297	 23.70	
  5.094	-47.331	 30.02126	 19.47433	 12.99906	 12.62451	 19.84605	 -0.05535	 30.22354	705.25201	 23.80	
  5.104	-66.290	 30.02813	 18.30883	 14.15478	 11.80955	 20.68103	 -0.01556	 30.24323	705.37299	 23.70	
  5.093	-85.207	 30.06691	 16.92416	 15.52028	 11.46130	 21.11960	  0.00751	 30.27394	705.29102	 23.70	
  5.105	-104.191	 30.07683	 15.49469	 17.03426	 11.55115	 21.06871	  0.02163	 30.27741	705.24103	 23.70	
  5.095	-123.033	 30.07335	 14.09299	 18.52771	 12.09382	 20.47152	  0.04617	 30.27017	705.23602	 23.70	
  5.109	-142.013	 30.01934	 13.00124	 19.68941	 13.02517	 19.54294	  0.05454	 30.21446	705.25403	 23.70	
  5.099	-161.165	 30.05909	 12.37654	 20.46509	 14.31072	 18.29621	  0.07223	 30.25660	705.26398	 23.70	
  5.100	180.000	 30.04187	 12.14828	 20.60613	 15.90068	 16.84124	  0.07902	 30.22347	705.38702	 23.70	
  6.800	180.000	 29.79714	 10.47273	 21.94319	 15.58515	 16.59579	 -0.04989	 30.22886	705.35602	 23.70	
  6.796	-166.229	 29.79115	 10.61706	 21.74462	 14.03559	 18.03054	 -0.07227	 30.24057	705.35602	 23.70	
  6.808	-152.311	 29.73927	 11.07514	 21.11131	 12.64258	 19.35556	 -0.16371	 30.21046	705.28601	 23.80	
  6.795	-138.383	 29.74637	 11.86103	 20.24075	 11.48909	 20.46482	 -0.15741	 30.22664	705.16803	 23.70	
  6.792	-124.591	 29.72584	 12.84359	 19.10447	 10.60199	 21.39652	 -0.20203	 30.20021	705.29901	 23.80	
  6.787	-110.754	 29.76220	 14.05705	 17.73186	  9.99911	 22.07231	 -0.24014	 30.23886	705.23999	 23.80	
  6.800	-96.985	 29.73669	 15.50919	 16.28826	  9.65757	 22.34836	 -0.25716	 30.21980	705.32501	 23.80	
  6.800	-83.015	 29.75784	 16.96392	 14.86045	  9.69291	 22.31837	 -0.28029	 30.23785	705.40100	 23.80	
  6.787	-69.246	 29.76582	 18.31092	 13.56369	 10.02899	 21.94735	 -0.29916	 30.25556	705.37097	 23.80	
  6.792	-55.409	 29.72375	 19.51247	 12.31090	 10.68097	 21.16418	 -0.28905	 30.21030	705.36700	 23.80	
  6.795	-41.617	 29.75133	 20.68044	 11.27568	 11.67602	 20.11141	 -0.24030	 30.23774	705.31598	 23.80	
  6.808	-27.689	 29.72326	 21.54313	 10.39859	 12.89475	 18.93213	 -0.21694	 30.20336	705.23199	 23.80	
  6.796	-13.771	 29.75060	 22.06660	  9.94052	 14.26257	 17.57008	 -0.20522	 30.22420	705.27100	 23.80	
  6.800	  0.000	 29.76564	 22.22731	  9.83234	 15.77310	 16.15201	 -0.18795	 30.24030	705.27698	 23.80	
  6.796	 13.771	 29.78052	 22.04849	 10.13562	 17.21190	 14.77141	 -0.13866	 30.24880	705.20502	 23.80	
  6.808	 27.689	 29.75672	 21.52684	 10.67350	 18.49074	 13.48015	 -0.16973	 30.22294	705.38702	 23.80	
  6.795	 41.617	 29.77757	 20.66868	 11.50963	 19.73809	 12.41406	 -0.14781	 30.22860	705.24103	 23.80	
  6.792	 55.409	 29.78012	 19.49882	 12.59451	 20.74544	 11.57783	 -0.13706	 30.22254	705.36200	 23.80	
  6.787	 69.246	 29.80829	 18.32507	 13.83885	 21.45276	 11.02963	 -0.11074	 30.23503	705.39801	 23.80	
  6.800	 83.015	 29.79727	 16.96590	 15.14621	 21.81817	 10.72489	 -0.16755	 30.22626	705.31598	 23.80	
  6.800	 96.985	 29.77945	 15.53100	 16.60567	 21.79240	 10.73595	 -0.12061	 30.20390	705.20502	 23.70	
  6.787	110.754	 29.80307	 14.18264	 18.05598	 21.38911	 11.13429	 -0.17508	 30.21852	705.29401	 23.70	
  6.792	124.591	 29.80701	 12.85947	 19.36804	 20.67220	 11.80936	 -0.13218	 30.21269	705.36200	 23.70	
  6.795	138.383	 29.82012	 11.89449	 20.42114	 19.63364	 12.73845	 -0.13646	 30.22073	705.32501	 23.70	
  6.808	152.311	 29.84072	 11.11237	 21.26041	 18.34794	 13.85254	 -0.13279	 30.25131	705.46600	 23.70	
  6.796	166.229	 29.79978	 10.61934	 21.76872	 16.99301	 15.14796	 -0.13977	 30.21410	705.32501	 23.70	
  8.491	168.704	 29.47458	  8.90402	 23.04497	 16.68072	 14.80305	 -0.35894	 30.25178	705.34802	 23.70	
  8.502	157.493	 29.44205	  9.22218	 22.57957	 18.04739	 13.46534	 -0.36681	 30.20299	705.17297	 23.70	
  8.494	146.194	 29.48523	  9.88180	 21.87383	 19.38292	 12.27173	 -0.36850	 30.24688	705.25403	 23.70	
  8.495	135.039	 29.45997	 10.69395	 20.88429	 20.59927	 11.20788	 -0.35850	 30.21113	705.19800	 23.70	
  8.487	123.723	 29.47792	 11.73878	 19.82922	 21.64669	 10.31206	 -0.38934	 30.22983	705.25403	 23.70	
  8.492	112.575	 29.43093	 12.90431	 18.48663	 22.38813	  9.62578	 -0.42682	 30.19441	705.36401	 23.80	
  8.510	101.220	 29.44536	 14.39053	 17.02521	 22.90192	  9.16625	 -0.43608	 30.22586	705.21802	 23.70	
  8.500	 90.000	 29.41248	 15.84030	 15.53878	 23.02555	  8.97256	 -0.41831	 30.18841	705.28601	 23.70	
  8.510	 78.780	 29.39724	 17.27866	 14.09308	 22.91386	  9.02305	 -0.39368	 30.19779	705.30200	 23.70	
  8.492	 67.425	 29.40788	 18.68344	 12.72055	 22.44792	  9.40044	 -0.37032	 30.21123	705.38702	 23.70	
  8.487	 56.277	 29.42879	 19.91511	 11.48758	 21.76284	  9.98886	 -0.35517	 30.24319	705.39600	 23.70	
  8.495	 44.961	 29.39283	 21.10086	 10.32418	 20.75476	 10.81769	 -0.35528	 30.21268	705.34003	 23.70	
  8.494	 33.806	 29.40752	 22.07311	  9.29182	 19.56304	 11.83985	 -0.38107	 30.24632	705.44397	 23.70	
  8.502	 22.507	 29.38079	 22.83833	  8.55455	 18.28887	 12.98283	 -0.40394	 30.23799	705.34802	 23.70	
  8.491	 11.296	 29.35876	 23.27076	  8.07975	 16.86925	 14.27724	 -0.41380	 30.21245	705.27197	 23.70	
  8.500	  0.000	 29.38718	 23.45920	  7.90903	 15.36382	 15.72431	 -0.41956	 30.24386	705.33398	 23.70	
  8.491	-11.296	 29.34355	 23.28707	  8.01306	 13.84275	 17.18390	 -0.42906	 30.20070	705.28302	 23.70	
  8.502	-22.507	 29.35932	 22.86175	  8.40032	 12.47457	 18.60682	 -0.43265	 30.22713	705.30298	 23.70	
  8.494	-33.806	 29.37070	 22.12112	  9.05122	 11.18639	 19.92678	 -0.45154	 30.24686	705.25201	 23.70	
  8.495	-44.961	 29.33195	 21.14818	  9.87831	 10.01544	 21.06906	 -0.49791	 30.22018	705.33301	 23.70	
  8.487	-56.277	 29.33291	 19.94452	 10.98846	  9.09203	 22.05891	 -0.53939	 30.21076	705.32599	 23.70	
  8.492	-67.425	 29.34585	 18.69925	 12.39482	  8.37056	 22.83596	 -0.56075	 30.21929	705.43701	 23.70	
  8.510	-78.780	 29.36164	 17.33112	 13.75768	  7.90065	 23.36577	 -0.56372	 30.22912	705.48798	 23.70	
  8.500	-90.000	 29.37192	 15.89540	 15.16271	  7.73486	 23.57408	 -0.54887	 30.23425	705.43500	 23.70	
  8.510	-101.220	 29.33845	 14.38579	 16.61679	  7.92165	 23.44573	 -0.51192	 30.19849	705.41998	 23.70	
  8.492	-112.575	 29.39769	 12.96107	 18.15907	  8.38197	 23.06083	 -0.47457	 30.24152	705.26300	 23.70	
  8.487	-123.723	 29.37744	 11.76823	 19.47088	  9.02602	 22.36318	 -0.41971	 30.22627	705.51398	 23.70	
  8.495	-135.039	 29.34848	 10.72342	 20.66200	  9.84770	 21.45671	 -0.38940	 30.20059	705.43500	 23.70	
  8.494	-146.194	 29.34700	  9.87747	 21.66209	 10.92247	 20.29638	 -0.38624	 30.20265	705.39801	 23.70	
  8.502	-157.493	 29.37677	  9.23882	 22.44067	 12.20897	 19.10575	 -0.40025	 30.22226	705.30603	 23.80	
  8.491	-168.704	 29.39151	  8.85318	 22.96709	 13.57133	 17.73538	 -0.39437	 30.22735	705.26099	 23.70	
  8.500	180.000	 29.44153	  8.74140	 23.19074	 15.16685	 16.30407	 -0.36389	 30.24878	705.34399	 23.70	
 10.200	180.000	 28.96617	  6.73113	 24.33815	 14.58237	 15.84797	 -0.62898	 30.24404	705.19800	 23.70	
 10.191	-170.497	 28.92280	  6.83336	 24.13815	 13.10291	 17.33179	 -0.63493	 30.21867	705.24103	 23.70	
 10.210	-161.034	 28.88356	  7.12856	 23.71287	 11.67212	 18.73363	 -0.66028	 30.22122	705.20502	 23.70	
 10.194	-151.526	 28.87128	  7.72079	 22.99999	 10.31432	 20.00804	 -0.64687	 30.22584	705.32501	 23.70	
 10.190	-142.105	 28.86314	  8.50913	 22.10091	  9.04509	 21.29557	 -0.62225	 30.23844	705.44098	 23.70	
 10.215	-132.646	 28.85007	  9.46541	 20.94137	  7.93854	 22.37614	 -0.62484	 30.21439	705.36700	 23.70	
 10.203	-123.092	 28.84767	 10.55611	 19.77728	  7.03890	 23.30646	 -0.66745	 30.21351	705.28302	 23.70	
 10.192	-113.678	 28.85117	 11.77770	 18.36073	  6.46826	 24.02267	 -0.71683	 30.20780	705.36200	 23.70	
 10.208	-104.249	 28.85252	 13.07896	 16.88075	  6.01482	 24.51244	 -0.76595	 30.23018	705.22400	 23.70	
 10.210	-94.801	 28.82504	 14.64558	 15.36783	  5.78325	 24.71661	 -0.81143	 30.20272	705.28601	 23.70	
 10.210	-85.199	 28.83447	 16.16095	 13.90182	  5.84047	 24.66922	 -0.84104	 30.21705	705.41803	 23.70	
 10.208	-75.751	 28.85338	 17.62456	 12.46481	  6.11722	 24.37113	 -0.84970	 30.25120	705.51398	 23.70	
 10.192	-66.322	 28.84869	 18.99531	 10.98096	  6.61044	 23.76546	 -0.83201	 30.23048	705.42102	 23.70	
 10.203	-56.908	 28.85759	 20.27961	  9.68021	  7.22497	 23.00445	 -0.80644	 30.26161	705.50598	 23.70	
 10.215	-47.354	 28.83349	 21.49036	  8.51766	  8.10261	 21.98514	 -0.74566	 30.23797	705.39502	 23.70	
 10.190	-37.895	 28.84816	 22.55235	  7.60499	  9.22820	 20.78840	 -0.69615	 30.24036	705.34198	 23.70	
 10.194	-28.474	 28.80514	 23.38724	  6.93612	 10.48890	 19.54302	 -0.66584	 30.18440	705.22302	 23.70	
 10.210	-18.966	 28.85052	 24.08210	  6.44719	 11.87054	 18.19942	 -0.67623	 30.23944	705.39600	 23.70	
 10.191	 -9.503	 28.84203	 24.44946	  6.16720	 13.36159	 16.71236	 -0.67145	 30.20671	705.47198	 23.70	
 10.200	  0.000	 28.84105	 24.57413	  6.04742	 14.83297	 15.19710	 -0.66757	 30.20230	705.30200	 23.70	
 10.191	  9.503	 28.87830	 24.45106	  6.20732	 16.44321	 13.79620	 -0.67268	 30.22945	705.43500	 23.70	
 10.210	 18.966	 28.83542	 24.04381	  6.47868	 17.87963	 12.40620	 -0.65916	 30.18879	705.38202	 23.70	
 10.194	 28.474	 28.89416	 23.41669	  7.16025	 19.24289	 11.18033	 -0.65096	 30.24397	705.31097	 23.70	
 10.190	 37.895	 28.92420	 22.54705	  7.87589	 20.57033	 10.03135	 -0.62705	 30.26254	705.33099	 23.70	
 10.215	 47.354	 28.85734	 21.44583	  8.87962	 21.70119	  8.83015	 -0.59062	 30.18895	705.44000	 23.70	
 10.203	 56.908	 28.91071	 20.23080	 10.11650	 22.67911	  8.06659	 -0.59241	 30.22374	705.47699	 23.70	
 10.192	 66.322	 28.91089	 18.94673	 11.51276	 23.44206	  7.49428	 -0.59934	 30.21173	705.48199	 23.70	
 10.208	 75.751	 28.93348	 17.59715	 12.89899	 23.97451	  7.13370	 -0.63730	 30.22797	705.47699	 23.70	
 10.210	 85.199	 28.96438	 16.16330	 14.34658	 24.25807	  6.94390	 -0.68231	 30.24362	705.31598	 23.70	
 10.210	 94.801	 28.94581	 14.64076	 15.82534	 24.21412	  7.01194	 -0.71354	 30.21884	705.45697	 23.70	
 10.208	104.249	 28.93211	 13.06237	 17.33772	 23.92490	  7.27190	 -0.72713	 30.18641	705.36499	 23.70	
 10.192	113.678	 28.99083	 11.77495	 18.79941	 23.37850	  7.81956	 -0.70435	 30.22857	705.32501	 23.70	
 10.203	123.092	 28.98837	 10.57603	 20.12050	 22.57999	  8.50997	 -0.66246	 30.22478	705.38098	 23.70	
 10.215	132.646	 28.98465	  9.46316	 21.27151	 21.55863	  9.46438	 -0.62260	 30.21548	705.42102	 23.70	
 10.190	142.105	 28.98908	  8.52323	 22.32845	 20.36830	 10.51396	 -0.60580	 30.21256	705.39801	 23.70	
 10.194	151.526	 29.00605	  7.66714	 23.20406	 19.00186	 11.73296	 -0.61971	 30.23191	705.29102	 23.70	
 10.210	161.034	 28.94210	  7.10269	 23.81430	 17.61756	 12.99064	 -0.62054	 30.18593	705.40900	 23.70	
 10.191	170.497	 28.95430	  6.82450	 24.19672	 16.20024	 14.36799	 -0.60954	 30.20986	705.36499	 23.70	
 11.899	171.783	 28.35872	  4.94210	 25.31220	 15.65936	 13.83208	 -0.86084	 30.20774	705.52197	 23.70	
 11.890	163.610	 28.37181	  5.21091	 24.93263	 17.12874	 12.47814	 -0.84117	 30.18975	705.45801	 23.70	
 11.889	155.445	 28.43076	  5.66096	 24.42921	 18.55747	 11.15573	 -0.84559	 30.22743	705.39502	 23.70	
 11.909	147.299	 28.39870	  6.30203	 23.64326	 19.92063	  9.73200	 -0.83510	 30.19620	705.29901	 23.70	
 11.902	139.148	 28.39915	  6.99789	 22.69256	 21.21631	  8.55745	 -0.83002	 30.20004	705.42700	 23.70	
 11.894	130.867	 28.41104	  7.90198	 21.55408	 22.36833	  7.57712	 -0.85285	 30.20954	705.33099	 23.70	
 11.897	122.732	 28.40278	  9.21516	 20.30610	 23.38108	  6.76676	 -0.93023	 30.20209	705.37299	 23.70	
 11.903	114.597	 28.41706	 10.46500	 19.08726	 24.24529	  6.04761	 -0.98184	 30.23655	705.55798	 23.70	
 11.893	106.346	 28.37724	 11.80949	 17.60326	 24.81474	  5.55911	 -1.00441	 30.19610	705.38098	 23.70	
 11.892	 98.155	 28.37259	 13.22922	 16.06239	 25.19409	  5.22098	 -1.01000	 30.21431	705.34399	 23.70	
 11.900	 90.000	 28.37858	 14.82330	 14.59720	 25.34896	  5.10254	 -0.97655	 30.23531	705.45801	 23.70	
 11.892	 81.845	 28.35531	 16.31789	 13.11802	 25.21198	  5.18976	 -0.91003	 30.21350	705.48297	 23.70	
 11.893	 73.654	 28.32629	 17.75366	 11.63452	 24.85863	  5.39688	 -0.86277	 30.19410	705.34399	 23.70	
 11.903	 65.403	 28.35360	 19.16638	 10.11396	 24.29980	  5.80302	 -0.83012	 30.22536	705.49902	 23.70	
 11.897	 57.268	 28.31547	 20.46030	  8.81432	 23.49243	  6.35544	 -0.80130	 30.20034	705.43201	 23.70	
 11.894	 49.133	 28.32022	 21.69889	  7.60510	 22.49720	  7.15443	 -0.79778	 30.21666	705.28003	 23.70	
 11.902	 40.852	 28.28983	 22.84050	  6.54948	 21.41208	  8.04576	 -0.83695	 30.21902	705.32501	 23.70	
 11.909	 32.701	 28.27908	 23.81392	  5.77077	 20.15039	  9.09458	 -0.89730	 30.22490	705.36499	 23.70	
 11.889	 24.555	 28.25828	 24.58557	  5.22332	 18.79041	 10.34545	 -0.92172	 30.21531	705.25403	 23.70	
 11.890	 16.390	 28.27854	 25.17595	  4.79741	 17.41522	 11.81826	 -0.90643	 30.24324	705.31598	 23.80	
 11.899	  8.217	 28.25909	 25.59316	  4.46244	 15.91448	 13.20070	 -0.89498	 30.23329	705.41602	 23.80	
 11.900	  0.000	 28.25529	 25.73709	  4.31807	 14.34889	 14.62186	 -0.89716	 30.24699	705.40900	 23.70	
 11.899	 -8.217	 28.23544	 25.60316	  4.42023	 12.81211	 16.11858	 -0.88922	 30.23132	705.41602	 23.70	
 11.890	-16.390	 28.20743	 25.17933	  4.71223	 11.30393	 17.58475	 -0.88239	 30.19199	705.43201	 23.80	
 11.889	-24.555	 28.20508	 24.62940	  5.06497	  9.85527	 19.01652	 -0.87641	 30.20461	705.49597	 23.80	
 11.909	-32.701	 28.19238	 23.84005	  5.60273	  8.45807	 20.28529	 -0.87739	 30.20995	705.19299	 23.80	
 11.902	-40.852	 28.23491	 22.88928	  6.38023	  7.45221	 21.56486	 -0.89882	 30.23707	705.37299	 23.80	
 11.894	-49.133	 28.20481	 21.74351	  7.21459	  6.45001	 22.73950	 -0.95698	 30.21158	705.43298	 23.80	
 11.897	-57.268	 28.17098	 20.45988	  8.30216	  5.63580	 23.71048	 -1.02335	 30.17890	705.52002	 23.80	
 11.903	-65.403	 28.20683	 19.17172	  9.58863	  4.97869	 24.55723	 -1.06256	 30.21440	705.33899	 23.80	
 11.893	-73.654	 28.23223	 17.83011	 10.96075	  4.52701	 25.19045	 -1.05304	 30.22717	705.48499	 23.80	
 11.892	-81.845	 28.25339	 16.37402	 12.41399	  4.18404	 25.67281	 -1.05792	 30.24520	705.45801	 23.80	
 11.900	-90.000	 28.21131	 14.88293	 13.95906	  4.04097	 25.77271	 -1.04010	 30.18315	705.33899	 23.80	
 11.892	-98.155	 28.26620	 13.27808	 15.51805	  4.11881	 25.75083	 -1.03243	 30.22630	705.58197	 23.80	
 11.893	-106.346	 28.26650	 11.86995	 16.99358	  4.40852	 25.44888	 -1.00142	 30.23140	705.56097	 23.80	
 11.903	-114.597	 28.24285	 10.52369	 18.49520	  4.85828	 24.84716	 -0.94785	 30.19424	705.69098	 23.80	
 11.897	-122.732	 28.23674	  9.29376	 19.90729	  5.41002	 24.13069	 -0.89566	 30.19824	705.53601	 23.80	
 11.894	-130.867	 28.24065	  8.03661	 21.11583	  6.19132	 23.22009	 -0.85585	 30.20125	705.43298	 23.80	
 11.902	-139.148	 28.24355	  7.09484	 22.34050	  7.11257	 22.10093	 -0.84834	 30.20099	705.31598	 23.80	
 11.909	-147.299	 28.23433	  6.30926	 23.34143	  8.34216	 20.89089	 -0.89183	 30.19193	705.36499	 23.80	
 11.889	-155.445	 28.25751	  5.70057	 24.16867	  9.67162	 19.59515	 -0.93478	 30.19739	705.57501	 23.80	
 11.890	-163.610	 28.29194	  5.29021	 24.79349	 11.08280	 18.26373	 -0.93512	 30.21518	705.45099	 23.80	
 11.899	-171.783	 28.32660	  4.98697	 25.21987	 12.51032	 16.84384	 -0.91196	 30.21490	705.66199	 23.80	
 11.900	180.000	 28.32840	  4.87979	 25.41660	 13.98855	 15.32756	 -0.89476	 30.19483	705.51300	 23.80	
 13.600	180.000	 27.67021	  3.14712	 26.40798	 13.41123	 14.71271	 -1.12837	 30.22016	705.54401	 23.80	
 13.608	-172.853	 27.64571	  3.16209	 26.30284	 11.89394	 16.23967	 -1.15233	 30.24096	705.54700	 23.80	
 13.611	-165.583	 27.59668	  3.43374	 25.87961	 10.37432	 17.73014	 -1.18527	 30.22038	705.42700	 23.80	
 13.601	-158.353	 27.56709	  3.85417	 25.26969	  8.94063	 19.12322	 -1.18650	 30.20756	705.39502	 23.80	
 13.609	-151.210	 27.53309	  4.35336	 24.49838	  7.57443	 20.34837	 -1.16500	 30.18305	705.51398	 23.80	
 13.611	-143.999	 27.52429	  4.99140	 23.56837	  6.45709	 21.68358	 -1.11403	 30.19139	705.53900	 23.80	
 13.601	-136.825	 27.52596	  5.81141	 22.47444	  5.44581	 22.87282	 -1.06755	 30.18775	705.52002	 23.80	
 13.596	-129.640	 27.51760	  6.76047	 21.27230	  4.57054	 23.97621	 -1.04436	 30.18949	705.41998	 23.80	
 13.611	-122.431	 27.51771	  7.77828	 19.96972	  3.87740	 24.85785	 -1.08223	 30.18675	705.46899	 23.80	
 13.604	-115.211	 27.56015	  8.97088	 18.56958	  3.28769	 25.65134	 -1.10950	 30.21670	705.45099	 23.80	
 13.595	-108.042	 27.54113	 10.44789	 17.09464	  2.75496	 26.23404	 -1.17108	 30.22411	705.45203	 23.80	
 13.607	-100.793	 27.54795	 11.90197	 15.61511	  2.42000	 26.59219	 -1.19266	 30.23806	705.51099	 23.80	
 13.601	-93.617	 27.48648	 13.31512	 13.94870	  2.23792	 26.68969	 -1.18027	 30.17180	705.51599	 23.80	
 13.601	-86.383	 27.48665	 14.93715	 12.41191	  2.25820	 26.68475	 -1.17107	 30.20508	705.49902	 23.80	
 13.607	-79.207	 27.48771	 16.46178	 10.93778	  2.52000	 26.43612	 -1.15569	 30.20383	705.37000	 23.80	
 13.595	-71.958	 27.52967	 17.95875	  9.45281	  2.92522	 25.98345	 -1.15519	 30.25525	705.49597	 23.80	
 13.604	-64.789	 27.47812	 19.23549	  8.14208	  3.40378	 25.28091	 -1.15410	 30.20455	705.50500	 23.80	
 13.611	-57.569	 27.43678	 20.59805	  6.97481	  3.93062	 24.44243	 -1.13690	 30.18044	705.46100	 23.80	
 13.596	-50.360	 27.47829	 21.89092	  6.01628	  4.74076	 23.46609	 -1.10241	 30.21473	705.47699	 23.80	
 13.601	-43.175	 27.44994	 23.06542	  5.12738	  5.64792	 22.31638	 -1.04901	 30.18950	705.31097	 23.80	
 13.611	-36.001	 27.46298	 24.12267	  4.36910	  6.72362	 21.03416	 -1.01947	 30.20450	705.54700	 23.80	
 13.609	-28.790	 27.47193	 24.98459	  3.74920	  7.83146	 19.75905	 -1.02615	 30.20732	705.45203	 23.80	
 13.601	-21.647	 27.47298	 25.68812	  3.27542	  9.08530	 18.39883	 -1.04433	 30.19308	705.50000	 23.80	
 13.611	-14.417	 27.44284	 26.22709	  2.86556	 10.64087	 16.90601	 -1.05314	 30.18511	705.52698	 23.80	
 13.608	 -7.147	 27.45151	 26.48792	  2.68652	 12.16002	 15.38871	 -1.06929	 30.15427	705.52802	 23.80	
 13.600	  0.000	 27.51059	 26.64825	  2.57509	 13.70461	 13.95800	 -1.06341	 30.22595	705.59900	 23.80	
 13.608	  7.147	 27.48232	 26.51191	  2.71654	 15.16957	 12.48189	 -1.07500	 30.19060	705.51898	 23.80	
 13.611	 14.417	 27.50031	 26.20572	  3.00457	 16.76063	 10.91757	 -1.10118	 30.19372	705.53900	 23.80	
 13.601	 21.647	 27.54224	 25.67983	  3.44284	 18.26057	  9.58308	 -1.13127	 30.22667	705.46503	 23.80	
 13.609	 28.790	 27.54541	 24.98651	  3.93949	 19.56393	  8.34832	 -1.11359	 30.22303	705.65399	 23.80	
 13.611	 36.001	 27.56095	 24.09526	  4.65739	 20.94748	  7.22866	 -1.08041	 30.22197	705.57300	 23.80	
 13.601	 43.175	 27.59118	 23.06470	  5.43788	 22.16188	  6.24136	 -1.03698	 30.23084	705.52197	 23.80	
 13.596	 50.360	 27.60110	 21.88186	  6.37282	 23.29831	  5.46995	 -0.99618	 30.21781	705.62299	 23.80	
 13.611	 57.569	 27.59155	 20.61408	  7.45684	 24.30259	  4.74690	 -0.99490	 30.21945	705.57501	 23.80	
 13.604	 64.789	 27.60973	 19.28395	  8.72278	 25.09684	  4.19130	 -1.04190	 30.21692	705.74200	 23.80	
 13.595	 71.958	 27.62842	 17.90117	 10.08533	 25.71462	  3.80357	 -1.07500	 30.21982	705.73401	 23.80	
 13.607	 79.207	 27.62053	 16.43950	 11.58493	 26.13583	  3.48179	 -1.12447	 30.21404	705.52698	 23.80	
 13.601	 86.383	 27.62673	 14.95204	 13.17416	 26.29566	  3.37330	 -1.18362	 30.18816	705.63800	 23.80	
 13.601	 93.617	 27.65466	 13.28465	 14.68896	 26.28018	  3.42687	 -1.23604	 30.19427	705.54401	 23.80	
 13.607	100.793	 27.69905	 11.82968	 16.22468	 26.13071	  3.61000	 -1.25617	 30.24251	705.67902	 23.80	
 13.595	108.042	 27.69797	 10.35727	 17.77298	 25.62928	  4.06234	 -1.24333	 30.20525	705.44702	 23.80	
 13.604	115.211	 27.73469	  8.98763	 19.16207	 25.00282	  4.55973	 -1.22605	 30.21376	705.54700	 23.80	
 13.611	122.431	 27.73306	  7.79585	 20.45775	 24.15043	  5.15242	 -1.17255	 30.20178	705.76202	 23.80	
 13.596	129.640	 27.75990	  6.75428	 21.73232	 23.14395	  5.84763	 -1.09451	 30.21091	705.55103	 23.80	
 13.601	136.825	 27.76060	  5.85186	 22.91424	 21.98862	  6.78201	 -1.04871	 30.19904	705.58197	 23.80	
 13.611	143.999	 27.76852	  5.07658	 23.96951	 20.76749	  7.86269	 -1.03561	 30.22312	705.56702	 23.80	
 13.609	151.210	 27.72376	  4.37462	 24.81540	 19.35533	  9.01420	 -1.06697	 30.17836	705.50299	 23.80	
 13.601	158.353	 27.74450	  3.76707	 25.56464	 18.00233	 10.33589	 -1.07627	 30.22572	705.58099	 23.80	
 13.611	165.583	 27.69740	  3.36747	 26.02228	 16.51476	 11.85244	 -1.08572	 30.19048	705.57501	 23.80	
 13.608	172.853	 27.70645	  3.17337	 26.35315	 14.92529	 13.31841	 -1.10084	 30.23347	705.54199	 23.80	
 15.298	173.587	 26.86136	  1.44588	 27.12876	 14.19632	 12.64755	 -1.28722	 30.17111	705.56702	 23.80	
 15.291	167.167	 26.91809	  1.61172	 26.91881	 15.70741	 11.06938	 -1.28589	 30.19547	705.64099	 23.80	
 15.307	160.676	 26.96263	  1.97043	 26.51471	 17.28154	  9.64768	 -1.28178	 30.20221	705.47498	 23.80	
 15.300	154.261	 26.97179	  2.56661	 25.87235	 18.72291	  8.32011	 -1.26446	 30.20045	705.67999	 23.80	
 15.288	147.854	 26.98133	  3.09295	 25.09318	 20.12130	  7.11338	 -1.23900	 30.20043	705.57800	 23.80	
 15.293	141.428	 27.01340	  3.78683	 24.15912	 21.45528	  6.06038	 -1.22009	 30.21032	705.54700	 23.80	
 15.299	134.985	 26.98486	  4.61281	 23.02758	 22.67779	  5.14303	 -1.22765	 30.18696	705.53900	 23.80	
 15.305	128.583	 26.98841	  5.52597	 21.82470	 23.83714	  4.32622	 -1.27580	 30.22150	705.52698	 23.80	
 15.309	122.142	 26.96328	  6.51519	 20.58606	 24.78695	  3.69920	 -1.33386	 30.20123	705.55402	 23.80	
 15.304	115.711	 26.95111	  7.68293	 19.22887	 25.60708	  3.08169	 -1.34512	 30.18783	705.54999	 23.80	
 15.297	109.291	 26.95931	  8.93437	 17.82135	 26.33081	  2.53877	 -1.37197	 30.22626	705.46100	 23.80	
 15.293	102.897	 26.93383	 10.31456	 16.28784	 26.78880	  2.14706	 -1.37626	 30.21626	705.59900	 23.80	
 15.293	 96.458	 26.89818	 11.74248	 14.78314	 27.07218	  1.83482	 -1.35681	 30.20432	705.49701	 23.80	
 15.300	 90.000	 26.86349	 13.29381	 13.24802	 27.18358	  1.69193	 -1.35066	 30.20217	705.36700	 23.80	
 15.293	 83.542	 26.83684	 14.97619	 11.54776	 27.08666	  1.75137	 -1.30849	 30.18190	705.46802	 23.80	
 15.293	 77.103	 26.83715	 16.48550	 10.07189	 26.83129	  1.94348	 -1.26325	 30.19718	705.47198	 23.80	
 15.297	 70.709	 26.84367	 17.95272	  8.63002	 26.37663	  2.31187	 -1.23210	 30.20391	705.53400	 23.80	
 15.304	 64.289	 26.85666	 19.32828	  7.35349	 25.77484	  2.68380	 -1.19747	 30.23933	705.61499	 23.80	
 15.309	 57.858	 26.81894	 20.64449	  6.19393	 24.96265	  3.19137	 -1.16201	 30.22225	705.43500	 23.80	
 15.305	 51.417	 26.79323	 21.93060	  5.20082	 23.97009	  3.84787	 -1.14555	 30.20010	705.56500	 23.80	
 15.299	 45.015	 26.82018	 23.17358	  4.31191	 22.87692	  4.63706	 -1.16201	 30.24222	705.35101	 23.80	
 15.293	 38.572	 26.80204	 24.27071	  3.50918	 21.62661	  5.57898	 -1.20951	 30.22848	705.49597	 23.80	
 15.288	 32.146	 26.71173	 25.15256	  2.72104	 20.25838	  6.44256	 -1.23909	 30.15701	705.62299	 23.80	
 15.300	 25.739	 26.74902	 25.98706	  2.10652	 18.99068	  7.58354	 -1.23649	 30.23658	705.52802	 23.80	
 15.307	 19.324	 26.67691	 26.59395	  1.59371	 17.54030	  8.81962	 -1.18785	 30.17539	705.57599	 23.80	
 15.291	 12.833	 26.68981	 27.04782	  1.23479	 16.01625	 10.20735	 -1.15872	 30.20369	705.58197	 23.80	
 15.298	  6.413	 26.67545	 27.33633	  0.97206	 14.49826	 11.56446	 -1.12363	 30.21139	705.56201	 23.80	
 15.300	  0.000	 26.67401	 27.42732	  0.83867	 12.97080	 13.20140	 -1.12115	 30.21408	705.46002	 23.90	
 15.298	 -6.413	 26.65208	 27.33728	  0.90473	 11.42125	 14.66953	 -1.12717	 30.20635	705.45203	 23.90	
 15.291	-12.833	 26.65829	 27.07933	  1.09427	  9.90181	 16.12086	 -1.13101	 30.20574	705.50299	 23.90	
 15.307	-19.324	 26.62175	 26.61331	  1.38086	  8.40837	 17.64041	 -1.10524	 30.17742	705.43701	 23.90	
 15.300	-25.739	 26.64415	 26.01826	  1.83605	  7.18516	 19.06776	 -1.07770	 30.21125	705.54498	 23.90	
 15.288	-32.146	 26.64277	 25.23260	  2.39087	  6.03612	 20.32153	 -1.05183	 30.20653	705.46002	 23.90	
 15.293	-38.572	 26.62285	 24.25074	  3.08659	  4.94148	 21.68429	 -1.06041	 30.18288	705.43701	 23.90	
 15.299	-45.015	 26.61841	 23.16267	  3.87747	  3.95834	 22.93819	 -1.07285	 30.19166	705.45099	 23.90	
 15.305	-51.417	 26.65395	 21.93852	  4.81735	  3.12528	 24.07710	 -1.09809	 30.21058	705.52698	 23.90	
 15.309	-57.858	 26.64416	 20.67633	  5.78277	  2.34472	 25.04432	 -1.10942	 30.20880	705.49103	 23.90	
 15.304	-64.289	 26.65425	 19.29728	  6.83695	  1.80965	 25.85584	 -1.12511	 30.20401	705.55298	 23.90	
 15.297	-70.709	 26.67488	 17.97189	  8.02739	  1.38983	 26.55191	 -1.09991	 30.20802	705.41602	 23.90	
 15.293	-77.103	 26.67374	 16.52929	  9.39932	  0.97865	 27.02353	 -1.11783	 30.20468	705.44397	 23.90	
 15.293	-83.542	 26.68196	 15.01883	 10.87476	  0.66483	 27.33381	 -1.12746	 30.20582	705.48499	 23.90	
 15.300	-90.000	 26.67232	 13.36601	 12.36279	  0.51087	 27.47678	 -1.15733	 30.19816	705.58600	 23.90	
 15.293	-96.458	 26.71058	 11.86475	 13.91886	  0.53988	 27.45497	 -1.20567	 30.22146	705.49597	 23.90	
 15.293	-102.897	 26.70117	 10.34199	 15.56378	  0.84449	 27.21495	 -1.24390	 30.19533	705.43298	 23.90	
 15.297	-109.291	 26.72470	  8.94679	 16.99155	  1.25325	 26.83509	 -1.26676	 30.19614	705.34998	 23.90	
 15.304	-115.711	 26.73645	  7.67687	 18.53803	  1.70070	 26.29593	 -1.23904	 30.20136	705.49902	 23.90	
 15.309	-122.142	 26.69395	  6.52911	 19.92119	  2.32248	 25.50851	 -1.22492	 30.17725	705.38501	 23.90	
 15.305	-128.583	 26.72355	  5.53769	 21.24876	  2.97598	 24.66150	 -1.21446	 30.20775	705.57300	 23.90	
 15.299	-134.985	 26.70243	  4.55931	 22.51763	  3.72104	 23.63482	 -1.21502	 30.19340	705.51099	 23.90	
 15.293	-141.428	 26.71588	  3.74572	 23.68956	  4.71853	 22.41420	 -1.27587	 30.20067	705.53699	 23.90	
 15.288	-147.854	 26.76153	  3.05997	 24.71558	  5.82225	 21.13653	 -1.33417	 30.22296	705.59198	 23.90	
 15.300	-154.261	 26.73863	  2.50791	 25.53287	  6.95880	 19.75331	 -1.38511	 30.17584	705.51300	 23.90	
 15.307	-160.676	 26.76291	  2.04154	 26.22424	  8.13426	 18.52870	 -1.38841	 30.20338	705.37299	 23.90	
 15.291	-167.167	 26.79249	  1.72419	 26.74680	  9.65967	 17.06499	 -1.37988	 30.18337	705.49103	 23.90	
 15.298	-173.587	 26.80816	  1.47156	 27.06328	 11.16405	 15.52918	 -1.35075	 30.17737	705.47998	 23.90	
 15.300	180.000	 26.83370	  1.38847	 27.20306	 12.67948	 14.11028	 -1.31932	 30.18325	705.52698	 23.90	
 17.000	180.000	 25.95917	 -0.29045	 27.94759	 11.87093	 13.37158	 -1.39686	 30.19023	705.40900	 23.90	
 16.990	-174.179	 25.92986	 -0.22602	 27.83721	 10.29793	 14.84232	 -1.41567	 30.20835	705.44702	 23.90	
 17.009	-168.383	 25.86000	 -0.00025	 27.48478	  8.73595	 16.27492	 -1.43437	 30.14429	705.48798	 23.90	
 17.000	-162.596	 25.88433	  0.23190	 27.11086	  7.46036	 17.81663	 -1.45863	 30.21889	705.48901	 23.90	
 16.990	-156.759	 25.86229	  0.66117	 26.46310	  6.31329	 19.19114	 -1.46693	 30.19533	705.54401	 23.90	
 16.995	-150.919	 25.84735	  1.19995	 25.65524	  5.09056	 20.49345	 -1.44842	 30.19857	705.44000	 23.90	
 16.988	-145.161	 25.80377	  1.83347	 24.72081	  3.97301	 21.79093	 -1.42121	 30.17092	705.44000	 23.90	
 17.014	-139.343	 25.79676	  2.48965	 23.66094	  2.98155	 23.04430	 -1.36908	 30.18462	705.61499	 23.90	
 17.007	-133.546	 25.81427	  3.33191	 22.48218	  2.07134	 24.21819	 -1.33867	 30.21311	705.60303	 23.90	
 17.001	-127.699	 25.80742	  4.28467	 21.13464	  1.35094	 25.21281	 -1.32670	 30.18753	705.59198	 23.90	
 17.006	-121.937	 25.80593	  5.29518	 19.81881	  0.74440	 26.08735	 -1.31212	 30.19510	705.59198	 23.90	
 17.002	-116.134	 25.80788	  6.40350	 18.39675	  0.14790	 26.82810	 -1.30914	 30.19944	705.46100	 23.90	
 17.001	-110.310	 25.78308	  7.54556	 16.83859	 -0.34930	 27.40868	 -1.27153	 30.19263	705.63397	 23.90	
 16.988	-104.517	 25.78706	  8.85440	 15.40027	 -0.69553	 27.81439	 -1.22398	 30.18862	705.51599	 23.90	
 17.008	-98.662	 25.77180	 10.23255	 13.80643	 -0.96988	 28.09257	 -1.13330	 30.18456	705.61499	 23.90	
 16.996	-92.909	 25.75973	 11.75267	 12.29313	 -1.12622	 28.19158	 -1.04977	 30.18429	705.60303	 23.90	
 16.996	-87.091	 25.75385	 13.27357	 10.70512	 -1.12644	 28.17635	 -0.99192	 30.21128	705.64600	 23.90	
 17.012	-81.253	 25.75151	 14.90816	  9.29692	 -0.91562	 27.97509	 -0.93540	 30.21436	705.63397	 23.90	
 16.988	-75.483	 25.73400	 16.43684	  7.98075	 -0.62207	 27.59504	 -0.94313	 30.20506	705.59003	 23.90	
 17.001	-69.690	 25.69460	 17.87060	  6.73241	 -0.30445	 27.05085	 -0.96109	 30.17866	705.52802	 23.90	
 17.002	-63.866	 25.70376	 19.19680	  5.59821	  0.11815	 26.42641	 -0.96998	 30.20561	705.56799	 23.90	
 17.006	-58.063	 25.69267	 20.55444	  4.51719	  0.70868	 25.59631	 -0.96592	 30.18741	705.73401	 23.90	
 17.001	-52.301	 25.69110	 21.85753	  3.52333	  1.43788	 24.61868	 -0.98409	 30.18683	705.55402	 23.90	
 17.007	-46.454	 25.71782	 23.12864	  2.62093	  2.24142	 23.53238	 -0.98537	 30.20674	705.57599	 23.90	
 17.014	-40.657	 25.70597	 24.28158	  1.79493	  3.18856	 22.28644	 -0.99264	 30.19783	705.76703	 23.90	
 16.988	-34.839	 25.69709	 25.25589	  1.10453	  4.21086	 20.95089	 -1.00646	 30.17119	705.62299	 23.90	
 16.995	-29.081	 25.73523	 26.18912	  0.43604	  5.32130	 19.67389	 -1.06108	 30.22534	705.69098	 23.90	
 16.990	-23.241	 25.70439	 26.86608	 -0.08269	  6.51583	 18.26460	 -1.07003	 30.19559	705.79303	 23.90	
 17.000	-17.404	 25.67747	 27.40673	 -0.50236	  7.79801	 16.76082	 -1.09197	 30.16981	705.64600	 23.90	
 17.009	-11.617	 25.70871	 27.83541	 -0.74741	  9.10347	 15.21458	 -1.08178	 30.19213	705.70001	 23.90	
 16.990	 -5.821	 25.73556	 28.04976	 -0.80457	 10.60293	 13.83331	 -1.07894	 30.18781	705.76703	 23.90	
 17.000	  0.000	 25.73905	 28.13096	 -0.87404	 12.13997	 12.26195	 -1.05633	 30.19010	705.76703	 23.90	
 16.990	  5.821	 25.71344	 28.02682	 -0.78316	 13.71936	 10.76629	 -1.06660	 30.17676	705.64899	 23.90	
 17.009	 11.617	 25.75431	 27.82797	 -0.57128	 15.20637	  9.38527	 -1.08556	 30.20667	705.71899	 23.90	
 17.000	 17.404	 25.75555	 27.39921	 -0.25024	 16.73893	  8.05874	 -1.14257	 30.18529	705.67999	 23.90	
 16.990	 23.241	 25.80588	 26.84088	  0.21733	 18.25140	  6.79170	 -1.20011	 30.20066	705.73102	 23.90	
 16.995	 29.081	 25.81398	 26.15351	  0.74848	 19.61297	  5.73761	 -1.24410	 30.21086	705.63702	 23.90	
 16.988	 34.839	 25.87621	 25.29262	  1.44334	 20.95991	  4.74858	 -1.24589	 30.22734	705.67200	 23.90	
 17.014	 40.657	 25.84465	 24.27418	  2.18117	 22.20864	  3.79430	 -1.24250	 30.19961	705.72498	 23.90	
 17.007	 46.454	 25.85552	 23.10859	  3.04537	 23.44134	  2.94079	 -1.22089	 30.18741	705.74200	 23.90	
 17.001	 52.301	 25.90719	 21.88510	  4.01281	 24.57117	  2.19874	 -1.24769	 30.21865	705.71600	 23.90	
 17.006	 58.063	 25.90073	 20.54742	  4.99705	 25.51284	  1.57018	 -1.28142	 30.19661	705.83502	 23.90	
 17.002	 63.866	 25.86722	 19.16949	  6.04961	 26.28077	  1.07588	 -1.31959	 30.14754	705.79498	 23.90	
 17.001	 69.690	 25.93084	 17.86956	  7.26670	 26.99717	  0.66649	 -1.36228	 30.21888	705.69897	 23.90	
 16.988	 75.483	 25.94237	 16.39169	  8.62465	 27.48244	  0.33850	 -1.37877	 30.22138	705.65997	 23.90	
 17.012	 81.253	 25.90518	 14.76625	  9.98090	 27.79819	  0.09139	 -1.34980	 30.19447	705.82703	 23.90	
 16.996	 87.091	 25.94234	 13.24615	 11.53231	 27.95589	  0.01534	 -1.32909	 30.20778	705.68597	 23.90	
 16.996	 92.909	 25.97409	 11.69951	 13.03760	 27.93578	  0.10971	 -1.32380	 30.19645	705.78699	 23.90	
 17.008	 98.662	 25.97819	 10.26861	 14.64653	 27.75755	  0.26203	 -1.32304	 30.18332	705.67902	 23.90	
 16.988	104.517	 26.00364	  8.87766	 16.17226	 27.39150	  0.49676	 -1.32851	 30.18360	705.69397	 23.90	
 17.001	110.310	 25.99848	  7.60726	 17.69140	 26.85702	  0.87665	 -1.35501	 30.15919	705.70300	 24.00	
 17.002	116.134	 26.07272	  6.41686	 19.18554	 26.20090	  1.46084	 -1.38841	 30.18992	705.68597	 24.00	
 17.006	121.937	 26.10053	  5.25172	 20.56012	 25.35154	  2.17135	 -1.40289	 30.19048	705.83502	 23.90	
 17.001	127.699	 26.11831	  4.26701	 21.79360	 24.39908	  2.82959	 -1.38988	 30.18779	705.74799	 24.00	
 17.007	133.546	 26.11366	  3.36505	 23.02580	 23.27790	  3.53056	 -1.37056	 30.17705	705.68799	 24.00	
 17.014	139.343	 26.14975	  2.53558	 24.20507	 22.05964	  4.41807	 -1.35975	 30.21471	705.63397	 23.90	
 16.988	145.161	 26.15751	  1.82950	 25.19664	 20.76130	  5.40684	 -1.37649	 30.19835	705.78302	 23.90	
 16.995	150.919	 26.17245	  1.32141	 26.05249	 19.32108	  6.46581	 -1.41682	 30.20977	705.65997	 24.00	
 16.990	156.759	 26.13848	  0.78629	 26.77192	 17.98873	  7.59671	 -1.45836	 30.21326	705.82397	 24.00	
 17.000	162.596	 26.07718	  0.32152	 27.27678	 16.48464	  8.87873	 -1.44925	 30.18242	705.82703	 24.00	
 17.009	168.383	 26.06767	 -0.05153	 27.71863	 14.97184	 10.28656	 -1.41997	 30.23866	705.66803	 23.90	
 16.990	174.179	 26.02449	 -0.20412	 27.90033	 13.44359	 11.73322	 -1.41426	 30.20813	705.74402	 23.90	
 18.709	174.675	 24.97661	 -1.69368	 28.54065	 12.48639	 10.84174	 -1.37131	 30.17321	705.75000	 24.00	
 18.703	169.441	 25.03138	 -1.66363	 28.38148	 13.96504	  9.48557	 -1.40061	 30.19977	705.68298	 24.00	
 18.691	164.085	 25.07431	 -1.41713	 28.05116	 15.44449	  8.14808	 -1.45147	 30.20465	705.63202	 24.00	
 18.706	158.818	 25.09429	 -1.00696	 27.57212	 16.97763	  6.86245	 -1.47037	 30.20069	705.67200	 24.00	
 18.695	153.537	 25.14219	 -0.50883	 26.94087	 18.45242	  5.71771	 -1.45216	 30.20213	705.68597	 23.90	
 18.704	148.255	 25.16425	  0.03541	 26.16537	 19.79538	  4.64644	 -1.39925	 30.21138	705.88000	 24.00	
 18.698	142.952	 25.14716	  0.67548	 25.21123	 21.23932	  3.63250	 -1.33012	 30.16341	705.67999	 23.90	
 18.699	137.625	 25.14643	  1.38272	 24.17237	 22.50958	  2.77606	 -1.32640	 30.17949	705.75500	 23.90	
 18.705	132.343	 25.17082	  2.04904	 22.96939	 23.74376	  1.95284	 -1.33666	 30.16206	705.62598	 23.90	
 18.713	127.067	 25.15934	  2.93340	 21.73632	 24.85743	  1.21876	 -1.32035	 30.18427	705.78601	 23.90	
 18.700	121.794	 25.11121	  3.93538	 20.44812	 25.80587	  0.54034	 -1.29934	 30.15615	705.70599	 24.00	
 18.698	116.504	 25.08455	  5.07979	 19.07170	 26.67527	 -0.24288	 -1.24598	 30.16672	705.75000	 24.00	
 18.707	111.165	 25.08950	  6.26144	 17.63834	 27.38333	 -0.65361	 -1.18232	 30.20546	705.72803	 24.00	
 18.690	105.863	 25.04627	  7.51500	 16.07071	 27.89328	 -1.05180	 -1.13998	 30.16711	705.70801	 24.00	
 18.696	100.583	 25.05522	  8.78581	 14.61790	 28.26523	 -1.21923	 -1.12866	 30.16789	705.67999	 24.00	
 18.700	 95.309	 25.03880	 10.20301	 12.98034	 28.50949	 -1.39752	 -1.14006	 30.17270	705.75500	 24.00	
 18.700	 90.000	 25.02577	 11.61316	 11.48368	 28.61588	 -1.46955	 -1.16338	 30.19477	705.62299	 24.00	
 18.700	 84.691	 25.01813	 13.10081	 10.05600	 28.56001	 -1.45957	 -1.22906	 30.19980	705.64801	 24.00	
 18.696	 79.417	 25.00645	 14.67417	  8.62602	 28.36062	 -1.35815	 -1.31120	 30.20783	705.62598	 24.00	
 18.690	 74.137	 24.98366	 16.18489	  7.29487	 27.99590	 -1.25716	 -1.33465	 30.20131	705.62402	 24.00	
 18.707	 68.835	 24.92886	 17.68263	  5.97984	 27.44435	 -0.85305	 -1.32445	 30.15873	705.70300	 24.00	
 18.698	 63.496	 24.90932	 19.03190	  4.84307	 26.78258	 -0.49859	 -1.32865	 30.15467	705.72498	 24.00	
 18.700	 58.206	 24.93398	 20.41936	  3.75048	 25.99009	  0.01001	 -1.27998	 30.19726	705.76501	 24.00	
 18.713	 52.933	 24.88927	 21.75198	  2.70027	 25.01753	  0.55876	 -1.22450	 30.16494	705.71600	 24.00	
 18.705	 47.657	 24.90353	 23.00056	  1.78718	 23.95375	  1.30939	 -1.19017	 30.18232	705.67200	 24.00	
 18.699	 42.375	 24.87401	 24.14920	  0.93185	 22.78525	  2.04181	 -1.15399	 30.18433	705.64398	 24.00	
 18.698	 37.048	 24.81154	 25.18881	  0.11983	 21.47966	  2.91386	 -1.11820	 30.13912	705.64001	 24.00	
 18.704	 31.745	 24.82849	 26.17332	 -0.56252	 20.07881	  3.96361	 -1.09211	 30.17379	705.64801	 24.00	
 18.695	 26.463	 24.81897	 26.96495	 -1.10877	 18.79063	  5.00634	 -1.04336	 30.17477	705.56201	 24.00	
 18.706	 21.182	 24.77685	 27.61024	 -1.64285	 17.37477	  6.09093	 -0.98394	 30.18021	705.64899	 24.00	
 18.691	 15.915	 24.78318	 28.12228	 -1.95852	 15.82006	  7.26313	 -0.96705	 30.19631	705.78601	 24.00	
 18.703	 10.559	 24.75822	 28.47551	 -2.15033	 14.35590	  8.55648	 -0.93426	 30.17950	705.78900	 24.00	
 18.709	  5.325	 24.76132	 28.68561	 -2.24571	 12.91145	  9.94644	 -0.93120	 30.18252	705.76398	 24.00	
 18.700	  0.000	 24.72232	 28.75560	 -2.44360	 11.32026	 11.34575	 -0.91163	 30.17267	705.78302	 24.00	
 18.709	 -5.325	 24.69486	 28.69287	 -2.57009	  9.72669	 12.69644	 -0.93230	 30.17667	705.70001	 24.00	
 18.703	-10.559	 24.67242	 28.50598	 -2.50699	  8.41249	 14.23738	 -0.92799	 30.17628	705.70203	 24.00	
 18.691	-15.915	 24.70009	 28.15260	 -2.25620	  7.12683	 15.74651	 -0.93134	 30.19718	705.75000	 24.00	
 18.706	-21.182	 24.65860	 27.62799	 -1.98214	  5.80433	 17.28593	 -0.91557	 30.16594	705.64398	 24.00	
 18.695	-26.463	 24.66849	 26.97386	 -1.50799	  4.60507	 18.73609	 -0.91089	 30.14301	705.64398	 24.00	
 18.704	-31.745	 24.66823	 26.19724	 -0.92445	  3.48658	 20.08414	 -0.87488	 30.15401	705.74200	 24.00	
 18.698	-37.048	 24.69007	 25.28055	 -0.23887	  2.45988	 21.37453	 -0.85598	 30.16827	705.73401	 24.00	
 18.699	-42.375	 24.69110	 24.20499	  0.49482	  1.55501	 22.65112	 -0.82918	 30.14273	705.75000	 24.00	
 18.705	-47.657	 24.70617	 23.06661	  1.27136	  0.73076	 23.87621	 -0.81710	 30.17457	705.78601	 24.00	
 18.713	-52.933	 24.68562	 21.81592	  2.14288	 -0.04694	 24.92982	 -0.79113	 30.17211	705.73602	 24.00	
 18.700	-58.206	 24.68073	 20.44807	  3.12605	 -0.72110	 25.86750	 -0.77602	 30.13141	705.72498	 24.00	
 18.698	-63.496	 24.70698	 19.11880	  4.18362	 -1.39439	 26.74438	 -0.76531	 30.17013	705.83099	 24.00	
 18.707	-68.835	 24.67972	 17.60420	  5.35949	 -1.88350	 27.42115	 -0.75746	 30.14450	705.73401	 24.00	
 18.690	-74.137	 24.72943	 16.32575	  6.59035	 -2.18589	 27.94620	 -0.77522	 30.14434	705.75500	 24.00	
 18.696	-79.417	 24.77794	 14.78720	  7.84863	 -2.35092	 28.40862	 -0.80244	 30.19843	705.75598	 24.00	
 18.700	-84.691	 24.77696	 13.21893	  9.18654	 -2.54710	 28.64641	 -0.83087	 30.17668	705.68298	 24.00	
 18.700	-90.000	 24.79840	 11.73814	 10.56295	 -2.57643	 28.74756	 -0.90058	 30.17197	705.78601	 24.00	
 18.700	-95.309	 24.83624	 10.22610	 12.14943	 -2.53269	 28.76798	 -0.96302	 30.20435	705.85199	 24.00	
 18.696	-100.583	 24.79443	  8.78718	 13.70039	 -2.36336	 28.54741	 -1.05313	 30.14449	705.79303	 24.00	
 18.690	-105.863	 24.80348	  7.50022	 15.17622	 -2.23153	 28.27624	 -1.10848	 30.17061	705.73102	 24.00	
 18.707	-111.165	 24.79764	  6.25660	 16.68725	 -1.86126	 27.83389	 -1.18766	 30.17382	705.73901	 24.00	
 18.698	-116.504	 24.79451	  5.11315	 18.17868	 -1.35186	 27.21130	 -1.26417	 30.13937	705.69897	 24.00	
 18.700	-121.794	 24.79276	  4.01488	 19.63958	 -0.77745	 26.49112	 -1.30620	 30.14658	705.83698	 24.00	
 18.713	-127.067	 24.80635	  3.01121	 21.01895	 -0.20911	 25.66890	 -1.32323	 30.18930	705.75000	 24.00	
 18.705	-132.343	 24.78723	  2.07298	 22.28889	  0.47125	 24.65453	 -1.32760	 30.15313	705.66803	 24.00	
 18.699	-137.625	 24.81205	  1.28006	 23.52034	  1.32287	 23.54376	 -1.35406	 30.15956	705.70801	 24.00	
 18.698	-142.952	 24.78891	  0.55749	 24.61027	  2.18863	 22.33462	 -1.35779	 30.15040	705.74200	 24.00	
 18.704	-148.255	 24.80386	 -0.04174	 25.60896	  3.21863	 21.02412	 -1.36374	 30.15002	705.73297	 24.00	
 18.695	-153.537	 24.83606	 -0.58981	 26.47613	  4.39089	 19.71620	 -1.37422	 30.14496	705.78699	 24.00	
 18.706	-158.818	 24.83429	 -1.09738	 27.18558	  5.55898	 18.36774	 -1.33991	 30.13173	705.71002	 24.00	
 18.691	-164.085	 24.90180	 -1.38303	 27.78896	  6.75887	 16.96414	 -1.35006	 30.17500	705.71899	 24.00	
 18.703	-169.441	 24.91289	 -1.60493	 28.20332	  8.05874	 15.40273	 -1.35366	 30.15865	705.83398	 24.00	
 18.709	-174.675	 24.88224	 -1.74428	 28.46421	  9.32457	 13.79507	 -1.29740	 30.14603	705.71002	 24.00	
 18.700	180.000	 24.96460	 -1.67176	 28.58782	 10.95164	 12.27037	 -1.32080	 30.17838	705.85999	 24.00	
 20.400	180.000	 23.91496	 -3.29647	 29.14398	  9.92865	 11.39671	 -1.23619	 30.19486	705.77502	 24.00	
 20.401	-175.153	 23.85168	 -3.28384	 29.02607	  8.57071	 12.85746	 -1.20968	 30.16910	705.74103	 24.00	
 20.407	-170.264	 23.80493	 -3.38662	 28.80470	  7.28714	 14.35493	 -1.18858	 30.17603	705.83099	 24.00	
 20.410	-165.423	 23.78500	 -3.09964	 28.43736	  5.96607	 15.90099	 -1.16970	 30.18853	705.71997	 24.00	
 20.392	-160.496	 23.76514	 -2.78463	 27.92898	  4.82217	 17.39073	 -1.17118	 30.20025	705.87201	 24.00	
 20.401	-155.705	 23.69795	 -2.36816	 27.23495	  3.62219	 18.75212	 -1.17958	 30.14055	705.73901	 24.00	
 20.405	-150.835	 23.68621	 -1.95472	 26.46164	  2.49170	 20.06396	 -1.23770	 30.15889	705.78699	 24.00	
 20.397	-145.903	 23.69368	 -1.36999	 25.57329	  1.39967	 21.44477	 -1.26609	 30.19176	705.78699	 24.00	
 20.392	-141.062	 23.70439	 -0.67385	 24.53913	  0.54000	 22.70457	 -1.35147	 30.17830	705.75000	 24.00	
 20.396	-136.227	 23.70662	  0.08136	 23.37753	 -0.27859	 23.92274	 -1.37597	 30.18063	705.86798	 24.00	
 20.408	-131.372	 23.69331	  0.84678	 22.14165	 -1.10742	 25.02185	 -1.33404	 30.19125	705.83099	 24.00	
 20.410	-126.511	 23.73327	  1.67879	 20.82603	 -1.75926	 26.02438	 -1.32244	 30.19048	705.81403	 24.00	
 20.400	-121.604	 23.71731	  2.68974	 19.41517	 -2.41821	 26.83574	 -1.27832	 30.15352	705.95001	 24.00	
 20.403	-116.741	 23.71606	  3.74949	 17.94503	 -2.95103	 27.57376	 -1.19453	 30.15703	705.70599	 24.00	
 20.413	-111.900	 23.69330	  4.87473	 16.47637	 -3.48687	 28.19561	 -1.12046	 30.16285	705.80603	 24.00	
 20.398	-107.004	 23.65705	  6.09843	 14.87338	 -4.01139	 28.67651	 -1.08470	 30.17067	705.82599	 24.00	
 20.394	-102.132	 23.64968	  7.38878	 13.40932	 -4.13349	 28.95268	 -0.96243	 30.12710	705.80298	 24.00	
 20.403	-97.332	 23.70770	  8.63408	 11.96497	 -3.99049	 29.19119	 -0.89362	 30.17376	705.78699	 24.00	
 20.392	-92.440	 23.73808	 10.09048	 10.48085	 -3.95269	 29.25490	 -0.84542	 30.16018	705.78699	 24.00	
 20.392	-87.560	 23.70451	 11.51654	  9.05092	 -4.08492	 29.22403	 -0.81437	 30.17435	705.85199	 24.00	
 20.403	-82.668	 23.57200	 12.78379	  7.62291	 -4.54306	 29.10362	 -0.67848	 30.18346	705.74701	 24.00	
 20.394	-77.868	 23.49115	 14.23615	  6.33406	 -4.43691	 28.74837	 -0.67398	 30.11302	705.79602	 24.00	
 20.398	-72.996	 23.49080	 15.84240	  5.07887	 -4.12683	 28.35304	 -0.66352	 30.14030	705.72498	 24.00	
 20.413	-68.100	 23.50863	 17.30517	  3.87805	 -3.74996	 27.82024	 -0.62273	 30.17589	705.78302	 24.00	
 20.403	-63.259	 23.49766	 18.80126	  2.72186	 -3.22243	 27.07907	 -0.62814	 30.14050	705.81799	 24.00	
 20.400	-58.396	 23.54702	 20.20805	  1.67843	 -2.35364	 26.19018	 -0.70224	 30.12887	705.82098	 24.00	
 20.410	-53.489	 23.54982	 21.57864	  0.71630	 -1.70521	 25.25213	 -0.72845	 30.14523	705.92401	 24.00	
 20.408	-48.628	 23.59111	 22.88224	 -0.12466	 -0.95199	 24.20702	 -0.74309	 30.17522	705.81000	 24.00	
 20.396	-43.773	 23.59906	 24.06728	 -0.91158	 -0.14799	 23.03289	 -0.76831	 30.17745	705.85400	 24.00	
 20.392	-38.938	 23.60822	 25.16340	 -1.58603	  0.80968	 21.75405	 -0.80571	 30.17110	705.80402	 24.00	
 20.397	-34.097	 23.57053	 26.07768	 -2.20556	  1.70480	 20.42634	 -0.79426	 30.13341	705.85901	 24.00	
 20.405	-29.165	 23.57491	 26.98208	 -2.87978	  2.77013	 19.15315	 -0.81041	 30.17137	705.89301	 24.00	
 20.401	-24.295	 23.54971	 27.69052	 -3.42287	  3.85877	 17.68211	 -0.81434	 30.16092	705.88300	 24.00	
 20.392	-19.504	 23.57096	 28.26052	 -3.75804	  5.04140	 16.26494	 -0.83940	 30.16089	705.92102	 24.00	
 20.410	-14.577	 23.56787	 28.73449	 -4.02577	  6.34505	 14.69020	 -0.84943	 30.17692	705.86499	 24.00	
 20.407	 -9.736	 23.52886	 29.01582	 -4.24953	  7.60134	 13.16944	 -0.81349	 30.14652	705.95203	 24.00	
 20.401	 -4.847	 23.57664	 29.20912	 -4.20508	  8.94419	 11.75970	 -0.84188	 30.16610	705.81702	 24.00	
 20.400	  0.000	 23.62096	 29.26018	 -4.13064	 10.20878	 10.47375	 -0.83858	 30.17349	705.78998	 24.00	
 20.401	  4.847	 23.60912	 29.19365	 -4.19608	 11.72921	  9.05049	 -0.80867	 30.15848	705.77899	 24.00	
 20.407	  9.736	 23.59979	 28.99870	 -4.03497	 13.29513	  7.72148	 -0.83637	 30.14569	705.82001	 24.00	
 20.410	 14.577	 23.62793	 28.71463	 -3.84634	 14.82221	  6.49433	 -0.81927	 30.18327	705.77002	 24.00	
 20.392	 19.504	 23.65601	 28.21279	 -3.45596	 16.37722	  5.31240	 -0.82563	 30.14884	705.71600	 24.00	
 20.401	 24.295	 23.68683	 27.63321	 -3.06433	 17.84616	  4.19931	 -0.85817	 30.15047	705.87701	 24.10	
 20.405	 29.165	 23.71150	 26.90296	 -2.47308	 19.24621	  3.16848	 -0.92189	 30.14729	705.88202	 24.10	
 20.397	 34.097	 23.73500	 26.03263	 -1.88407	 20.56106	  2.23859	 -0.99634	 30.15163	705.93103	 24.00	
 20.392	 38.938	 23.72747	 25.05521	 -1.22100	 21.90129	  1.24353	 -1.06398	 30.14821	705.83502	 24.10	
 20.396	 43.773	 23.79972	 23.97812	 -0.38520	 23.22083	  0.37381	 -1.11658	 30.18385	705.81201	 24.10	
 20.408	 48.628	 23.78649	 22.79009	  0.39547	 24.35801	 -0.36715	 -1.18309	 30.16286	705.81201	 24.00	
 20.410	 53.489	 23.76409	 21.49307	  1.31944	 25.40030	 -1.02331	 -1.22628	 30.13821	705.90698	 24.10	
 20.400	 58.396	 23.75388	 20.14909	  2.37258	 26.32896	 -1.54078	 -1.27216	 30.11714	705.80298	 24.10	
 20.403	 63.259	 23.84449	 18.83165	  3.49450	 27.14127	 -1.93078	 -1.28849	 30.15605	705.85199	 24.10	
 20.413	 68.100	 23.83218	 17.36826	  4.64854	 27.78632	 -2.35828	 -1.31036	 30.12085	705.79303	 24.10	
 20.398	 72.996	 23.87629	 15.95300	  5.88720	 28.36106	 -2.65819	 -1.27974	 30.16145	705.83099	 24.10	
 20.394	 77.868	 23.87971	 14.45487	  7.13353	 28.74152	 -2.87441	 -1.22595	 30.15843	705.78900	 24.10	
 20.403	 82.668	 23.91203	 12.94321	  8.49150	 29.01319	 -2.97636	 -1.16477	 30.17616	705.85901	 24.10	
 20.392	 87.560	 23.93704	 11.47521	  9.88496	 29.12706	 -2.93837	 -1.10215	 30.17263	705.80402	 24.10	
 20.392	 92.440	 23.95390	 10.04904	 11.31895	 29.11672	 -2.96293	 -1.01060	 30.16352	705.78601	 24.10	
 20.403	 97.332	 23.97265	  8.70782	 12.76341	 28.98996	 -2.97738	 -0.99339	 30.18149	705.90503	 24.10	
 20.394	102.132	 23.97961	  7.39395	 14.28528	 28.68577	 -2.73408	 -0.98886	 30.15608	705.96899	 24.10	
 20.398	107.004	 23.99544	  6.09152	 15.89202	 28.25772	 -2.48649	 -1.00288	 30.15082	705.86902	 24.10	
 20.413	111.900	 24.02247	  4.86445	 17.38650	 27.71506	 -2.11058	 -1.05728	 30.16286	705.95898	 24.10	
 20.403	116.741	 24.03738	  3.70842	 18.87422	 27.03795	 -1.59575	 -1.11727	 30.16661	706.00897	 24.10	
 20.400	121.604	 24.09329	  2.66135	 20.25647	 26.22938	 -1.03206	 -1.18162	 30.18410	705.83698	 24.10	
 20.410	126.511	 24.06074	  1.76318	 21.53834	 25.21157	 -0.41059	 -1.20290	 30.16769	705.93597	 24.10	
 20.408	131.372	 24.08232	  0.90777	 22.82060	 24.11152	  0.28676	 -1.25618	 30.17379	705.85699	 24.10	
 20.396	136.227	 24.11236	  0.13805	 23.99897	 22.90359	  1.13151	 -1.27733	 30.14784	705.96100	 24.10	
 20.392	141.062	 24.12354	 -0.57874	 25.07056	 21.66015	  1.95693	 -1.32023	 30.15345	705.80402	 24.10	
 20.397	145.903	 24.11551	 -1.25626	 26.06050	 20.31963	  2.81047	 -1.35888	 30.17834	705.82001	 24.10	
 20.405	150.835	 24.07664	 -1.87042	 26.93232	 18.93651	  3.85817	 -1.35328	 30.18233	705.95300	 24.10	
 20.401	155.705	 24.07133	 -2.38550	 27.65714	 17.50330	  4.97553	 -1.35267	 30.18644	705.82599	 24.10	
 20.392	160.496	 24.01608	 -2.86665	 28.19911	 15.93489	  6.10004	 -1.37311	 30.15685	705.98297	 24.10	
 20.410	165.423	 23.95513	 -3.30731	 28.62295	 14.40876	  7.33594	 -1.35214	 30.14234	706.00702	 24.10	
 20.407	170.264	 23.91960	 -3.46401	 28.89730	 12.88530	  8.66268	 -1.32187	 30.13390	706.01703	 24.10	
 20.401	175.153	 23.92741	 -3.38932	 29.10838	 11.38881	 10.04192	 -1.27198	 30.18827	705.99298	 24.10	
  0.141	 45.000	 30.13927	 16.98445	 16.33489	 16.34182	 16.96442	  0.22678	 30.12206	706.08698	 24.10	
  4.001	128.691	 30.09120	 14.52869	 18.52578	 18.70869	 14.18074	  0.13278	 30.15128	705.95502	 24.10	
  4.002	 76.995	 30.09403	 17.44555	 15.43706	 19.49906	 13.47941	  0.13690	 30.15568	705.89600	 24.10	
  4.002	 25.892	 30.11067	 19.69543	 13.15085	 17.63065	 15.17019	  0.13126	 30.18439	706.03998	 24.10	
  4.002	-25.892	 30.09649	 19.70555	 13.06758	 14.48332	 18.23453	  0.10510	 30.18262	705.96100	 24.10	
  4.002	-76.995	 30.09659	 17.45162	 15.22114	 12.61162	 20.09091	  0.07279	 30.18060	705.97498	 24.10	
  4.001	-128.691	 30.07917	 14.49585	 18.40184	 13.16299	 19.61343	  0.10948	 30.16443	706.03101	 24.10	
  4.000	180.000	 30.06639	 13.17075	 19.75982	 15.99742	 16.92410	  0.13519	 30.14441	705.94501	 24.10	
  8.000	180.000	 29.42336	  9.21637	 22.73021	 15.22236	 16.32710	 -0.26212	 30.10792	706.02899	 24.10	
  7.991	-152.370	 29.40383	  9.95557	 21.76521	 11.83254	 19.54075	 -0.32956	 30.13279	705.97803	 24.10	
  7.997	-124.550	 29.43747	 11.98557	 19.43047	  9.46403	 22.02456	 -0.37754	 30.17951	705.99200	 24.10	
  8.006	-96.837	 29.41055	 15.09923	 16.09234	  8.38624	 23.16411	 -0.45881	 30.14894	705.94702	 24.10	
  7.988	-69.228	 29.44278	 18.40185	 12.87685	  8.82724	 22.60982	 -0.50020	 30.19074	706.06201	 24.10	
  7.997	-41.563	 29.39038	 21.17288	 10.05138	 10.68652	 20.53969	 -0.42426	 30.16234	706.04498	 24.10	
  8.008	-13.821	 29.42002	 22.83954	  8.62703	 13.69232	 17.53777	 -0.37523	 30.16597	705.79303	 24.10	
  8.008	 13.821	 29.41834	 22.82438	  8.71358	 17.17494	 14.16093	 -0.35848	 30.15412	706.08002	 24.10	
  7.997	 41.563	 29.44355	 21.16534	 10.44941	 20.15644	 11.49904	 -0.30700	 30.15357	706.10400	 24.10	
  7.988	 69.228	 29.45674	 18.36893	 13.17274	 22.16291	  9.82679	 -0.31084	 30.13860	706.04602	 24.10	
  8.006	 96.837	 29.51918	 15.13082	 16.43974	 22.64746	  9.55221	 -0.36113	 30.19994	706.00299	 24.10	
  7.997	124.550	 29.56159	 12.02248	 19.71996	 21.31293	 10.80077	 -0.32282	 30.20539	706.00098	 24.10	
  7.991	152.370	 29.51080	  9.99636	 21.90748	 18.47820	 13.18124	 -0.30875	 30.14031	705.96698	 24.10	
 12.009	161.059	 28.33166	  5.21227	 24.84396	 17.55065	 12.00377	 -0.86583	 30.17048	705.98700	 24.10	
 12.013	142.081	 28.31764	  6.60652	 23.07327	 20.75296	  8.85723	 -0.84442	 30.15865	706.06799	 24.10	
 12.006	123.113	 28.31293	  8.93464	 20.34516	 23.34784	  6.68753	 -0.92947	 30.14437	706.08698	 24.10	
 12.007	104.200	 28.28374	 12.08009	 17.16341	 24.95756	  5.33434	 -1.03220	 30.14335	705.87201	 24.10	
 11.989	 85.301	 28.26920	 15.62734	 13.68566	 25.30884	  5.01848	 -0.95928	 30.15248	706.02100	 24.10	
 12.013	 66.294	 28.23283	 18.95302	 10.17735	 24.37125	  5.61705	 -0.84809	 30.15106	705.94202	 24.10	
 12.012	 47.388	 28.21763	 21.93795	  7.23691	 22.27457	  7.20011	 -0.81959	 30.15956	706.02301	 24.10	
 11.990	 28.440	 28.17951	 24.24274	  5.36952	 19.39737	  9.64386	 -0.92172	 30.15104	706.09601	 24.10	
 11.991	  9.464	 28.18310	 25.55155	  4.39204	 16.08915	 12.91387	 -0.90951	 30.19131	706.07397	 24.10	
 11.991	 -9.464	 28.11274	 25.55474	  4.33212	 12.51317	 16.25677	 -0.88409	 30.13495	706.02399	 24.10	
 11.990	-28.440	 28.07978	 24.24609	  5.19265	  9.07379	 19.59204	 -0.88586	 30.11571	706.00897	 24.10	
 12.012	-47.388	 28.10428	 21.97410	  6.88828	  6.54451	 22.48751	 -0.97993	 30.15494	706.17200	 24.10	
 12.013	-66.294	 28.13572	 19.02706	  9.61318	  4.80786	 24.66786	 -1.06875	 30.18579	706.07397	 24.10	
 11.989	-85.301	 28.12414	 15.67228	 12.95899	  4.02222	 25.73623	 -1.04454	 30.13896	705.99799	 24.10	
 12.007	-104.200	 28.14471	 12.14175	 16.51917	  4.20643	 25.54316	 -1.01766	 30.14483	706.17200	 24.10	
 12.006	-123.113	 28.16346	  9.13226	 19.96177	  5.34282	 24.13579	 -0.90951	 30.17622	706.09302	 24.20	
 12.013	-142.081	 28.15008	  6.68514	 22.75600	  7.42262	 21.66525	 -0.86278	 30.15718	706.19702	 24.20	
 12.009	-161.059	 28.17518	  5.26205	 24.65085	 10.54700	 18.65402	 -0.94306	 30.14565	706.10400	 24.20	
 16.000	180.000	 26.41895	  0.71145	 27.44453	 12.34923	 13.77883	 -1.33598	 30.10205	706.10498	 24.20	
 15.990	-165.604	 26.41759	  1.11565	 26.92276	  8.75254	 17.27152	 -1.41064	 30.16791	706.01703	 24.20	
 16.002	-151.165	 26.35937	  2.07833	 25.36875	  5.88611	 20.39569	 -1.39114	 30.16750	706.03198	 24.20	
 16.002	-136.836	 26.29141	  3.70899	 22.94157	  3.41830	 23.36218	 -1.26540	 30.12464	706.00897	 24.20	
 15.995	-122.439	 26.30353	  5.96687	 19.94079	  1.70103	 25.67319	 -1.25587	 30.13870	706.09302	 24.20	
 15.993	-107.966	 26.32304	  8.71418	 16.47734	  0.47508	 27.17657	 -1.26354	 30.16887	706.14398	 24.20	
 16.005	-93.629	 26.27445	 12.10303	 12.91152	 -0.20089	 27.78026	 -1.10495	 30.17267	706.14697	 24.20	
 15.992	-79.234	 26.23326	 15.75031	  9.39396	  0.12912	 27.39074	 -1.02526	 30.13051	706.16602	 24.20	
 16.009	-64.774	 26.21085	 19.07397	  6.43631	  1.06377	 26.12112	 -1.01658	 30.12535	706.28802	 24.20	
 15.997	-50.364	 26.22657	 22.18434	  4.05365	  2.61052	 24.02137	 -1.03551	 30.14703	706.12701	 24.20	
 15.997	-36.045	 26.24428	 24.82063	  2.17242	  4.77417	 21.19024	 -1.01606	 30.16069	706.14203	 24.20	
 16.000	-21.597	 26.24420	 26.68151	  0.80881	  7.51363	 18.02765	 -1.08836	 30.18344	706.28198	 24.20	
 16.003	 -7.169	 26.23232	 27.58047	  0.20789	 10.82606	 14.53174	 -1.09964	 30.14420	706.29797	 24.20	
 16.003	  7.169	 26.26935	 27.58683	  0.27606	 14.42533	 10.96986	 -1.09529	 30.16163	706.25098	 24.20	
 16.000	 21.597	 26.32010	 26.63766	  1.06863	 17.95582	  7.87938	 -1.21109	 30.16496	706.13898	 24.20	
 15.997	 36.045	 26.35449	 24.79563	  2.51487	 21.13982	  5.33242	 -1.22589	 30.14821	706.28998	 24.20	
 15.997	 50.364	 26.38075	 22.16100	  4.47021	 23.94436	  3.29110	 -1.16715	 30.14284	706.35199	 24.20	
 16.009	 64.774	 26.39404	 19.11290	  6.89318	 26.04221	  1.91236	 -1.24241	 30.14123	706.24597	 24.20	
 15.992	 79.234	 26.43805	 15.74302	 10.14989	 27.21763	  1.18310	 -1.29478	 30.15161	706.24597	 24.20	
 16.005	 93.629	 26.43519	 11.98571	 13.74650	 27.43409	  1.00756	 -1.31500	 30.12495	706.20398	 24.20	
 15.993	107.966	 26.54009	  8.77164	 17.29703	 26.70364	  1.68232	 -1.36221	 30.16144	706.28497	 24.20	
 15.995	122.439	 26.53902	  5.94161	 20.58915	 24.89855	  3.08690	 -1.35412	 30.09068	706.24200	 24.20	
 16.002	136.836	 26.62731	  3.76711	 23.49280	 22.45100	  4.82571	 -1.25877	 30.16270	706.09601	 24.20	
 16.002	151.165	 26.61244	  2.14764	 25.71283	 19.31888	  7.17712	 -1.31116	 30.16269	706.20001	 24.20	
 15.990	165.604	 26.54911	  1.03122	 27.06705	 15.90583	 10.23222	 -1.32760	 30.13303	706.11298	 24.20	
 20.003	168.362	 24.17801	 -3.01973	 28.69077	 13.65602	  8.38183	 -1.36390	 30.13653	706.17798	 24.20	
 20.008	156.764	 24.27427	 -2.10756	 27.66707	 17.24624	  5.50804	 -1.39808	 30.14823	706.18701	 24.20	
 20.000	145.147	 24.33872	 -0.81358	 25.85928	 20.54345	  2.99732	 -1.35068	 30.16374	706.20001	 24.20	
 19.995	133.545	 24.32932	  0.90239	 23.32712	 23.52513	  0.96221	 -1.26953	 30.13274	706.14899	 24.10	
 20.009	121.926	 24.29993	  2.86591	 20.38757	 26.03902	 -0.62956	 -1.20873	 30.13279	706.17297	 24.10	
 20.005	110.327	 24.24972	  5.53378	 17.00199	 27.80053	 -1.90472	 -1.04891	 30.15902	706.14099	 24.10	
 19.989	 98.733	 24.23877	  8.54893	 13.41565	 28.78369	 -2.51911	 -0.99168	 30.15451	706.16699	 24.20	
 19.999	 87.075	 24.16035	 11.77993	  9.98112	 28.94727	 -2.57012	 -1.12814	 30.11408	706.18903	 24.10	
 19.992	 75.457	 24.11750	 15.32051	  6.80096	 28.39849	 -2.39482	 -1.28020	 30.10302	706.19501	 24.10	
 20.009	 63.844	 24.07587	 18.71056	  3.94973	 27.12530	 -1.63989	 -1.31234	 30.12585	706.23499	 24.10	
 19.989	 52.269	 24.08523	 21.86857	  1.47151	 25.10892	 -0.46063	 -1.22223	 30.17325	706.21503	 24.10	
 19.999	 40.602	 24.00574	 24.61502	 -0.54088	 22.34903	  1.23538	 -1.07725	 30.12530	706.23102	 24.10	
 20.004	 29.051	 23.99294	 26.84995	 -2.10227	 19.27851	  3.53490	 -0.95703	 30.15764	706.32202	 24.10	
 20.005	 17.433	 23.89132	 28.31074	 -3.22681	 15.79632	  6.07896	 -0.86041	 30.13508	706.28998	 24.10	
 20.006	  5.780	 23.83836	 29.01956	 -3.76068	 12.27136	  8.98079	 -0.84900	 30.11016	706.20300	 24.10	
 20.006	 -5.780	 23.84915	 29.08081	 -3.88456	  8.91128	 12.19805	 -0.84240	 30.17024	706.19000	 24.10	
 20.005	-17.433	 23.80916	 28.34349	 -3.46606	  5.84245	 15.72336	 -0.84348	 30.14403	706.15198	 24.10	
 20.004	-29.051	 23.83270	 26.89180	 -2.48328	  3.10162	 19.17093	 -0.82564	 30.14436	706.13898	 24.10	
 19.999	-40.602	 23.85348	 24.73198	 -0.97258	  0.78772	 22.19351	 -0.80397	 30.14147	706.23102	 24.10	
 19.989	-52.269	 23.84798	 21.94288	  0.87400	 -1.11487	 24.92084	 -0.73717	 30.13745	706.21802	 24.10	
 20.009	-63.844	 23.85270	 18.79801	  3.20971	 -2.62837	 27.06017	 -0.70421	 30.14877	706.18701	 24.10	
 19.992	-75.457	 23.85156	 15.42503	  6.02245	 -3.54092	 28.40335	 -0.71618	 30.10131	706.25299	 24.10	
 19.999	-87.075	 23.95621	 11.88342	  9.13560	 -3.69679	 29.06962	 -0.79801	 30.14698	706.10400	 24.10	
 19.989	-98.733	 23.97160	  8.49945	 12.62148	 -3.58339	 28.99467	 -0.91964	 30.13876	706.14899	 24.10	
 20.005	-110.327	 23.93993	  5.56215	 16.08083	 -3.21195	 28.22459	 -1.11577	 30.12828	706.18701	 24.10	
 20.009	-121.926	 23.95979	  2.97935	 19.50868	 -1.95482	 26.67849	 -1.28958	 30.10806	706.24500	 24.10	
 19.995	-133.545	 23.94201	  0.85039	 22.69238	 -0.41929	 24.50006	 -1.33280	 30.16687	706.25702	 24.10	
 20.000	-145.147	 23.92513	 -0.84659	 25.28329	  1.55470	 21.65963	 -1.29550	 30.13303	706.39099	 24.10	
 20.008	-156.764	 23.92410	 -2.07230	 27.24452	  4.14476	 18.54188	 -1.23792	 30.10148	706.22803	 24.10	
 20.003	-168.362	 24.03705	 -2.90731	 28.53282	  6.99913	 15.09718	 -1.20945	 30.15793	706.17999	 24.10	
 20.000	180.000	 24.12723	 -2.89329	 28.97467	 10.12749	 11.59875	 -1.26109	 30.13887	706.15900	 24.10	
