FileType=PCF
NHL=14
Date=08/31/17	07:54:35
Facility=APL
Serial=16328-20
Customer=NASA
NP=6
Mach=0.200000
Calibration=1:1
CalPts=490
TstPts=95
PortNumbering=AP Standard
Units=Torr C m/s kg/m^3 deg mm 
Theta[deg]	Phi[deg]	P1[Torr]	P2[Torr]	P3[Torr]	P4[Torr]	P5[Torr]	P6[Torr]	Pt[Torr]	Ps[Abs,Torr]	Ts[C]	
  0.000	  0.000	 19.53775	 10.75839	 10.46658	 10.37018	 10.85906	  0.17544	 19.52435	705.31598	 23.60	
  1.691	128.401	 19.52991	 10.13990	 11.07928	 11.12324	 10.09971	  0.17356	 19.50657	705.53003	 23.60	
  1.692	 77.194	 19.53408	 10.96145	 10.22307	 11.34853	  9.87519	  0.17470	 19.51601	705.50299	 23.60	
  1.699	 26.182	 19.51197	 11.60454	  9.55099	 10.79094	 10.35414	  0.16707	 19.50024	705.44000	 23.60	
  1.699	-26.182	 19.52354	 11.60623	  9.55220	  9.91629	 11.23981	  0.15753	 19.51421	705.39502	 23.60	
  1.692	-77.194	 19.53599	 10.95200	 10.19731	  9.42812	 11.78097	  0.15678	 19.51750	705.29999	 23.60	
  1.691	-128.401	 19.51963	 10.12965	 11.05966	  9.58388	 11.61815	  0.15788	 19.51040	705.38202	 23.60	
  1.700	180.000	 19.52273	  9.78462	 11.45594	 10.32813	 10.86634	  0.16694	 19.51258	705.38501	 23.50	
  3.400	180.000	 19.47956	  8.81233	 12.35014	 10.22787	 10.81573	  0.13083	 19.48828	705.31598	 23.60	
  3.388	-152.325	 19.48284	  9.02122	 12.09998	  9.37442	 11.69624	  0.12385	 19.50162	705.25702	 23.60	
  3.397	-124.529	 19.47426	  9.59213	 11.44669	  8.70692	 12.37072	  0.11296	 19.49245	705.26398	 23.60	
  3.399	-96.763	 19.49698	 10.43228	 10.53945	  8.41302	 12.69448	  0.07766	 19.51587	705.34003	 23.60	
  3.394	-69.283	 19.47809	 11.30818	  9.63638	  8.53370	 12.54162	  0.09634	 19.50257	705.29901	 23.60	
  3.400	-41.398	 19.48157	 12.11201	  8.94091	  9.06543	 11.94854	  0.09315	 19.50750	705.36499	 23.60	
  3.401	-14.021	 19.48577	 12.53440	  8.54888	  9.83169	 11.13880	  0.09643	 19.50792	705.47198	 23.60	
  3.401	 14.021	 19.47889	 12.55654	  8.53134	 10.75411	 10.20566	  0.11939	 19.50298	705.34698	 23.60	
  3.400	 41.398	 19.48898	 12.10355	  8.94920	 11.60500	  9.46497	  0.12253	 19.51118	705.37097	 23.50	
  3.394	 69.283	 19.47099	 11.30819	  9.69893	 12.15065	  8.95972	  0.13018	 19.48794	705.26001	 23.50	
  3.399	 96.763	 19.50006	 10.41482	 10.60661	 12.27641	  8.89447	  0.12903	 19.51119	705.21802	 23.50	
  3.397	124.529	 19.48267	  9.59602	 11.50054	 11.90670	  9.23378	  0.13416	 19.49124	705.40900	 23.50	
  3.388	152.325	 19.48934	  9.03487	 12.12022	 11.17024	  9.93069	  0.13170	 19.50074	705.47400	 23.50	
  5.099	161.165	 19.40358	  7.92652	 13.07099	 11.06870	  9.76794	  0.03399	 19.50334	705.48798	 23.50	
  5.109	142.013	 19.39983	  8.32285	 12.62162	 11.95213	  8.95918	  0.03107	 19.50034	705.27502	 23.60	
  5.095	123.033	 19.43022	  9.01214	 11.87807	 12.67468	  8.36199	  0.05759	 19.52850	705.34998	 23.60	
  5.105	104.191	 19.39852	  9.81884	 10.94772	 13.06644	  8.01989	  0.02674	 19.49361	705.27802	 23.60	
  5.093	 85.207	 19.39620	 10.71079	 10.00449	 13.17133	  7.90516	  0.02325	 19.49571	705.24701	 23.60	
  5.104	 66.290	 19.41705	 11.66089	  9.10151	 12.94994	  8.09935	  0.03808	 19.52568	705.19800	 23.60	
  5.094	 47.331	 19.40105	 12.49475	  8.41463	 12.37428	  8.51372	  0.02159	 19.51616	705.26099	 23.50	
  5.089	 28.397	 19.37399	 13.09650	  7.83691	 11.55895	  9.16257	  0.01265	 19.48801	705.26398	 23.50	
  5.096	  9.576	 19.35509	 13.43536	  7.48833	 10.61871	  9.98365	  0.00733	 19.48232	705.29999	 23.50	
  5.096	 -9.576	 19.37081	 13.44990	  7.47742	  9.66810	 10.95415	 -0.01292	 19.49776	705.31097	 23.50	
  5.089	-28.397	 19.38834	 13.13441	  7.82342	  8.82407	 11.88247	 -0.01233	 19.52039	705.31702	 23.50	
  5.094	-47.331	 19.38946	 12.51517	  8.32052	  8.09200	 12.68182	 -0.03209	 19.51580	705.41998	 23.50	
  5.104	-66.290	 19.36780	 11.66025	  8.96737	  7.56719	 13.26712	 -0.04777	 19.50115	705.26801	 23.50	
  5.093	-85.207	 19.39598	 10.72450	  9.86289	  7.32791	 13.58151	 -0.02578	 19.52337	705.34003	 23.50	
  5.105	-104.191	 19.38382	  9.81579	 10.83556	  7.38082	 13.51613	 -0.02652	 19.51018	705.18402	 23.50	
  5.095	-123.033	 19.38225	  8.97949	 11.76499	  7.75393	 13.13480	 -0.00518	 19.50496	705.10797	 23.50	
  5.109	-142.013	 19.37971	  8.33879	 12.52778	  8.34753	 12.48984	  0.01229	 19.50666	705.18103	 23.50	
  5.099	-161.165	 19.37488	  7.90442	 13.04676	  9.17866	 11.62576	  0.01125	 19.49558	705.24902	 23.50	
  5.100	180.000	 19.38444	  7.77825	 13.22161	 10.08086	 10.70056	  0.02007	 19.49355	705.32202	 23.50	
  6.800	180.000	 19.23003	  6.75640	 14.10569	  9.85645	 10.50772	 -0.08168	 19.49420	705.31598	 23.50	
  6.796	-166.229	 19.21447	  6.81318	 13.96264	  8.95071	 11.44669	 -0.10036	 19.50683	705.34698	 23.50	
  6.808	-152.311	 19.20793	  7.07412	 13.58006	  8.10922	 12.34000	 -0.10211	 19.50303	705.18402	 23.40	
  6.795	-138.383	 19.19844	  7.52692	 12.95677	  7.34335	 13.13726	 -0.10402	 19.49215	705.15100	 23.40	
  6.792	-124.591	 19.20506	  8.17944	 12.18427	  6.76497	 13.78589	 -0.12395	 19.51144	705.27197	 23.40	
  6.787	-110.754	 19.16989	  8.95219	 11.26312	  6.38588	 14.18530	 -0.15248	 19.47202	705.14301	 23.40	
  6.800	-96.985	 19.18409	  9.81161	 10.33273	  6.19890	 14.42901	 -0.17280	 19.50330	705.29102	 23.40	
  6.800	-83.015	 19.17395	 10.72194	  9.37336	  6.22108	 14.36858	 -0.18680	 19.48317	705.16498	 23.40	
  6.787	-69.246	 19.18436	 11.66171	  8.56832	  6.38613	 14.10441	 -0.19700	 19.50637	705.34198	 23.40	
  6.792	-55.409	 19.20120	 12.55677	  7.84826	  6.78163	 13.63775	 -0.18039	 19.52056	705.30798	 23.40	
  6.795	-41.617	 19.15521	 13.27806	  7.22157	  7.39237	 12.90939	 -0.16438	 19.47799	705.34698	 23.40	
  6.808	-27.689	 19.18619	 13.88786	  6.75187	  8.18447	 12.07101	 -0.14625	 19.49477	705.30200	 23.40	
  6.796	-13.771	 19.18881	 14.22616	  6.43001	  9.04545	 11.15110	 -0.13568	 19.49980	705.33899	 23.40	
  6.800	  0.000	 19.18983	 14.34684	  6.36400	  9.94405	 10.22317	 -0.12853	 19.50136	705.38098	 23.40	
  6.796	 13.771	 19.18969	 14.21790	  6.47640	 10.89986	  9.29801	 -0.12043	 19.50106	705.27802	 23.40	
  6.808	 27.689	 19.20513	 13.87437	  6.83033	 11.83307	  8.51972	 -0.12047	 19.50683	705.32599	 23.40	
  6.795	 41.617	 19.21478	 13.29549	  7.36266	 12.65088	  7.90724	 -0.09508	 19.51603	705.29999	 23.40	
  6.792	 55.409	 19.21072	 12.53114	  8.02320	 13.33430	  7.36699	 -0.08842	 19.49929	705.27802	 23.40	
  6.787	 69.246	 19.25883	 11.67549	  8.74604	 13.83411	  7.03937	 -0.10187	 19.54730	705.20502	 23.40	
  6.800	 83.015	 19.21511	 10.72390	  9.53951	 14.04730	  6.84443	 -0.10553	 19.49781	705.38202	 23.40	
  6.800	 96.985	 19.24178	  9.81528	 10.50818	 14.05674	  6.88897	 -0.11319	 19.51876	705.28497	 23.40	
  6.787	110.754	 19.24147	  8.96205	 11.44093	 13.77046	  7.13332	 -0.10726	 19.49858	705.18201	 23.40	
  6.792	124.591	 19.23833	  8.17857	 12.31840	 13.29469	  7.50356	 -0.08235	 19.50020	705.11200	 23.40	
  6.795	138.383	 19.23134	  7.57087	 13.05299	 12.58999	  8.06503	 -0.08165	 19.48599	705.20099	 23.40	
  6.808	152.311	 19.24384	  7.10819	 13.64372	 11.75773	  8.74080	 -0.09006	 19.50349	705.13898	 23.40	
  6.796	166.229	 19.22522	  6.82615	 13.99422	 10.79487	  9.61657	 -0.08763	 19.49453	705.05499	 23.40	
  8.491	168.704	 19.01540	  5.76275	 14.88838	 10.56993	  9.34438	 -0.23590	 19.51094	705.21301	 23.40	
  8.502	157.493	 19.02183	  5.96457	 14.57847	 11.53151	  8.48291	 -0.23379	 19.50879	705.18799	 23.40	
  8.494	146.194	 18.99043	  6.31218	 14.04707	 12.43795	  7.74120	 -0.22464	 19.47856	705.06598	 23.40	
  8.495	135.039	 19.01135	  6.83388	 13.43350	 13.28473	  7.09014	 -0.22678	 19.50743	705.04401	 23.40	
  8.487	123.723	 19.00787	  7.45696	 12.61653	 13.96863	  6.53262	 -0.24584	 19.50240	705.18201	 23.40	
  8.492	112.575	 19.00639	  8.22065	 11.73116	 14.47170	  6.13939	 -0.27272	 19.50236	705.16803	 23.40	
  8.510	101.220	 19.00149	  9.10949	 10.76243	 14.79025	  5.88891	 -0.27416	 19.50601	705.22998	 23.40	
  8.500	 90.000	 18.99762	 10.01310	  9.80025	 14.88630	  5.78765	 -0.25792	 19.50815	705.16699	 23.40	
  8.510	 78.780	 18.96474	 10.93458	  8.91583	 14.77699	  5.81437	 -0.24929	 19.47783	705.18799	 23.40	
  8.492	 67.425	 18.98030	 11.91201	  8.07871	 14.49224	  6.02490	 -0.23800	 19.50217	705.09399	 23.40	
  8.487	 56.277	 18.97446	 12.80420	  7.29851	 14.01155	  6.35096	 -0.23255	 19.50751	705.29401	 23.40	
  8.495	 44.961	 18.95614	 13.60517	  6.62659	 13.33153	  6.86443	 -0.23619	 19.49412	705.16803	 23.40	
  8.494	 33.806	 18.93892	 14.23507	  6.08262	 12.52755	  7.48606	 -0.25937	 19.48077	705.14697	 23.40	
  8.502	 22.507	 18.91770	 14.72851	  5.60498	 11.61086	  8.22431	 -0.26943	 19.46522	705.15900	 23.40	
  8.491	 11.296	 18.93654	 15.07385	  5.34914	 10.66155	  8.97943	 -0.28296	 19.49017	705.10602	 23.40	
  8.500	  0.000	 18.93395	 15.18505	  5.24228	  9.71377	  9.92308	 -0.28373	 19.50125	705.14697	 23.40	
  8.491	-11.296	 18.92324	 15.07831	  5.23314	  8.78876	 10.86931	 -0.28825	 19.49079	705.20898	 23.30	
  8.502	-22.507	 18.90664	 14.76160	  5.54178	  7.88188	 11.81650	 -0.29276	 19.48392	705.19000	 23.30	
  8.494	-33.806	 18.92089	 14.27240	  5.89766	  7.05100	 12.75204	 -0.29699	 19.49487	705.23199	 23.30	
  8.495	-44.961	 18.91952	 13.60883	  6.43006	  6.36107	 13.55362	 -0.32743	 19.49317	705.28601	 23.30	
  8.487	-56.277	 18.93529	 12.83672	  7.08274	  5.81347	 14.22274	 -0.35292	 19.50459	705.21198	 23.30	
  8.492	-67.425	 18.93259	 11.93552	  7.83225	  5.37391	 14.76280	 -0.38141	 19.50898	705.12201	 23.30	
  8.510	-78.780	 18.93246	 10.95754	  8.70848	  5.11550	 15.14769	 -0.38083	 19.50400	705.11200	 23.30	
  8.500	-90.000	 18.94459	 10.03126	  9.54442	  5.07503	 15.26448	 -0.36583	 19.51101	705.28497	 23.30	
  8.510	-101.220	 18.94708	  9.13311	 10.51130	  5.10608	 15.21489	 -0.33281	 19.50937	705.23798	 23.30	
  8.492	-112.575	 18.93401	  8.23790	 11.48502	  5.34708	 14.92528	 -0.32225	 19.49344	705.30603	 23.30	
  8.487	-123.723	 18.92710	  7.47186	 12.39500	  5.73514	 14.42889	 -0.28362	 19.49228	705.12903	 23.30	
  8.495	-135.039	 18.92731	  6.82717	 13.22390	  6.24047	 13.81887	 -0.25447	 19.49094	705.13702	 23.30	
  8.494	-146.194	 18.95212	  6.31809	 13.93286	  6.91418	 13.07554	 -0.25499	 19.51112	705.33301	 23.30	
  8.502	-157.493	 18.96150	  5.92298	 14.47024	  7.77533	 12.17188	 -0.25874	 19.51020	705.13898	 23.30	
  8.491	-168.704	 18.95880	  5.72702	 14.79675	  8.66022	 11.24074	 -0.25912	 19.48699	705.11902	 23.30	
  8.500	180.000	 18.97290	  5.66296	 14.94193	  9.59282	 10.29311	 -0.23632	 19.49094	705.15997	 23.30	
 10.200	180.000	 18.68739	  4.54674	 15.72465	  9.28948	 10.03186	 -0.39977	 19.51132	705.23199	 23.30	
 10.191	-170.497	 18.64379	  4.58067	 15.61083	  8.33396	 10.97608	 -0.41718	 19.49170	705.22601	 23.30	
 10.210	-161.034	 18.61580	  4.74842	 15.26898	  7.40810	 11.92250	 -0.42903	 19.48033	705.22302	 23.30	
 10.194	-151.526	 18.61563	  5.05841	 14.80752	  6.54184	 12.86549	 -0.42009	 19.49856	705.12799	 23.30	
 10.190	-142.105	 18.61575	  5.50535	 14.20744	  5.79086	 13.70422	 -0.40386	 19.50790	705.16498	 23.30	
 10.215	-132.646	 18.61986	  6.06077	 13.46547	  5.13870	 14.45307	 -0.40566	 19.51606	705.23999	 23.30	
 10.203	-123.092	 18.60695	  6.72271	 12.59667	  4.63130	 15.09485	 -0.43906	 19.50396	705.25201	 23.30	
 10.192	-113.678	 18.60927	  7.45998	 11.66528	  4.25369	 15.54295	 -0.47589	 19.48960	705.22302	 23.30	
 10.208	-104.249	 18.61235	  8.29799	 10.69965	  3.97554	 15.87097	 -0.51201	 19.51182	705.18799	 23.30	
 10.210	-94.801	 18.58855	  9.22291	  9.68925	  3.84378	 15.98527	 -0.53238	 19.49621	705.25702	 23.30	
 10.210	-85.199	 18.61423	 10.18420	  8.81371	  3.86371	 15.96998	 -0.55315	 19.51782	705.27698	 23.30	
 10.208	-75.751	 18.58260	 11.15520	  7.90299	  4.00252	 15.76014	 -0.56076	 19.50066	705.21301	 23.30	
 10.192	-66.322	 18.57401	 12.09676	  7.04793	  4.30492	 15.36760	 -0.55679	 19.48349	705.16699	 23.30	
 10.203	-56.908	 18.56323	 13.00344	  6.23076	  4.72117	 14.81918	 -0.53621	 19.48267	705.27698	 23.30	
 10.215	-47.354	 18.57762	 13.84593	  5.55278	  5.28715	 14.15412	 -0.48503	 19.50039	705.22601	 23.30	
 10.190	-37.895	 18.58818	 14.56177	  4.96063	  5.94733	 13.37589	 -0.45905	 19.50796	705.23602	 23.30	
 10.194	-28.474	 18.60308	 15.15020	  4.60339	  6.71003	 12.50677	 -0.44522	 19.51135	705.16498	 23.30	
 10.210	-18.966	 18.58887	 15.56558	  4.23644	  7.53153	 11.53620	 -0.45271	 19.49398	705.13098	 23.30	
 10.191	 -9.503	 18.60228	 15.81119	  4.09000	  8.47230	 10.57280	 -0.45549	 19.50215	705.13397	 23.30	
 10.200	  0.000	 18.60932	 15.89171	  4.05480	  9.42855	  9.59986	 -0.45624	 19.49751	705.26001	 23.30	
 10.191	  9.503	 18.63147	 15.83396	  4.14586	 10.40041	  8.67420	 -0.44524	 19.52332	705.21600	 23.30	
 10.210	 18.966	 18.62092	 15.57866	  4.34895	 11.35679	  7.87899	 -0.45521	 19.51079	705.23798	 23.30	
 10.194	 28.474	 18.62041	 15.11652	  4.72300	 12.31339	  7.09499	 -0.44056	 19.50135	705.35101	 23.30	
 10.190	 37.895	 18.61229	 14.53840	  5.21376	 13.19046	  6.36610	 -0.41559	 19.49270	705.21802	 23.30	
 10.215	 47.354	 18.60704	 13.81890	  5.80773	 13.96118	  5.75655	 -0.39123	 19.47777	705.06403	 23.30	
 10.203	 56.908	 18.65794	 13.01622	  6.55932	 14.63435	  5.29820	 -0.38889	 19.50619	705.20099	 23.30	
 10.192	 66.322	 18.64841	 12.09090	  7.33853	 15.12384	  4.94431	 -0.39731	 19.49682	705.16803	 23.30	
 10.208	 75.751	 18.65832	 11.14402	  8.18300	 15.47982	  4.71782	 -0.41154	 19.50275	705.26398	 23.20	
 10.210	 85.199	 18.69709	 10.20881	  9.01846	 15.67229	  4.64091	 -0.44549	 19.52852	705.21503	 23.30	
 10.210	 94.801	 18.65369	  9.25015	  9.94441	 15.63136	  4.64587	 -0.46936	 19.47943	705.24902	 23.30	
 10.208	104.249	 18.67652	  8.32097	 10.94567	 15.45205	  4.83979	 -0.47453	 19.49022	705.16199	 23.30	
 10.192	113.678	 18.71248	  7.52167	 11.93150	 15.10872	  5.14138	 -0.46423	 19.51221	705.24902	 23.30	
 10.203	123.092	 18.69958	  6.76185	 12.83855	 14.58514	  5.52638	 -0.43563	 19.50204	705.17401	 23.20	
 10.215	132.646	 18.69739	  6.07877	 13.67200	 13.91902	  6.05133	 -0.39954	 19.49997	705.34998	 23.30	
 10.190	142.105	 18.67591	  5.52541	 14.35088	 13.08128	  6.71322	 -0.38877	 19.46503	705.22302	 23.30	
 10.194	151.526	 18.72945	  5.12167	 14.99596	 12.20683	  7.43893	 -0.40411	 19.51519	705.26801	 23.30	
 10.210	161.034	 18.70678	  4.81477	 15.40825	 11.25242	  8.16636	 -0.40619	 19.51083	705.21802	 23.30	
 10.191	170.497	 18.70745	  4.62446	 15.64979	 10.25243	  9.08024	 -0.40699	 19.52172	705.15997	 23.30	
 11.899	171.783	 18.30669	  3.44975	 16.31659	  9.91884	  8.72541	 -0.57176	 19.50655	705.23602	 23.30	
 11.890	163.610	 18.33097	  3.61780	 16.12086	 10.88573	  7.86219	 -0.55771	 19.50620	705.33698	 23.30	
 11.889	155.445	 18.33685	  3.90977	 15.78041	 11.87382	  7.04045	 -0.54999	 19.50174	705.27802	 23.30	
 11.909	147.299	 18.31089	  4.22044	 15.28546	 12.79672	  6.25755	 -0.54252	 19.47653	705.36200	 23.30	
 11.902	139.148	 18.35038	  4.71913	 14.63099	 13.68560	  5.61454	 -0.54640	 19.51390	705.17603	 23.30	
 11.894	130.867	 18.33300	  5.31316	 13.86767	 14.45119	  4.99506	 -0.56599	 19.49592	705.23297	 23.20	
 11.897	122.732	 18.29772	  5.97286	 13.01290	 15.09565	  4.49123	 -0.61171	 19.47581	705.37500	 23.20	
 11.903	114.597	 18.29796	  6.72464	 12.09874	 15.63878	  4.08034	 -0.63701	 19.47895	705.24902	 23.20	
 11.893	106.346	 18.32795	  7.56209	 11.14204	 16.06129	  3.79618	 -0.65693	 19.52235	705.19598	 23.20	
 11.892	 98.155	 18.28444	  8.39578	 10.13340	 16.25930	  3.57725	 -0.66427	 19.48000	705.28003	 23.20	
 11.900	 90.000	 18.28936	  9.37660	  9.15223	 16.34821	  3.49859	 -0.64825	 19.49152	705.07800	 23.20	
 11.892	 81.845	 18.28295	 10.30501	  8.29296	 16.29308	  3.47497	 -0.60316	 19.49818	705.11499	 23.20	
 11.893	 73.654	 18.28097	 11.28090	  7.42302	 16.08099	  3.59393	 -0.57079	 19.50811	705.25403	 23.20	
 11.903	 65.403	 18.26746	 12.25801	  6.55375	 15.68718	  3.88739	 -0.54534	 19.49682	705.30902	 23.30	
 11.897	 57.268	 18.27184	 13.17751	  5.75011	 15.17300	  4.25942	 -0.53150	 19.51052	705.19299	 23.20	
 11.894	 49.133	 18.25603	 14.01277	  5.00825	 14.51927	  4.72379	 -0.53197	 19.50514	705.34998	 23.20	
 11.902	 40.852	 18.26277	 14.75712	  4.34266	 13.77469	  5.30122	 -0.55306	 19.51837	705.21503	 23.20	
 11.909	 32.701	 18.25528	 15.40378	  3.81075	 12.93972	  5.95500	 -0.59394	 19.53224	705.33002	 23.30	
 11.889	 24.555	 18.19085	 15.86341	  3.39636	 11.95864	  6.68877	 -0.61360	 19.46953	705.33398	 23.20	
 11.890	 16.390	 18.21143	 16.23991	  3.13064	 11.01728	  7.50578	 -0.61213	 19.49252	705.23602	 23.20	
 11.899	  8.217	 18.19043	 16.47479	  2.91918	 10.05023	  8.31835	 -0.61586	 19.48324	705.21600	 23.20	
 11.900	  0.000	 18.19554	 16.55784	  2.85071	  9.08621	  9.21206	 -0.60410	 19.49902	705.16699	 23.20	
 11.899	 -8.217	 18.18656	 16.48583	  2.90371	  8.10150	 10.17458	 -0.60191	 19.49399	705.21301	 23.20	
 11.890	-16.390	 18.17617	 16.23927	  3.06594	  7.18196	 11.15375	 -0.59168	 19.47799	705.21503	 23.20	
 11.889	-24.555	 18.18975	 15.92279	  3.30150	  6.34602	 12.12286	 -0.59022	 19.50406	705.21503	 23.20	
 11.909	-32.701	 18.15351	 15.37807	  3.58328	  5.52759	 13.04686	 -0.58675	 19.47219	705.26099	 23.20	
 11.902	-40.852	 18.16922	 14.75329	  4.08389	  4.85392	 13.88604	 -0.61313	 19.47922	705.06702	 23.20	
 11.894	-49.133	 18.19754	 14.01505	  4.69113	  4.23879	 14.67652	 -0.65566	 19.50885	705.15100	 23.20	
 11.897	-57.268	 18.17593	 13.18133	  5.39185	  3.71765	 15.32533	 -0.68538	 19.49692	705.09802	 23.20	
 11.903	-65.403	 18.15503	 12.25287	  6.21300	  3.23498	 15.85763	 -0.69809	 19.47548	705.07397	 23.20	
 11.893	-73.654	 18.18807	 11.31971	  7.09212	  2.91285	 16.25126	 -0.70714	 19.49188	705.16498	 23.20	
 11.892	-81.845	 18.18675	 10.33620	  7.95872	  2.75559	 16.48310	 -0.71271	 19.48000	705.26398	 23.20	
 11.900	-90.000	 18.20457	  9.39410	  8.90401	  2.68759	 16.61523	 -0.70636	 19.50265	705.24103	 23.20	
 11.892	-98.155	 18.21466	  8.43865	  9.80479	  2.75850	 16.56179	 -0.69541	 19.49289	705.11499	 23.20	
 11.893	-106.346	 18.20190	  7.52815	 10.79022	  2.89591	 16.38217	 -0.66269	 19.49406	705.21503	 23.20	
 11.903	-114.597	 18.20865	  6.72472	 11.77346	  3.16106	 16.07583	 -0.63381	 19.50243	705.02899	 23.20	
 11.897	-122.732	 18.21463	  5.95578	 12.71984	  3.53567	 15.63168	 -0.60770	 19.51142	705.15002	 23.20	
 11.894	-130.867	 18.21572	  5.30005	 13.57902	  4.03777	 14.99610	 -0.57988	 19.50134	705.20502	 23.20	
 11.902	-139.148	 18.19469	  4.67759	 14.37416	  4.68496	 14.26993	 -0.57374	 19.48619	705.22302	 23.20	
 11.909	-147.299	 18.21116	  4.19567	 15.04589	  5.38446	 13.47447	 -0.59771	 19.50102	705.26001	 23.20	
 11.889	-155.445	 18.23291	  3.83003	 15.60551	  6.18585	 12.59180	 -0.61799	 19.49995	705.22302	 23.20	
 11.890	-163.610	 18.22592	  3.56147	 16.00830	  7.03482	 11.62891	 -0.61636	 19.48545	705.29498	 23.20	
 11.899	-171.783	 18.27394	  3.42657	 16.27147	  7.96195	 10.67935	 -0.60490	 19.50879	705.16498	 23.20	
 11.900	180.000	 18.26901	  3.37156	 16.35017	  8.92272	  9.70788	 -0.58964	 19.48905	705.31702	 23.20	
 13.600	180.000	 17.85940	  2.24962	 16.99720	  8.54532	  9.35467	 -0.75347	 19.51348	705.18500	 23.20	
 13.608	-172.853	 17.83111	  2.26634	 16.90774	  7.54593	 10.30362	 -0.76269	 19.51004	705.21198	 23.20	
 13.611	-165.583	 17.79286	  2.37437	 16.67973	  6.62754	 11.26667	 -0.78219	 19.50257	705.08600	 23.20	
 13.601	-158.353	 17.77679	  2.57689	 16.31694	  5.74037	 12.24933	 -0.78381	 19.51639	705.29102	 23.20	
 13.609	-151.210	 17.76740	  2.92194	 15.83105	  4.95591	 13.16059	 -0.76702	 19.51350	705.16199	 23.20	
 13.611	-143.999	 17.75227	  3.35167	 15.20743	  4.25603	 14.02219	 -0.73944	 19.50997	705.18402	 23.20	
 13.601	-136.825	 17.72515	  3.86723	 14.46538	  3.57273	 14.78003	 -0.71424	 19.47743	705.16199	 23.20	
 13.596	-129.640	 17.73590	  4.46913	 13.66412	  2.92587	 15.48712	 -0.71121	 19.49051	705.16498	 23.20	
 13.611	-122.431	 17.74398	  5.14886	 12.80690	  2.44378	 16.07868	 -0.73712	 19.51244	705.25403	 23.20	
 13.604	-115.211	 17.73754	  5.90985	 11.85874	  2.08683	 16.55869	 -0.75889	 19.49854	705.17297	 23.20	
 13.595	-108.042	 17.75727	  6.74108	 10.88096	  1.88963	 16.91281	 -0.79228	 19.51530	705.35400	 23.20	
 13.607	-100.793	 17.74530	  7.55656	  9.88442	  1.75730	 17.12683	 -0.80321	 19.49972	705.29901	 23.20	
 13.601	-93.617	 17.73901	  8.46614	  8.93601	  1.66315	 17.22421	 -0.79766	 19.49959	705.21600	 23.20	
 13.601	-86.383	 17.69790	  9.43007	  7.95061	  1.60426	 17.16228	 -0.79302	 19.47298	705.16803	 23.20	
 13.607	-79.207	 17.71219	 10.40773	  7.02011	  1.70982	 17.02220	 -0.77025	 19.48827	705.14697	 23.20	
 13.595	-71.958	 17.71431	 11.41393	  6.13089	  1.92474	 16.72592	 -0.76944	 19.48743	705.13599	 23.20	
 13.604	-64.789	 17.70833	 12.36301	  5.34647	  2.21186	 16.32273	 -0.77606	 19.50628	705.14697	 23.20	
 13.611	-57.569	 17.68910	 13.25287	  4.53057	  2.59806	 15.77994	 -0.77282	 19.48640	705.04102	 23.20	
 13.596	-50.360	 17.67411	 14.09671	  3.84896	  3.07339	 15.11849	 -0.74187	 19.46381	705.17603	 23.20	
 13.601	-43.175	 17.68623	 14.88904	  3.23160	  3.66947	 14.38853	 -0.70782	 19.49132	705.23199	 23.20	
 13.611	-36.001	 17.69693	 15.57312	  2.73863	  4.35298	 13.56961	 -0.69382	 19.49705	705.17401	 23.20	
 13.609	-28.790	 17.69590	 16.13006	  2.37897	  5.10387	 12.67174	 -0.68871	 19.49174	705.15997	 23.20	
 13.601	-21.647	 17.70113	 16.57464	  2.09806	  5.91787	 11.73989	 -0.70310	 19.49018	705.25702	 23.20	
 13.611	-14.417	 17.71949	 16.91338	  1.92771	  6.79502	 10.75836	 -0.70649	 19.50325	705.09399	 23.20	
 13.608	 -7.147	 17.73090	 17.12401	  1.79087	  7.66770	  9.75832	 -0.72116	 19.51851	705.09998	 23.20	
 13.600	  0.000	 17.71937	 17.16350	  1.74190	  8.65392	  8.80919	 -0.72100	 19.48861	705.11902	 23.20	
 13.608	  7.147	 17.73136	 17.10415	  1.81406	  9.65962	  7.93292	 -0.73246	 19.49569	705.24402	 23.20	
 13.611	 14.417	 17.72364	 16.90036	  1.97325	 10.62327	  7.07350	 -0.73670	 19.49701	705.27100	 23.20	
 13.601	 21.647	 17.74622	 16.57972	  2.19535	 11.60579	  6.25321	 -0.74836	 19.50140	705.13898	 23.20	
 13.609	 28.790	 17.73123	 16.12679	  2.49023	 12.55681	  5.44605	 -0.74887	 19.49329	705.18201	 23.20	
 13.611	 36.001	 17.74919	 15.55926	  2.93596	 13.46480	  4.73816	 -0.73401	 19.49533	705.14502	 23.20	
 13.601	 43.175	 17.77795	 14.89479	  3.50913	 14.28802	  4.14626	 -0.69329	 19.51464	705.14203	 23.20	
 13.596	 50.360	 17.75232	 14.08850	  4.16838	 15.00898	  3.60139	 -0.67219	 19.46960	705.19800	 23.20	
 13.611	 57.569	 17.78100	 13.26207	  4.88816	 15.68415	  3.13203	 -0.67294	 19.50031	705.24701	 23.20	
 13.604	 64.789	 17.79244	 12.33893	  5.70143	 16.20270	  2.79505	 -0.68592	 19.49437	705.30200	 23.20	
 13.595	 71.958	 17.80604	 11.39500	  6.54843	 16.59485	  2.51606	 -0.72040	 19.50213	705.22302	 23.20	
 13.607	 79.207	 17.81067	 10.39103	  7.44825	 16.87156	  2.31412	 -0.75727	 19.50087	705.28497	 23.20	
 13.601	 86.383	 17.81967	  9.44725	  8.28620	 16.97064	  2.30459	 -0.79660	 19.48615	705.20697	 23.20	
 13.601	 93.617	 17.84936	  8.45337	  9.23036	 16.98726	  2.36230	 -0.83930	 19.50210	705.22400	 23.20	
 13.607	100.793	 17.86144	  7.59105	 10.23002	 16.84758	  2.46239	 -0.83186	 19.51125	705.22900	 23.20	
 13.595	108.042	 17.85401	  6.74961	 11.21518	 16.56066	  2.68890	 -0.82258	 19.49619	705.36700	 23.20	
 13.604	115.211	 17.88418	  5.93338	 12.20689	 16.16767	  3.01084	 -0.81347	 19.51762	705.21301	 23.20	
 13.611	122.431	 17.88313	  5.17964	 13.12810	 15.62493	  3.41066	 -0.79013	 19.51693	705.18402	 23.20	
 13.596	129.640	 17.87453	  4.48610	 13.97908	 14.93606	  3.92810	 -0.74123	 19.48653	705.27197	 23.20	
 13.601	136.825	 17.88604	  3.89371	 14.74708	 14.18823	  4.50622	 -0.70412	 19.49087	705.28302	 23.20	
 13.611	143.999	 17.86434	  3.36801	 15.43728	 13.33883	  5.09500	 -0.69435	 19.47731	705.32202	 23.20	
 13.609	151.210	 17.89623	  2.97894	 16.02034	 12.45682	  5.82933	 -0.70777	 19.50830	705.31403	 23.20	
 13.601	158.353	 17.89212	  2.68746	 16.43116	 11.49941	  6.63315	 -0.71688	 19.50294	705.21198	 23.20	
 13.611	165.583	 17.85263	  2.41221	 16.73361	 10.46542	  7.47361	 -0.72671	 19.48070	705.18201	 23.20	
 13.608	172.853	 17.88047	  2.29869	 16.94650	  9.53519	  8.39140	 -0.74874	 19.51711	705.19598	 23.20	
 15.298	173.587	 17.35709	  1.17251	 17.48756	  9.08126	  7.97368	 -0.87670	 19.48986	705.21600	 23.20	
 15.291	167.167	 17.37919	  1.26094	 17.33970	 10.03423	  7.13174	 -0.85477	 19.49789	705.25500	 23.20	
 15.307	160.676	 17.39165	  1.46938	 17.07488	 11.03604	  6.25091	 -0.85475	 19.50548	705.30298	 23.20	
 15.300	154.261	 17.38077	  1.74933	 16.65605	 11.99936	  5.39833	 -0.84004	 19.47869	705.23798	 23.20	
 15.288	147.854	 17.39889	  2.11221	 16.15531	 12.93978	  4.63369	 -0.83331	 19.49036	705.29999	 23.20	
 15.293	141.428	 17.39094	  2.52689	 15.55664	 13.82494	  3.92375	 -0.81946	 19.50079	705.25403	 23.20	
 15.299	134.985	 17.38566	  3.04756	 14.85215	 14.66322	  3.31242	 -0.82860	 19.50216	705.07800	 23.20	
 15.305	128.583	 17.36478	  3.64600	 14.04493	 15.37608	  2.83194	 -0.86298	 19.49331	705.19897	 23.20	
 15.309	122.142	 17.36392	  4.30924	 13.19015	 16.03010	  2.33414	 -0.90129	 19.50368	705.25403	 23.20	
 15.304	115.711	 17.34425	  5.05911	 12.25087	 16.55422	  1.90282	 -0.90343	 19.48011	705.23602	 23.20	
 15.297	109.291	 17.33391	  5.86765	 11.27111	 16.99405	  1.58069	 -0.90541	 19.48956	705.22900	 23.20	
 15.293	102.897	 17.33619	  6.71677	 10.29372	 17.31087	  1.35509	 -0.89227	 19.49947	705.27698	 23.20	
 15.293	 96.458	 17.32465	  7.58841	  9.28558	 17.48318	  1.24760	 -0.90398	 19.48600	705.34802	 23.20	
 15.300	 90.000	 17.32158	  8.48180	  8.35637	 17.54837	  1.19384	 -0.90612	 19.48761	705.36700	 23.20	
 15.293	 83.542	 17.33115	  9.49207	  7.40245	 17.52898	  1.18144	 -0.88812	 19.51963	705.34003	 23.20	
 15.293	 77.103	 17.32528	 10.46241	  6.57464	 17.34611	  1.30892	 -0.85840	 19.52652	705.29102	 23.20	
 15.297	 70.709	 17.29168	 11.41777	  5.69866	 17.01842	  1.53358	 -0.82800	 19.49487	705.30902	 23.20	
 15.304	 64.289	 17.28511	 12.38456	  4.84137	 16.61531	  1.80898	 -0.80010	 19.49819	705.23199	 23.20	
 15.309	 57.858	 17.24800	 13.26598	  4.07977	 16.07420	  2.14466	 -0.77824	 19.46031	705.27197	 23.20	
 15.305	 51.417	 17.26443	 14.14581	  3.39334	 15.46666	  2.56379	 -0.77166	 19.49298	705.29199	 23.30	
 15.299	 45.015	 17.26392	 14.94911	  2.77216	 14.73709	  3.05862	 -0.78114	 19.50857	705.33899	 23.30	
 15.293	 38.572	 17.23944	 15.64010	  2.21849	 13.90840	  3.64724	 -0.79941	 19.49416	705.34698	 23.30	
 15.288	 32.146	 17.22925	 16.25624	  1.73649	 13.04676	  4.29196	 -0.82271	 19.49849	705.23297	 23.30	
 15.300	 25.739	 17.23115	 16.79110	  1.33425	 12.13628	  5.00431	 -0.81649	 19.51751	705.28003	 23.30	
 15.307	 19.324	 17.21789	 17.18747	  1.06128	 11.17142	  5.78335	 -0.79888	 19.50482	705.29102	 23.30	
 15.291	 12.833	 17.20266	 17.46866	  0.85196	 10.18493	  6.63484	 -0.77912	 19.49936	705.23999	 23.30	
 15.298	  6.413	 17.19239	 17.64162	  0.70853	  9.21423	  7.48837	 -0.76206	 19.49313	705.28003	 23.30	
 15.300	  0.000	 17.18447	 17.69439	  0.66126	  8.16641	  8.35715	 -0.75979	 19.49042	705.24103	 23.30	
 15.298	 -6.413	 17.18326	 17.65331	  0.70593	  7.25425	  9.30559	 -0.76284	 19.49954	705.35699	 23.30	
 15.291	-12.833	 17.17643	 17.46416	  0.79690	  6.38552	 10.27683	 -0.75740	 19.49213	705.29199	 23.30	
 15.307	-19.324	 17.17312	 17.18976	  0.94314	  5.51879	 11.26124	 -0.75423	 19.50337	705.26001	 23.30	
 15.300	-25.739	 17.16721	 16.78458	  1.19408	  4.69698	 12.20169	 -0.74032	 19.49330	705.16699	 23.30	
 15.288	-32.146	 17.16198	 16.28067	  1.52384	  3.92743	 13.11452	 -0.73024	 19.49641	705.19000	 23.30	
 15.293	-38.572	 17.20144	 15.69276	  1.99158	  3.21365	 14.00091	 -0.72962	 19.51862	705.27100	 23.30	
 15.299	-45.015	 17.16903	 14.96541	  2.50869	  2.58317	 14.81438	 -0.73001	 19.50802	705.27197	 23.30	
 15.305	-51.417	 17.17682	 14.17176	  3.06835	  2.07529	 15.52727	 -0.74726	 19.49684	705.16199	 23.30	
 15.309	-57.858	 17.14471	 13.29082	  3.64494	  1.60261	 16.13264	 -0.74705	 19.46172	705.22101	 23.30	
 15.304	-64.289	 17.19813	 12.40631	  4.36281	  1.20695	 16.71819	 -0.73711	 19.51680	705.24103	 23.30	
 15.297	-70.709	 17.20806	 11.45666	  5.18609	  0.88998	 17.15981	 -0.73556	 19.52715	705.37903	 23.30	
 15.293	-77.103	 17.18407	 10.46826	  6.03683	  0.67802	 17.44894	 -0.74119	 19.49004	705.26300	 23.30	
 15.293	-83.542	 17.21581	  9.51216	  6.94942	  0.54612	 17.67295	 -0.74679	 19.50968	705.31097	 23.30	
 15.300	-90.000	 17.22039	  8.51678	  7.91234	  0.53804	 17.75438	 -0.79348	 19.49785	705.29999	 23.30	
 15.293	-96.458	 17.24954	  7.57249	  8.91165	  0.61177	 17.73775	 -0.83587	 19.51578	705.22900	 23.30	
 15.293	-102.897	 17.22306	  6.72930	  9.88456	  0.69213	 17.57775	 -0.86639	 19.48790	705.11499	 23.20	
 15.297	-109.291	 17.21962	  5.88650	 10.87348	  0.84984	 17.33754	 -0.87322	 19.49209	705.30798	 23.30	
 15.304	-115.711	 17.23642	  5.09573	 11.85710	  1.07928	 16.98515	 -0.85999	 19.50393	705.28302	 23.30	
 15.309	-122.142	 17.20909	  4.31839	 12.79642	  1.41564	 16.48764	 -0.84621	 19.48422	705.31403	 23.30	
 15.305	-128.583	 17.23583	  3.65357	 13.70284	  1.91492	 15.93667	 -0.82936	 19.51452	705.34802	 23.30	
 15.299	-134.985	 17.22324	  3.05470	 14.51044	  2.39703	 15.24937	 -0.83867	 19.49346	705.20398	 23.30	
 15.293	-141.428	 17.22908	  2.52629	 15.25520	  3.05888	 14.49104	 -0.86583	 19.49844	705.17603	 23.30	
 15.288	-147.854	 17.24651	  2.08354	 15.91882	  3.77273	 13.66536	 -0.89992	 19.50637	705.23602	 23.30	
 15.300	-154.261	 17.24485	  1.67029	 16.47553	  4.51891	 12.75690	 -0.92565	 19.49920	705.32300	 23.30	
 15.307	-160.676	 17.24706	  1.37044	 16.90785	  5.31721	 11.83653	 -0.93111	 19.49130	705.32202	 23.30	
 15.291	-167.167	 17.27482	  1.24672	 17.24137	  6.19445	 10.85257	 -0.91928	 19.48589	705.35602	 23.30	
 15.298	-173.587	 17.31759	  1.14049	 17.43982	  7.11814	  9.89129	 -0.90561	 19.49170	705.31598	 23.30	
 15.300	180.000	 17.33530	  1.11469	 17.53309	  8.07472	  8.93925	 -0.89892	 19.50357	705.33698	 23.30	
 17.000	180.000	 16.75717	 -0.05897	 18.01259	  7.52583	  8.46899	 -0.96636	 19.49252	705.23798	 23.30	
 16.990	-174.179	 16.73715	 -0.02171	 17.94560	  6.61130	  9.42147	 -0.96548	 19.49214	705.19000	 23.30	
 17.009	-168.383	 16.70733	  0.08699	 17.76198	  5.73023	 10.39081	 -0.97672	 19.49241	705.20099	 23.30	
 17.000	-162.596	 16.68256	  0.25430	 17.46261	  4.87636	 11.35200	 -0.98262	 19.49020	705.27802	 23.20	
 16.990	-156.759	 16.67457	  0.51101	 17.04637	  4.08946	 12.31403	 -0.98655	 19.49053	705.22302	 23.30	
 16.995	-150.919	 16.68640	  0.80894	 16.55435	  3.29369	 13.23858	 -0.98933	 19.51666	705.35901	 23.30	
 16.988	-145.161	 16.64949	  1.20311	 15.94368	  2.56087	 14.08012	 -0.96204	 19.48456	705.39301	 23.20	
 17.014	-139.343	 16.64124	  1.65234	 15.26227	  1.92225	 14.89478	 -0.92899	 19.50842	705.20697	 23.20	
 17.007	-133.546	 16.60399	  2.17371	 14.46755	  1.35294	 15.61196	 -0.89838	 19.47469	705.23999	 23.20	
 17.001	-127.699	 16.63934	  2.79903	 13.63876	  0.87986	 16.29507	 -0.89309	 19.50310	705.31403	 23.20	
 17.006	-121.937	 16.62650	  3.46633	 12.72678	  0.37196	 16.86082	 -0.90445	 19.49236	705.23999	 23.20	
 17.002	-116.134	 16.63558	  4.19542	 11.79281	  0.03592	 17.35215	 -0.90912	 19.50998	705.26898	 23.20	
 17.001	-110.310	 16.61383	  4.98514	 10.79792	 -0.20233	 17.70922	 -0.89080	 19.47766	705.10797	 23.20	
 16.988	-104.517	 16.62188	  5.80719	  9.83010	 -0.36788	 17.97487	 -0.85885	 19.48987	705.25403	 23.20	
 17.008	-98.662	 16.61377	  6.68585	  8.84177	 -0.51585	 18.13678	 -0.80019	 19.47812	705.08002	 23.20	
 16.996	-92.909	 16.63719	  7.53311	  7.88983	 -0.55981	 18.23305	 -0.75947	 19.50966	705.15900	 23.20	
 16.996	-87.091	 16.59811	  8.47236	  6.89638	 -0.59604	 18.18411	 -0.69428	 19.48571	705.10303	 23.20	
 17.012	-81.253	 16.58473	  9.45233	  5.94202	 -0.54853	 18.06790	 -0.67892	 19.50084	705.13702	 23.20	
 16.988	-75.483	 16.57623	 10.40686	  5.06558	 -0.37563	 17.81241	 -0.67201	 19.47452	705.12799	 23.30	
 17.001	-69.690	 16.56527	 11.38450	  4.22914	 -0.15966	 17.48050	 -0.64254	 19.48452	705.07501	 23.20	
 17.002	-63.866	 16.56690	 12.33275	  3.48796	  0.13838	 17.05447	 -0.66361	 19.49226	705.24402	 23.20	
 17.006	-58.063	 16.58773	 13.26947	  2.78401	  0.50566	 16.51761	 -0.68949	 19.50794	705.19098	 23.20	
 17.001	-52.301	 16.56542	 14.11167	  2.26068	  0.93576	 15.87512	 -0.67768	 19.48517	705.20898	 23.20	
 17.007	-46.454	 16.56549	 14.95260	  1.67620	  1.46882	 15.15591	 -0.67536	 19.49936	705.22302	 23.20	
 17.014	-40.657	 16.57471	 15.68252	  1.18555	  2.05535	 14.40223	 -0.68518	 19.50593	705.29401	 23.20	
 16.988	-34.839	 16.56501	 16.32055	  0.71998	  2.71305	 13.51039	 -0.68314	 19.48290	705.38202	 23.20	
 16.995	-29.081	 16.58980	 16.90459	  0.29026	  3.39686	 12.62404	 -0.71205	 19.50716	705.33301	 23.20	
 16.990	-23.241	 16.58928	 17.36567	 -0.01338	  4.22426	 11.69872	 -0.73169	 19.51337	705.33398	 23.20	
 17.000	-17.404	 16.59134	 17.72896	 -0.25494	  5.04010	 10.73134	 -0.74072	 19.50840	705.39502	 23.30	
 17.009	-11.617	 16.58446	 17.98047	 -0.39386	  5.90289	  9.76474	 -0.73483	 19.50702	705.39001	 23.30	
 16.990	 -5.821	 16.61819	 18.13235	 -0.43844	  6.81015	  8.82173	 -0.73286	 19.51739	705.21600	 23.30	
 17.000	  0.000	 16.60183	 18.16495	 -0.43732	  7.70420	  7.87097	 -0.73021	 19.49488	705.28497	 23.30	
 16.990	  5.821	 16.58880	 18.10522	 -0.39731	  8.69935	  6.95997	 -0.72759	 19.48425	705.21301	 23.30	
 17.009	 11.617	 16.61960	 17.97691	 -0.27219	  9.70154	  6.12650	 -0.72783	 19.51525	705.23602	 23.30	
 17.000	 17.404	 16.61021	 17.69400	 -0.08007	 10.63603	  5.29942	 -0.75086	 19.49482	705.28302	 23.30	
 16.990	 23.241	 16.61415	 17.33957	  0.15412	 11.62263	  4.48408	 -0.78189	 19.49946	705.26801	 23.30	
 16.995	 29.081	 16.64948	 16.88492	  0.50861	 12.58735	  3.77302	 -0.81481	 19.52174	705.11401	 23.30	
 16.988	 34.839	 16.62819	 16.29963	  0.92002	 13.46115	  3.06217	 -0.82903	 19.48823	705.26099	 23.30	
 17.014	 40.657	 16.60285	 15.62099	  1.36900	 14.31499	  2.42519	 -0.82616	 19.45859	705.21198	 23.30	
 17.007	 46.454	 16.66749	 14.90963	  1.94367	 15.13931	  1.93198	 -0.82759	 19.50475	705.21503	 23.30	
 17.001	 52.301	 16.66323	 14.08546	  2.56414	 15.83304	  1.44639	 -0.84083	 19.48148	705.33398	 23.30	
 17.006	 58.063	 16.66022	 13.21696	  3.23017	 16.43957	  1.08814	 -0.85098	 19.46655	705.14301	 23.30	
 17.002	 63.866	 16.67997	 12.32889	  3.94183	 16.99033	  0.74047	 -0.88328	 19.49267	705.24402	 23.30	
 17.001	 69.690	 16.69447	 11.38234	  4.74133	 17.43528	  0.44761	 -0.91393	 19.50503	705.15399	 23.30	
 16.988	 75.483	 16.73202	 10.44200	  5.57349	 17.76242	  0.28634	 -0.92707	 19.52168	705.20099	 23.30	
 17.012	 81.253	 16.70570	  9.45557	  6.39954	 17.95241	  0.09310	 -0.93052	 19.49717	705.18201	 23.30	
 16.996	 87.091	 16.73835	  8.48489	  7.37080	 18.05931	  0.05325	 -0.91880	 19.51118	705.30798	 23.30	
 16.996	 92.909	 16.71668	  7.54656	  8.33754	 18.03626	  0.06191	 -0.89058	 19.47605	705.15399	 23.30	
 17.008	 98.662	 16.73273	  6.68031	  9.27059	 17.94877	  0.12616	 -0.87935	 19.49999	705.08002	 23.30	
 16.988	104.517	 16.75233	  5.82445	 10.25153	 17.70908	  0.32292	 -0.88792	 19.49265	705.16199	 23.30	
 17.001	110.310	 16.76699	  4.99123	 11.23417	 17.38582	  0.54591	 -0.91340	 19.49928	705.25403	 23.30	
 17.002	116.134	 16.77540	  4.18548	 12.22107	 16.93088	  0.87524	 -0.93133	 19.48722	705.25403	 23.30	
 17.006	121.937	 16.81964	  3.46930	 13.17001	 16.41624	  1.27435	 -0.94983	 19.52469	705.34399	 23.30	
 17.001	127.699	 16.81902	  2.80931	 14.01835	 15.77947	  1.72354	 -0.93406	 19.50383	705.27698	 23.30	
 17.007	133.546	 16.81938	  2.17767	 14.85339	 15.04704	  2.19109	 -0.92278	 19.49921	705.22101	 23.30	
 17.014	139.343	 16.82329	  1.62088	 15.59637	 14.23460	  2.75479	 -0.91615	 19.49793	705.18103	 23.30	
 16.988	145.161	 16.83059	  1.19638	 16.23470	 13.34806	  3.45099	 -0.92962	 19.48366	705.30798	 23.30	
 16.995	150.919	 16.84138	  0.80666	 16.79200	 12.43621	  4.19585	 -0.95359	 19.49052	705.34998	 23.30	
 16.990	156.759	 16.82790	  0.46141	 17.25136	 11.48133	  5.03506	 -0.96016	 19.49139	705.34399	 23.30	
 17.000	162.596	 16.83534	  0.19476	 17.61931	 10.51156	  5.85844	 -0.97025	 19.51059	705.36700	 23.30	
 17.009	168.383	 16.78766	  0.00280	 17.83552	  9.52798	  6.68991	 -0.96423	 19.47725	705.25500	 23.30	
 16.990	174.179	 16.77971	 -0.02293	 17.96930	  8.53428	  7.53163	 -0.97137	 19.48223	705.33698	 23.30	
 18.709	174.675	 16.15094	 -1.14830	 18.40716	  7.97407	  7.05783	 -0.98240	 19.48677	705.33301	 23.30	
 18.703	169.441	 16.16237	 -1.08924	 18.28825	  8.92420	  6.20924	 -0.98970	 19.49104	705.33002	 23.30	
 18.691	164.085	 16.19795	 -0.91971	 18.07248	  9.95155	  5.36932	 -1.00151	 19.50483	705.23798	 23.30	
 18.706	158.818	 16.22317	 -0.70029	 17.77537	 10.91348	  4.56946	 -1.01823	 19.49494	705.29498	 23.30	
 18.695	153.537	 16.21764	 -0.44754	 17.35714	 11.87078	  3.79918	 -1.00265	 19.49454	705.32501	 23.30	
 18.704	148.255	 16.25393	 -0.11845	 16.87625	 12.81342	  3.01648	 -0.98889	 19.52125	705.26099	 23.30	
 18.698	142.952	 16.21457	  0.29538	 16.23591	 13.71928	  2.23839	 -0.88257	 19.45292	705.36499	 23.30	
 18.699	137.625	 16.22589	  0.74068	 15.57374	 14.59196	  1.61386	 -0.87013	 19.47963	705.35699	 23.30	
 18.705	132.343	 16.21775	  1.26328	 14.81852	 15.36932	  1.05573	 -0.85263	 19.48561	705.48499	 23.30	
 18.713	127.067	 16.16686	  1.87413	 13.96331	 16.05095	  0.60906	 -0.83546	 19.45285	705.29401	 23.30	
 18.700	121.794	 16.17544	  2.59429	 13.08751	 16.70750	  0.20646	 -0.83603	 19.47217	705.45203	 23.30	
 18.698	116.504	 16.15026	  3.31574	 12.15969	 17.23305	 -0.15049	 -0.80075	 19.46465	705.29999	 23.30	
 18.707	111.165	 16.13494	  4.08173	 11.20129	 17.66959	 -0.47619	 -0.77240	 19.45765	705.36499	 23.30	
 18.690	105.863	 16.14847	  4.89535	 10.24508	 18.03997	 -0.70509	 -0.73838	 19.48956	705.25500	 23.30	
 18.696	100.583	 16.12829	  5.75154	  9.26504	 18.27844	 -0.87751	 -0.71489	 19.47294	705.09998	 23.30	
 18.700	 95.309	 16.11611	  6.63551	  8.32922	 18.43502	 -0.99933	 -0.71860	 19.47375	705.18500	 23.30	
 18.700	 90.000	 16.08373	  7.50558	  7.32865	 18.46742	 -1.02370	 -0.76477	 19.45137	705.23199	 23.30	
 18.700	 84.691	 16.10160	  8.43263	  6.38454	 18.42763	 -0.93486	 -0.80094	 19.46364	705.13599	 23.30	
 18.696	 79.417	 16.10125	  9.38737	  5.48106	 18.30982	 -0.88024	 -0.83605	 19.48824	705.15698	 23.30	
 18.690	 74.137	 16.08339	 10.34705	  4.60293	 18.07557	 -0.77691	 -0.86394	 19.48265	705.31403	 23.30	
 18.707	 68.835	 16.06622	 11.27830	  3.77186	 17.73531	 -0.54549	 -0.86645	 19.46322	705.34998	 23.30	
 18.698	 63.496	 16.05530	 12.24668	  3.07904	 17.28556	 -0.27012	 -0.84357	 19.45830	705.30298	 23.30	
 18.700	 58.206	 16.04239	 13.15707	  2.39286	 16.76369	  0.02637	 -0.80859	 19.45809	705.20697	 23.30	
 18.713	 52.933	 16.03485	 14.02377	  1.73275	 16.14382	  0.39157	 -0.77781	 19.46267	705.24597	 23.30	
 18.705	 47.657	 16.03222	 14.84863	  1.11617	 15.44912	  0.83256	 -0.75331	 19.46790	705.18103	 23.30	
 18.699	 42.375	 15.99631	 15.58475	  0.54497	 14.69472	  1.28738	 -0.72944	 19.45078	705.20502	 23.30	
 18.698	 37.048	 15.98651	 16.27324	  0.06441	 13.83873	  1.85367	 -0.69984	 19.45448	705.39001	 23.30	
 18.704	 31.745	 15.97802	 16.87939	 -0.31739	 12.95667	  2.49069	 -0.68058	 19.45433	705.22601	 23.30	
 18.695	 26.463	 15.97515	 17.38826	 -0.66691	 12.03040	  3.19259	 -0.65010	 19.45856	705.26801	 23.30	
 18.706	 21.182	 15.94260	 17.81235	 -1.01418	 11.05882	  3.89828	 -0.61429	 19.45948	705.26001	 23.30	
 18.691	 15.915	 15.95417	 18.14702	 -1.26303	 10.10515	  4.72303	 -0.60609	 19.46271	705.15100	 23.30	
 18.703	 10.559	 15.95074	 18.39209	 -1.40346	  9.11132	  5.56142	 -0.59089	 19.47368	705.29498	 23.30	
 18.709	  5.325	 15.93014	 18.50779	 -1.57844	  8.15744	  6.40376	 -0.60135	 19.45317	705.26099	 23.30	
 18.700	  0.000	 15.96362	 18.56962	 -1.58401	  7.23492	  7.34685	 -0.61425	 19.47030	705.31403	 23.30	
 18.709	 -5.325	 15.93662	 18.52615	 -1.58418	  6.30668	  8.21577	 -0.60869	 19.45825	705.27197	 23.30	
 18.703	-10.559	 15.94507	 18.39682	 -1.49778	  5.43462	  9.17188	 -0.62894	 19.46966	705.15997	 23.30	
 18.691	-15.915	 15.93448	 18.15190	 -1.34066	  4.54017	 10.13263	 -0.62619	 19.45526	705.21301	 23.30	
 18.706	-21.182	 15.93085	 17.84594	 -1.20828	  3.70616	 11.05662	 -0.61909	 19.46601	705.18799	 23.30	
 18.695	-26.463	 15.91026	 17.42558	 -0.97691	  2.95199	 11.96230	 -0.60199	 19.44741	705.34399	 23.30	
 18.704	-31.745	 15.91837	 16.92709	 -0.64658	  2.24651	 12.89928	 -0.58069	 19.46918	705.28302	 23.30	
 18.698	-37.048	 15.90968	 16.29478	 -0.20818	  1.58632	 13.76044	 -0.56802	 19.43477	705.21600	 23.30	
 18.699	-42.375	 15.92026	 15.63373	  0.22127	  1.00375	 14.61630	 -0.56547	 19.45895	705.37000	 23.30	
 18.705	-47.657	 15.90267	 14.87117	  0.67516	  0.39305	 15.37986	 -0.54820	 19.44809	705.12299	 23.30	
 18.713	-52.933	 15.92143	 14.07331	  1.24549	 -0.15273	 16.10949	 -0.52135	 19.47378	705.18103	 23.30	
 18.700	-58.206	 15.93543	 13.20315	  1.90015	 -0.54391	 16.74288	 -0.50455	 19.48867	705.26801	 23.30	
 18.698	-63.496	 15.93245	 12.28147	  2.60706	 -0.84023	 17.25273	 -0.50416	 19.46402	705.21301	 23.30	
 18.707	-68.835	 15.94730	 11.34280	  3.34237	 -1.12619	 17.70488	 -0.50185	 19.46987	705.19897	 23.30	
 18.690	-74.137	 15.95036	 10.38590	  4.11951	 -1.34215	 18.05257	 -0.51289	 19.46404	705.28802	 23.30	
 18.696	-79.417	 15.95445	  9.42505	  4.94851	 -1.54423	 18.31021	 -0.53233	 19.46328	705.15900	 23.30	
 18.700	-84.691	 15.98039	  8.48290	  5.84723	 -1.64237	 18.50143	 -0.56038	 19.48464	705.10498	 23.30	
 18.700	-90.000	 15.98908	  7.52142	  6.80116	 -1.62047	 18.56403	 -0.58206	 19.47714	705.22601	 23.30	
 18.700	-95.309	 15.98791	  6.63129	  7.76293	 -1.61832	 18.55192	 -0.61409	 19.47030	705.23297	 23.30	
 18.696	-100.583	 15.97154	  5.76800	  8.74477	 -1.54568	 18.42211	 -0.67911	 19.44602	705.13702	 23.30	
 18.690	-105.863	 15.99408	  4.92419	  9.72773	 -1.36270	 18.25585	 -0.74352	 19.47149	705.09802	 23.30	
 18.707	-111.165	 15.99300	  4.10154	 10.70957	 -1.19921	 17.97597	 -0.80698	 19.47909	705.24597	 23.30	
 18.698	-116.504	 16.00252	  3.32179	 11.70619	 -0.93952	 17.59825	 -0.84299	 19.49441	705.33099	 23.30	
 18.700	-121.794	 15.96146	  2.59518	 12.61049	 -0.61971	 17.10415	 -0.85203	 19.45874	705.26801	 23.30	
 18.713	-127.067	 15.97787	  1.92890	 13.53312	 -0.16960	 16.54931	 -0.84751	 19.47883	705.29999	 23.40	
 18.705	-132.343	 15.96307	  1.32574	 14.35499	  0.29649	 15.88059	 -0.86679	 19.44787	705.30603	 23.30	
 18.699	-137.625	 16.00750	  0.81470	 15.18012	  0.84710	 15.18428	 -0.88552	 19.48669	705.21198	 23.40	
 18.698	-142.952	 15.99575	  0.38148	 15.87728	  1.45981	 14.38762	 -0.89861	 19.46189	705.32599	 23.40	
 18.704	-148.255	 16.02614	 -0.02081	 16.54642	  2.10357	 13.55429	 -0.90804	 19.47861	705.20697	 23.40	
 18.695	-153.537	 16.02793	 -0.36166	 17.10549	  2.78848	 12.63487	 -0.90182	 19.47288	705.15399	 23.40	
 18.706	-158.818	 16.03120	 -0.62119	 17.55478	  3.53422	 11.73175	 -0.89793	 19.46647	705.29498	 23.40	
 18.691	-164.085	 16.05738	 -0.81178	 17.92483	  4.36278	 10.79703	 -0.87154	 19.46577	705.23798	 23.30	
 18.703	-169.441	 16.06149	 -0.98338	 18.18326	  5.21901	  9.81263	 -0.88952	 19.44265	705.15997	 23.40	
 18.709	-174.675	 16.08096	 -1.08102	 18.35126	  6.08820	  8.86720	 -0.88133	 19.45297	705.18103	 23.40	
 18.700	180.000	 16.09951	 -1.11002	 18.41217	  6.97933	  7.90692	 -0.89459	 19.43407	705.11499	 23.40	
 20.400	180.000	 15.43964	 -2.18580	 18.77754	  6.43464	  7.42814	 -0.84866	 19.45923	705.10797	 23.40	
 20.401	-175.153	 15.39417	 -2.13938	 18.68789	  5.59513	  8.31351	 -0.83314	 19.43102	705.15100	 23.40	
 20.407	-170.264	 15.39092	 -2.08525	 18.56758	  4.70540	  9.25999	 -0.82031	 19.46765	705.15399	 23.40	
 20.410	-165.423	 15.35898	 -1.93607	 18.31706	  3.80485	 10.19659	 -0.80201	 19.45756	705.15399	 23.40	
 20.392	-160.496	 15.34380	 -1.74916	 17.98257	  3.03486	 11.15682	 -0.80536	 19.46191	705.24103	 23.40	
 20.401	-155.705	 15.31673	 -1.53640	 17.55856	  2.28798	 12.07513	 -0.80674	 19.45480	705.17401	 23.40	
 20.405	-150.835	 15.30596	 -1.25907	 17.04746	  1.56391	 12.97909	 -0.82696	 19.46655	705.16699	 23.40	
 20.397	-145.903	 15.29832	 -0.87359	 16.43290	  0.92441	 13.84611	 -0.84246	 19.44505	705.19000	 23.40	
 20.392	-141.062	 15.31289	 -0.46691	 15.78904	  0.32292	 14.67515	 -0.84649	 19.47892	705.13898	 23.40	
 20.396	-136.227	 15.28179	 -0.03574	 15.03488	 -0.24265	 15.43622	 -0.86112	 19.46468	705.11200	 23.40	
 20.408	-131.372	 15.25530	  0.45503	 14.20447	 -0.76087	 16.12309	 -0.85068	 19.43739	705.18103	 23.40	
 20.410	-126.511	 15.26663	  1.02391	 13.37577	 -1.19379	 16.77893	 -0.83426	 19.46205	705.21600	 23.40	
 20.400	-121.604	 15.30323	  1.69070	 12.49088	 -1.58964	 17.34429	 -0.81475	 19.49289	705.17401	 23.40	
 20.403	-116.741	 15.28094	  2.39242	 11.52253	 -1.98288	 17.81219	 -0.78588	 19.47586	705.20898	 23.40	
 20.413	-111.900	 15.27180	  3.14256	 10.56276	 -2.22030	 18.20552	 -0.74650	 19.46717	705.09399	 23.40	
 20.398	-107.004	 15.27379	  3.95711	  9.57822	 -2.42912	 18.50182	 -0.67755	 19.46690	705.09998	 23.40	
 20.394	-102.132	 15.26460	  4.78216	  8.59750	 -2.63668	 18.72110	 -0.62187	 19.46979	705.16199	 23.40	
 20.403	-97.332	 15.26844	  5.64230	  7.65095	 -2.71396	 18.83823	 -0.56160	 19.45510	705.16498	 23.40	
 20.392	-92.440	 15.26614	  6.51381	  6.66906	 -2.72591	 18.88359	 -0.55245	 19.45417	705.28601	 23.40	
 20.392	-87.560	 15.25626	  7.37730	  5.72501	 -2.71283	 18.87685	 -0.53507	 19.48094	705.26898	 23.40	
 20.403	-82.668	 15.23029	  8.32805	  4.80617	 -2.70037	 18.75648	 -0.52630	 19.46102	705.16998	 23.40	
 20.394	-77.868	 15.23592	  9.27761	  3.98640	 -2.57546	 18.56182	 -0.51212	 19.46899	705.16803	 23.40	
 20.398	-72.996	 15.24632	 10.25781	  3.16854	 -2.38250	 18.30794	 -0.48333	 19.49285	705.16699	 23.40	
 20.413	-68.100	 15.21688	 11.20018	  2.41603	 -2.15891	 17.91940	 -0.47365	 19.46604	705.23297	 23.40	
 20.403	-63.259	 15.21832	 12.11130	  1.77875	 -1.85801	 17.46311	 -0.47173	 19.45839	705.21301	 23.40	
 20.400	-58.396	 15.19408	 13.00970	  1.07563	 -1.56063	 16.92841	 -0.47522	 19.44571	705.23999	 23.40	
 20.410	-53.489	 15.19027	 13.90725	  0.38327	 -1.15631	 16.30487	 -0.48567	 19.45200	705.11499	 23.40	
 20.408	-48.628	 15.21050	 14.74570	 -0.13950	 -0.64381	 15.64447	 -0.51247	 19.47426	705.03497	 23.40	
 20.396	-43.773	 15.21772	 15.50781	 -0.59765	 -0.15526	 14.88236	 -0.52087	 19.46079	705.06299	 23.40	
 20.392	-38.938	 15.20262	 16.18082	 -0.99356	  0.35536	 14.07077	 -0.54605	 19.44806	705.08801	 23.40	
 20.397	-34.097	 15.23319	 16.84928	 -1.39526	  0.99048	 13.23170	 -0.55441	 19.47690	705.18799	 23.40	
 20.405	-29.165	 15.23472	 17.41772	 -1.72082	  1.69964	 12.32816	 -0.56002	 19.48077	705.26398	 23.40	
 20.401	-24.295	 15.23990	 17.86710	 -1.98405	  2.44496	 11.40662	 -0.58038	 19.47055	705.21503	 23.40	
 20.392	-19.504	 15.22768	 18.22667	 -2.16106	  3.18734	 10.47590	 -0.60047	 19.45417	705.18103	 23.40	
 20.410	-14.577	 15.22417	 18.51960	 -2.32933	  3.99145	  9.52417	 -0.59849	 19.45263	705.19800	 23.40	
 20.407	 -9.736	 15.22804	 18.71639	 -2.47248	  4.87173	  8.58556	 -0.56862	 19.44555	705.16498	 23.40	
 20.401	 -4.847	 15.23632	 18.85605	 -2.55997	  5.77422	  7.68819	 -0.56489	 19.46765	705.10498	 23.40	
 20.400	  0.000	 15.24599	 18.88523	 -2.54467	  6.70504	  6.80275	 -0.57703	 19.46309	705.04303	 23.40	
 20.401	  4.847	 15.25009	 18.84232	 -2.53726	  7.66028	  5.88784	 -0.56090	 19.45159	705.04901	 23.40	
 20.407	  9.736	 15.24090	 18.72562	 -2.52814	  8.54395	  5.00351	 -0.57206	 19.45504	705.17401	 23.40	
 20.410	 14.577	 15.25499	 18.51000	 -2.39419	  9.53898	  4.15176	 -0.55249	 19.45225	705.07202	 23.50	
 20.392	 19.504	 15.26825	 18.23576	 -2.23313	 10.50169	  3.35993	 -0.55223	 19.47513	705.21301	 23.40	
 20.401	 24.295	 15.25346	 17.82685	 -2.01268	 11.40682	  2.63958	 -0.55784	 19.43812	705.03900	 23.50	
 20.405	 29.165	 15.27566	 17.35270	 -1.65797	 12.38188	  1.92535	 -0.58508	 19.45737	705.02399	 23.50	
 20.397	 34.097	 15.29152	 16.79048	 -1.22635	 13.31777	  1.28354	 -0.62408	 19.46306	705.11902	 23.50	
 20.392	 38.938	 15.31914	 16.17324	 -0.80939	 14.18615	  0.72561	 -0.66800	 19.48449	705.12201	 23.50	
 20.396	 43.773	 15.33345	 15.46082	 -0.31120	 14.98373	  0.23316	 -0.71688	 19.46207	705.07800	 23.50	
 20.408	 48.628	 15.34096	 14.70932	  0.21807	 15.73588	 -0.23043	 -0.75716	 19.47443	705.11499	 23.50	
 20.410	 53.489	 15.30866	 13.86189	  0.79744	 16.40084	 -0.67960	 -0.78497	 19.44230	705.09100	 23.50	
 20.400	 58.396	 15.35887	 13.02391	  1.46595	 17.03690	 -1.07378	 -0.81574	 19.49085	705.06702	 23.50	
 20.403	 63.259	 15.36697	 12.09899	  2.07144	 17.54268	 -1.34975	 -0.83453	 19.47618	705.08899	 23.50	
 20.413	 68.100	 15.37692	 11.19007	  2.80076	 17.98195	 -1.60496	 -0.85231	 19.48580	705.00800	 23.50	
 20.398	 72.996	 15.36697	 10.20471	  3.62698	 18.31917	 -1.81281	 -0.83661	 19.46800	705.07800	 23.50	
 20.394	 77.868	 15.37490	  9.23198	  4.49065	 18.56138	 -1.91877	 -0.80867	 19.44773	705.00500	 23.50	
 20.403	 82.668	 15.38594	  8.32118	  5.37322	 18.72130	 -1.98137	 -0.75705	 19.44555	705.04901	 23.50	
 20.392	 87.560	 15.41160	  7.41606	  6.28656	 18.82248	 -2.01815	 -0.69287	 19.46499	705.11200	 23.50	
 20.392	 92.440	 15.41573	  6.50998	  7.25602	 18.81232	 -2.02217	 -0.66373	 19.46175	705.01801	 23.50	
 20.403	 97.332	 15.41227	  5.63225	  8.23903	 18.72339	 -2.02186	 -0.62606	 19.45513	705.11102	 23.50	
 20.394	102.132	 15.44374	  4.79271	  9.14225	 18.54236	 -1.83776	 -0.63939	 19.46064	705.16699	 23.50	
 20.398	107.004	 15.43039	  3.95012	 10.08336	 18.25387	 -1.69297	 -0.66496	 19.44259	704.92297	 23.50	
 20.413	111.900	 15.47007	  3.14695	 11.07973	 17.93077	 -1.47447	 -0.69399	 19.47755	705.22400	 23.50	
 20.403	116.741	 15.48883	  2.37509	 12.01096	 17.47899	 -1.20310	 -0.75358	 19.46919	705.09497	 23.50	
 20.400	121.604	 15.51618	  1.69410	 12.94803	 16.94196	 -0.90415	 -0.77620	 19.47230	705.05200	 23.50	
 20.410	126.511	 15.52234	  1.02264	 13.84884	 16.31557	 -0.50869	 -0.81515	 19.48311	705.10602	 23.50	
 20.408	131.372	 15.51705	  0.42858	 14.67356	 15.59201	 -0.00328	 -0.84930	 19.44792	705.04401	 23.50	
 20.396	136.227	 15.53461	 -0.09162	 15.43489	 14.81301	  0.56682	 -0.85272	 19.43854	704.96301	 23.50	
 20.392	141.062	 15.57304	 -0.53992	 16.16463	 14.02216	  1.15346	 -0.88717	 19.47142	705.08899	 23.50	
 20.397	145.903	 15.55725	 -0.91688	 16.76989	 13.15860	  1.77158	 -0.91583	 19.45117	705.07397	 23.50	
 20.405	150.835	 15.55558	 -1.25561	 17.33770	 12.22505	  2.46246	 -0.93016	 19.45088	705.09998	 23.50	
 20.401	155.705	 15.55635	 -1.53722	 17.81808	 11.27518	  3.21663	 -0.93558	 19.46581	705.31897	 23.50	
 20.392	160.496	 15.53352	 -1.76573	 18.17852	 10.33430	  3.92710	 -0.92427	 19.45704	705.17401	 23.50	
 20.410	165.423	 15.51318	 -1.96864	 18.45037	  9.33473	  4.79352	 -0.92711	 19.45464	705.08600	 23.50	
 20.407	170.264	 15.49789	 -2.13272	 18.65572	  8.36701	  5.65404	 -0.89885	 19.47394	705.23199	 23.50	
 20.401	175.153	 15.46292	 -2.18801	 18.74818	  7.39844	  6.52488	 -0.89448	 19.45186	705.16699	 23.50	
  0.141	 45.000	 19.46737	 10.76735	 10.38825	 10.39189	 10.77088	  0.15543	 19.44961	705.07001	 23.50	
  4.001	128.691	 19.42822	  9.22605	 11.77279	 12.02901	  9.03215	  0.09840	 19.46170	705.09497	 23.50	
  4.002	 76.995	 19.40962	 11.07398	  9.80092	 12.49629	  8.54584	  0.07975	 19.45107	705.25403	 23.50	
  4.002	 25.892	 19.40021	 12.65149	  8.33508	 11.22031	  9.63625	  0.07058	 19.44506	705.15002	 23.50	
  4.002	-25.892	 19.39189	 12.64996	  8.32212	  9.25063	 11.57712	  0.05864	 19.44771	705.09802	 23.50	
  4.002	-76.995	 19.41466	 11.07265	  9.71076	  8.08300	 12.90798	  0.04020	 19.46354	705.08899	 23.50	
  4.001	-128.691	 19.40130	  9.22315	 11.69331	  8.45441	 12.51727	  0.07070	 19.45164	705.31598	 23.50	
  4.000	180.000	 19.40554	  8.44129	 12.62739	 10.14444	 10.75684	  0.09054	 19.44523	705.07001	 23.50	
  8.000	180.000	 19.02652	  5.96109	 14.68160	  9.66728	 10.32718	 -0.19292	 19.46231	705.15997	 23.60	
  7.991	-152.370	 18.97595	  6.36827	 13.99625	  7.57727	 12.46591	 -0.20454	 19.43433	705.15900	 23.50	
  7.997	-124.550	 18.98662	  7.59337	 12.36910	  6.03967	 14.17940	 -0.23287	 19.44894	705.21802	 23.50	
  8.006	-96.837	 18.96867	  9.55406	 10.16654	  5.36180	 14.98640	 -0.29457	 19.44578	705.26898	 23.60	
  7.988	-69.228	 18.97422	 11.71884	  8.12988	  5.61074	 14.60055	 -0.31331	 19.46160	705.16498	 23.60	
  7.997	-41.563	 18.95282	 13.63094	  6.52542	  6.76875	 13.18761	 -0.25855	 19.43828	705.14697	 23.50	
  8.008	-13.821	 18.94685	 14.76560	  5.58876	  8.69169	 11.06847	 -0.24488	 19.42992	705.03900	 23.60	
  8.008	 13.821	 18.98247	 14.77787	  5.69412	 10.87306	  8.92471	 -0.21964	 19.46203	705.18799	 23.60	
  7.997	 41.563	 19.01817	 13.65550	  6.71514	 12.97313	  7.28276	 -0.19385	 19.47567	705.13599	 23.60	
  7.988	 69.228	 19.01873	 11.71539	  8.33828	 14.32188	  6.26130	 -0.19361	 19.46411	705.19800	 23.60	
  8.006	 96.837	 19.02297	  9.54623	 10.37933	 14.59724	  6.11469	 -0.21793	 19.45924	705.18103	 23.60	
  7.997	124.550	 19.05167	  7.58457	 12.56702	 13.73840	  6.81461	 -0.19429	 19.47363	705.18500	 23.60	
  7.991	152.370	 19.06671	  6.40039	 14.12371	 11.89528	  8.28567	 -0.17931	 19.47478	705.19299	 23.60	
 12.009	161.059	 18.27262	  3.62369	 16.03423	 11.17528	  7.51181	 -0.53555	 19.45505	705.24701	 23.60	
 12.013	142.081	 18.27511	  4.45460	 14.86803	 13.38202	  5.73916	 -0.52110	 19.45688	705.17297	 23.60	
 12.006	123.113	 18.26900	  5.88599	 13.05944	 15.10013	  4.40777	 -0.59005	 19.46376	705.19098	 23.60	
 12.007	104.200	 18.23184	  7.68625	 10.84228	 16.11939	  3.61525	 -0.64628	 19.43748	705.22998	 23.60	
 11.989	 85.301	 18.22544	  9.87110	  8.58739	 16.33865	  3.39911	 -0.60064	 19.44523	705.12201	 23.60	
 12.013	 66.294	 18.20288	 12.13705	  6.57980	 15.74323	  3.74673	 -0.53368	 19.44903	705.09497	 23.60	
 12.012	 47.388	 18.19314	 14.17504	  4.79127	 14.37917	  4.74764	 -0.50888	 19.46305	705.28802	 23.60	
 11.990	 28.440	 18.16196	 15.67639	  3.50720	 12.40983	  6.25588	 -0.58454	 19.45192	705.20502	 23.60	
 11.991	  9.464	 18.13728	 16.45908	  2.87089	 10.17503	  8.12006	 -0.59051	 19.44111	705.19897	 23.60	
 11.991	 -9.464	 18.15861	 16.49720	  2.86424	  7.89573	 10.29404	 -0.57638	 19.47530	705.29102	 23.60	
 11.990	-28.440	 18.11214	 15.67305	  3.37489	  5.89627	 12.53367	 -0.55679	 19.44486	705.18402	 23.60	
 12.012	-47.388	 18.11639	 14.19197	  4.46285	  4.26614	 14.48882	 -0.62069	 19.45784	705.25702	 23.60	
 12.013	-66.294	 18.11725	 12.15004	  6.24573	  3.13293	 15.89955	 -0.67654	 19.44432	705.18201	 23.60	
 11.989	-85.301	 18.14235	  9.90351	  8.29185	  2.64085	 16.52977	 -0.68113	 19.43036	705.20898	 23.60	
 12.007	-104.200	 18.14721	  7.67373	 10.49198	  2.77507	 16.43314	 -0.65854	 19.43769	705.20697	 23.60	
 12.006	-123.113	 18.14216	  5.86740	 12.73121	  3.47591	 15.57019	 -0.57594	 19.44841	705.10797	 23.60	
 12.013	-142.081	 18.17047	  4.42367	 14.65604	  4.89625	 13.98773	 -0.55918	 19.48046	705.24597	 23.60	
 12.009	-161.059	 18.19054	  3.55710	 15.92890	  6.71502	 11.89272	 -0.60340	 19.46557	705.20697	 23.60	
 16.000	180.000	 17.08056	  0.62301	 17.72868	  7.82038	  8.70280	 -0.88208	 19.45747	705.13702	 23.60	
 15.990	-165.604	 17.00240	  0.80871	 17.32028	  5.69589	 10.93872	 -0.91324	 19.42765	705.15399	 23.60	
 16.002	-151.165	 16.98750	  1.38482	 16.35675	  3.80648	 13.15486	 -0.90956	 19.45662	705.18799	 23.60	
 16.002	-136.836	 16.94324	  2.46076	 14.80219	  2.17862	 15.06159	 -0.83057	 19.43814	705.22400	 23.60	
 15.995	-122.439	 16.95797	  3.93532	 12.81667	  1.00816	 16.55745	 -0.83236	 19.44188	705.21802	 23.60	
 15.993	-107.966	 16.96539	  5.74820	 10.56575	  0.35701	 17.54357	 -0.83483	 19.46409	705.15698	 23.60	
 16.005	-93.629	 16.94576	  7.71658	  8.27038	  0.07813	 17.91370	 -0.74330	 19.44965	705.25201	 23.60	
 15.992	-79.234	 16.90998	  9.97786	  6.03250	  0.14052	 17.67820	 -0.66014	 19.44008	705.15302	 23.60	
 16.009	-64.774	 16.90057	 12.25992	  4.05895	  0.71608	 16.85609	 -0.65875	 19.45279	705.15900	 23.60	
 15.997	-50.364	 16.89950	 14.32286	  2.60988	  1.72409	 15.47838	 -0.67001	 19.44080	705.29999	 23.60	
 15.997	-36.045	 16.89798	 16.02250	  1.39983	  3.07356	 13.63307	 -0.67103	 19.44983	705.26001	 23.60	
 16.000	-21.597	 16.92908	 17.23590	  0.57773	  4.89598	 11.50496	 -0.71263	 19.47901	705.23798	 23.60	
 16.003	 -7.169	 16.90234	 17.79035	  0.25313	  6.89717	  9.23568	 -0.71158	 19.42857	705.13098	 23.60	
 16.003	  7.169	 16.91688	 17.80663	  0.25387	  9.15465	  7.08981	 -0.70883	 19.44567	705.19000	 23.60	
 16.000	 21.597	 16.94014	 17.19951	  0.70146	 11.42446	  5.13904	 -0.75535	 19.44413	705.08600	 23.60	
 15.997	 36.045	 16.98671	 16.04116	  1.58354	 13.60922	  3.46501	 -0.78402	 19.48026	705.28601	 23.60	
 15.997	 50.364	 16.99905	 14.30448	  2.89552	 15.46658	  2.15803	 -0.75285	 19.45249	705.33099	 23.70	
 16.009	 64.774	 17.03317	 12.25865	  4.55245	 16.83772	  1.29828	 -0.79941	 19.47374	705.34998	 23.60	
 15.992	 79.234	 17.03796	  9.98955	  6.55756	 17.59686	  0.72121	 -0.85338	 19.45653	705.24902	 23.60	
 16.005	 93.629	 17.05780	  7.74261	  8.69481	 17.74357	  0.68352	 -0.86325	 19.45631	705.22302	 23.60	
 15.993	107.966	 17.09148	  5.75862	 10.95763	 17.25431	  1.04463	 -0.86828	 19.45895	705.31702	 23.60	
 15.995	122.439	 17.13502	  3.93329	 13.23542	 16.14548	  1.88854	 -0.87994	 19.47241	705.19000	 23.60	
 16.002	136.836	 17.15049	  2.49110	 15.14509	 14.49697	  3.03707	 -0.81644	 19.45842	705.24103	 23.70	
 16.002	151.165	 17.16069	  1.47475	 16.59088	 12.44995	  4.65487	 -0.83038	 19.46692	705.33002	 23.60	
 15.990	165.604	 17.15921	  0.80753	 17.47974	 10.16591	  6.63973	 -0.86189	 19.48338	705.26300	 23.60	
 20.003	168.362	 15.65206	 -1.83540	 18.50220	  8.82856	  5.48045	 -0.92688	 19.45330	705.41998	 23.70	
 20.008	156.764	 15.70241	 -1.36648	 17.83905	 11.11768	  3.57469	 -0.95235	 19.46428	705.29901	 23.70	
 20.000	145.147	 15.72858	 -0.63269	 16.66094	 13.31607	  1.88185	 -0.92589	 19.47406	705.32202	 23.70	
 19.995	133.545	 15.69644	  0.40118	 15.02670	 15.24797	  0.46884	 -0.86632	 19.44743	705.33698	 23.70	
 20.009	121.926	 15.66027	  1.83328	 13.03317	 16.84986	 -0.62916	 -0.79933	 19.46540	705.38098	 23.70	
 20.005	110.327	 15.61016	  3.59212	 10.82704	 17.94670	 -1.29275	 -0.69141	 19.44266	705.26099	 23.70	
 19.989	 98.733	 15.59888	  5.55698	  8.62349	 18.59518	 -1.71176	 -0.64649	 19.45575	705.28601	 23.70	
 19.999	 87.075	 15.57505	  7.61654	  6.36223	 18.71139	 -1.71047	 -0.72326	 19.44220	705.22900	 23.70	
 19.992	 75.457	 15.55070	  9.81449	  4.25581	 18.37337	 -1.56971	 -0.84258	 19.46575	705.37799	 23.70	
 20.009	 63.844	 15.52318	 12.02026	  2.37816	 17.52878	 -1.08433	 -0.86537	 19.45842	705.37799	 23.70	
 19.989	 52.269	 15.48744	 14.06462	  0.93383	 16.17844	 -0.27350	 -0.79050	 19.42623	705.20898	 23.70	
 19.999	 40.602	 15.45713	 15.89434	 -0.41074	 14.42661	  0.76372	 -0.70388	 19.44587	705.35699	 23.70	
 20.004	 29.051	 15.45112	 17.33309	 -1.43918	 12.37995	  2.18183	 -0.61709	 19.46628	705.19598	 23.70	
 20.005	 17.433	 15.42857	 18.28446	 -2.05139	 10.16502	  3.89831	 -0.56782	 19.46250	705.07001	 23.60	
 20.006	  5.780	 15.39598	 18.73939	 -2.35904	  7.88637	  5.85655	 -0.59309	 19.43326	705.18103	 23.70	
 20.006	 -5.780	 15.39806	 18.74860	 -2.29866	  5.75164	  7.96229	 -0.58718	 19.45323	705.24902	 23.70	
 20.005	-17.433	 15.38935	 18.28167	 -2.01125	  3.70656	 10.14260	 -0.61900	 19.44265	705.19299	 23.70	
 20.004	-29.051	 15.37358	 17.34632	 -1.52955	  1.94050	 12.31193	 -0.57215	 19.44954	705.23602	 23.60	
 19.999	-40.602	 15.36470	 15.93834	 -0.65698	  0.40953	 14.33913	 -0.54429	 19.44298	705.17798	 23.60	
 19.989	-52.269	 15.34740	 14.11506	  0.46352	 -0.80403	 16.08417	 -0.50919	 19.42868	705.26001	 23.60	
 20.009	-63.844	 15.36996	 12.04476	  2.03291	 -1.64944	 17.45469	 -0.50205	 19.43965	705.20898	 23.60	
 19.992	-75.457	 15.39967	  9.86723	  3.74809	 -2.20700	 18.34394	 -0.52185	 19.45327	705.05701	 23.70	
 19.999	-87.075	 15.41615	  7.61730	  5.77862	 -2.45057	 18.76886	 -0.55922	 19.44024	705.15900	 23.60	
 19.989	-98.733	 15.43011	  5.56410	  8.02058	 -2.44329	 18.72444	 -0.62390	 19.44878	705.23602	 23.70	
 20.005	-110.327	 15.43673	  3.61092	 10.30531	 -2.03333	 18.23546	 -0.77169	 19.45532	705.26398	 23.70	
 20.009	-121.926	 15.45283	  1.87943	 12.54492	 -1.34945	 17.26382	 -0.85505	 19.46239	705.14502	 23.70	
 19.995	-133.545	 15.45534	  0.45742	 14.59077	 -0.30677	 15.82447	 -0.89192	 19.46225	705.22400	 23.70	
 20.000	-145.147	 15.45364	 -0.57232	 16.28502	  1.02632	 14.00802	 -0.87891	 19.45473	705.28802	 23.70	
 20.008	-156.764	 15.46929	 -1.35241	 17.57775	  2.63517	 11.91223	 -0.84297	 19.43198	705.20898	 23.70	
 20.003	-168.362	 15.52733	 -1.77613	 18.38180	  4.49105	  9.71645	 -0.85209	 19.44508	705.25500	 23.60	
 20.000	180.000	 15.59264	 -1.90915	 18.67489	  6.54940	  7.53202	 -0.89245	 19.44587	705.26300	 23.70	
