FileType=PCF
NHL=14
Date=05/31/19	13:18:46
Facility=APL
Serial=16071-14
Customer=NASA
NP=6
Mach=0.380000
Calibration=1:1
CalPts=490
TstPts=95
PortNumbering=AP Standard
Units=Torr C m/s kg/m^3 deg mm 
Theta[deg]	Phi[deg]	P1[Torr]	P2[Torr]	P3[Torr]	P4[Torr]	P5[Torr]	P6[Torr]	Pt[Torr]	Ps[Abs,Torr]	Ts[C]	
  0.000	  0.000	 74.08809	 30.57844	 33.98171	 32.21693	 31.29100	  1.49790	 73.92528	701.32001	 40.40	
  1.691	128.401	 74.07017	 27.62037	 36.83353	 34.92681	 28.30379	  1.38943	 73.96725	701.34003	 40.50	
  1.692	 77.194	 74.15189	 30.84838	 33.50175	 36.20675	 27.19518	  1.46959	 74.00227	701.40002	 40.50	
  1.699	 26.182	 74.13646	 34.00632	 30.29785	 34.43167	 28.92849	  1.51965	 73.97279	701.39001	 40.60	
  1.699	-26.182	 74.14933	 34.46664	 29.91653	 30.87640	 32.72384	  1.52626	 73.99154	701.28003	 40.60	
  1.692	-77.194	 74.15723	 31.85526	 32.53885	 28.31641	 35.30881	  1.45861	 73.98540	701.35999	 40.70	
  1.691	-128.401	 74.17116	 28.40065	 36.12186	 28.55645	 34.94672	  1.41560	 74.03127	701.34998	 40.70	
  1.700	180.000	 74.07150	 26.50661	 38.01263	 31.53290	 31.67847	  1.36181	 73.97441	701.34003	 40.70	
  3.400	180.000	 73.82034	 22.39887	 41.68156	 30.63819	 31.81070	  1.13541	 74.02119	701.42999	 40.80	
  3.388	-152.325	 73.83675	 23.68360	 40.35164	 27.02993	 35.66983	  1.18039	 73.96776	701.35999	 40.80	
  3.397	-124.529	 73.98369	 26.50409	 37.50367	 24.70862	 38.43403	  1.24533	 74.03127	701.35999	 40.90	
  3.399	-96.763	 74.08267	 30.20102	 33.65704	 23.92827	 39.44108	  1.28520	 74.03784	701.31000	 40.90	
  3.394	-69.283	 74.13661	 34.10476	 29.75185	 24.86935	 38.54512	  1.33873	 74.03041	701.23999	 41.00	
  3.400	-41.398	 74.16747	 37.21780	 26.90227	 27.31642	 35.93228	  1.38370	 74.03813	701.28998	 41.00	
  3.401	-14.021	 74.18253	 38.68531	 25.59270	 31.00423	 32.13420	  1.43797	 74.03606	701.31000	 41.00	
  3.401	 14.021	 74.16051	 38.14962	 26.03326	 34.94102	 28.04827	  1.43855	 74.03384	701.16998	 41.10	
  3.400	 41.398	 74.14427	 35.86547	 28.07890	 38.09702	 24.96116	  1.38742	 74.07001	701.31000	 41.10	
  3.394	 69.283	 74.05924	 32.21408	 31.39367	 39.83700	 23.25025	  1.30609	 74.07977	701.28003	 41.20	
  3.399	 96.763	 74.00355	 28.32164	 35.50638	 39.78537	 23.23986	  1.19744	 74.09122	701.22998	 41.20	
  3.397	124.529	 73.99561	 24.98262	 39.08193	 37.91528	 24.94156	  1.11768	 74.14891	701.26001	 41.30	
  3.388	152.325	 73.93026	 22.90900	 41.20877	 34.63032	 28.02364	  1.11109	 74.12154	701.21997	 41.30	
  5.099	161.165	 73.34230	 18.34001	 45.12896	 33.71065	 27.88369	  0.73737	 74.12514	701.20001	 41.30	
  5.109	142.013	 73.35826	 19.71925	 43.44529	 37.57224	 24.24347	  0.70995	 74.10947	701.17999	 41.40	
  5.095	123.033	 73.44457	 22.21657	 40.80827	 40.65845	 21.43887	  0.74974	 74.10433	701.26001	 41.40	
  5.105	104.191	 73.53350	 25.46106	 37.48970	 42.86962	 19.58794	  0.79689	 74.12022	701.22998	 41.50	
  5.093	 85.207	 73.61904	 29.25788	 33.41607	 43.80023	 18.86225	  0.89121	 74.09349	701.26001	 41.50	
  5.104	 66.290	 73.76265	 33.38802	 29.39234	 43.40676	 19.26053	  0.99595	 74.13651	701.37000	 41.50	
  5.094	 47.331	 73.86945	 37.16706	 25.98533	 41.58431	 20.92262	  1.08978	 74.12340	701.28003	 41.60	
  5.089	 28.397	 73.96964	 40.13659	 23.36997	 38.75877	 23.57978	  1.16319	 74.13629	701.27002	 41.60	
  5.096	  9.576	 74.07773	 42.01661	 21.81345	 35.20998	 27.11786	  1.21054	 74.17424	701.25000	 41.60	
  5.096	 -9.576	 74.08908	 42.54017	 21.39481	 31.08801	 31.15724	  1.19347	 74.13185	701.29999	 41.70	
  5.089	-28.397	 74.10237	 41.66401	 22.15594	 27.14058	 35.31124	  1.16019	 74.16810	701.15002	 41.70	
  5.094	-47.331	 74.01588	 39.45761	 24.04342	 23.80990	 38.85513	  1.07562	 74.12941	701.21002	 41.70	
  5.104	-66.290	 73.97608	 36.21498	 26.96736	 21.33080	 41.49973	  1.02567	 74.14272	701.13000	 41.80	
  5.093	-85.207	 73.86811	 32.24339	 30.56256	 19.99678	 42.90388	  0.97283	 74.09834	701.17999	 41.80	
  5.105	-104.191	 73.79875	 28.23462	 34.76417	 19.81568	 43.04388	  0.96195	 74.15443	701.17999	 41.80	
  5.095	-123.033	 73.68022	 24.55466	 38.63813	 20.86484	 41.68134	  0.94670	 74.13815	701.10999	 41.80	
  5.109	-142.013	 73.58511	 21.36761	 41.95127	 22.86017	 39.31526	  0.88742	 74.18031	701.09998	 41.90	
  5.099	-161.165	 73.50109	 19.22168	 44.29509	 25.90651	 35.87694	  0.83097	 74.18797	701.15002	 41.90	
  5.100	180.000	 73.42365	 18.22847	 45.40044	 29.53585	 31.80568	  0.75224	 74.20734	701.27002	 41.90	
  6.800	180.000	 72.58651	 13.98025	 48.62810	 28.32022	 31.56791	  0.30511	 74.17043	701.17999	 42.00	
  6.796	-166.229	 72.64036	 14.75326	 47.81366	 24.74501	 35.59073	  0.37700	 74.17362	701.19000	 42.00	
  6.808	-152.311	 72.75294	 16.43963	 46.04990	 21.57638	 39.26272	  0.46949	 74.16592	701.13000	 42.10	
  6.795	-138.383	 72.89549	 18.86932	 43.32585	 18.99139	 42.25350	  0.48436	 74.21651	701.16998	 42.10	
  6.792	-124.591	 73.00497	 21.88885	 40.12856	 17.08022	 44.66486	  0.48045	 74.20146	701.19000	 42.10	
  6.787	-110.754	 73.11703	 25.40950	 36.40166	 15.92852	 46.22306	  0.52473	 74.17068	701.22998	 42.20	
  6.800	-96.985	 73.24270	 29.05982	 32.26922	 15.45913	 46.80247	  0.48051	 74.18034	701.19000	 42.20	
  6.800	-83.015	 73.37228	 32.98858	 28.53129	 15.88284	 46.40029	  0.49402	 74.19998	701.22998	 42.20	
  6.787	-69.246	 73.46093	 36.85561	 25.08389	 17.15706	 44.94599	  0.53636	 74.17551	701.19000	 42.20	
  6.792	-55.409	 73.58659	 40.26286	 22.09870	 19.18596	 42.67196	  0.56627	 74.22478	701.17999	 42.20	
  6.795	-41.617	 73.60957	 43.01271	 19.74833	 21.87375	 39.73035	  0.62297	 74.18588	701.14001	 42.30	
  6.808	-27.689	 73.65196	 45.04535	 18.04268	 25.19771	 36.09211	  0.73055	 74.17926	701.26001	 42.30	
  6.796	-13.771	 73.66463	 46.08043	 17.14740	 28.96519	 31.85819	  0.76950	 74.20268	701.21002	 42.30	
  6.800	  0.000	 73.64075	 46.13416	 17.10726	 33.07833	 27.98108	  0.78114	 74.21804	701.17999	 42.40	
  6.796	 13.771	 73.62561	 45.14309	 17.92922	 36.93945	 24.26575	  0.84063	 74.24129	701.21002	 42.40	
  6.808	 27.689	 73.49464	 43.14651	 19.53738	 40.38987	 20.92018	  0.79111	 74.20419	701.19000	 42.40	
  6.795	 41.617	 73.39952	 40.30575	 21.92570	 43.41044	 18.21669	  0.57244	 74.20821	701.26001	 42.50	
  6.792	 55.409	 73.33372	 36.97860	 24.92842	 45.85073	 16.21104	  0.60355	 74.24601	701.16998	 42.50	
  6.787	 69.246	 73.21502	 33.08481	 28.35596	 47.12792	 15.02147	  0.52469	 74.25867	701.15002	 42.50	
  6.800	 83.015	 73.08061	 29.13528	 32.08267	 47.50560	 14.58172	  0.42603	 74.22941	701.20001	 42.50	
  6.800	 96.985	 73.00803	 25.36692	 36.25035	 47.02461	 15.02632	  0.33980	 74.26957	701.28998	 42.60	
  6.787	110.754	 72.95101	 21.97896	 39.97818	 45.52319	 16.29068	  0.28173	 74.30701	701.32001	 42.60	
  6.792	124.591	 72.82302	 18.95465	 43.05208	 43.01627	 18.20657	  0.25307	 74.26656	701.26001	 42.60	
  6.795	138.383	 72.72775	 16.51742	 45.78360	 39.94695	 20.85465	  0.17572	 74.24994	701.27002	 42.60	
  6.808	152.311	 72.69249	 14.89076	 47.84427	 36.46900	 24.11403	  0.23300	 74.27840	701.21002	 42.70	
  6.796	166.229	 72.65544	 14.00334	 48.65844	 32.41129	 27.77728	  0.23332	 74.26075	701.17999	 42.70	
  8.491	168.704	 71.55499	  9.68575	 52.14639	 30.90980	 27.30518	 -0.30717	 74.27100	701.12000	 42.70	
  8.502	157.493	 71.52074	 10.23149	 51.35403	 35.08641	 23.50426	 -0.64833	 74.22144	701.28003	 42.70	
  8.494	146.194	 71.62553	 11.57566	 49.71803	 38.96501	 20.05182	 -0.36737	 74.25636	701.20001	 42.80	
  8.495	135.039	 71.71499	 13.42947	 47.67064	 42.33606	 17.02158	 -0.72337	 74.27736	701.14001	 42.80	
  8.487	123.723	 71.78992	 15.86008	 44.79930	 45.56043	 14.49234	 -0.63308	 74.26254	701.21997	 42.80	
  8.492	112.575	 71.89849	 18.83997	 41.51009	 47.95492	 12.58255	 -0.65492	 74.27843	701.23999	 42.80	
  8.510	101.220	 71.98868	 22.22561	 37.76725	 49.75629	 11.12809	 -0.41565	 74.27344	701.23999	 42.80	
  8.500	 90.000	 72.13091	 25.92466	 33.61858	 50.74767	 10.42638	 -0.22328	 74.30119	701.28998	 42.90	
  8.510	 78.780	 72.24007	 29.82310	 29.65612	 51.05036	 10.27239	 -0.11379	 74.31033	701.27002	 42.90	
  8.492	 67.425	 72.33415	 33.85796	 25.86769	 50.32028	 10.86232	 -0.01758	 74.27766	701.21002	 42.90	
  8.487	 56.277	 72.47275	 37.77870	 22.53546	 48.84180	 12.10073	  0.05128	 74.27316	701.21997	 42.90	
  8.495	 44.961	 72.57237	 41.29264	 19.47941	 46.70964	 13.97349	 -0.11348	 74.23349	701.21002	 42.90	
  8.494	 33.806	 72.71384	 44.48256	 16.92886	 43.78260	 16.45394	  0.04791	 74.27212	701.26001	 43.00	
  8.502	 22.507	 72.82417	 46.97210	 14.82058	 40.46053	 19.46008	  0.34255	 74.30319	701.27002	 43.00	
  8.491	 11.296	 72.91107	 48.55953	 13.54470	 36.80048	 22.92848	  0.38221	 74.28215	701.27002	 43.00	
  8.500	  0.000	 72.93666	 49.46492	 12.78447	 32.70160	 26.73196	  0.32150	 74.24046	701.22998	 43.00	
  8.491	-11.296	 72.97534	 49.54133	 12.67825	 28.55183	 30.68400	  0.26323	 74.27080	701.19000	 43.00	
  8.502	-22.507	 73.01867	 48.84135	 13.33501	 24.77166	 34.90346	  0.24721	 74.28141	701.21002	 43.10	
  8.494	-33.806	 73.02855	 47.32197	 14.67587	 21.23078	 38.93272	  0.10171	 74.34419	701.26001	 43.10	
  8.495	-44.961	 72.92483	 45.00449	 16.63836	 18.09069	 42.33975	 -0.21634	 74.26620	701.27002	 43.10	
  8.487	-56.277	 72.84744	 42.02850	 19.13096	 15.53280	 45.25515	 -0.03565	 74.26308	701.21997	 43.10	
  8.492	-67.425	 72.73444	 38.59443	 22.00270	 13.49374	 47.62528	 -0.06082	 74.25264	701.26001	 43.10	
  8.510	-78.780	 72.61206	 34.68347	 25.36332	 12.07946	 49.21335	 -0.08129	 74.26215	701.21002	 43.20	
  8.500	-90.000	 72.55853	 30.68313	 29.08965	 11.49765	 50.06722	 -0.11452	 74.31040	701.34998	 43.20	
  8.510	-101.220	 72.40533	 26.84348	 32.87443	 11.30086	 50.07653	 -0.08981	 74.27068	701.22998	 43.20	
  8.492	-112.575	 72.24046	 23.04597	 37.09573	 11.85764	 49.17099	 -0.02504	 74.25191	701.23999	 43.20	
  8.487	-123.723	 72.10514	 19.57659	 40.91519	 13.05581	 47.70122	 -0.10097	 74.24000	701.21997	 43.20	
  8.495	-135.039	 71.96600	 16.52723	 44.21331	 14.76151	 45.51815	 -0.03889	 74.24187	701.26001	 43.20	
  8.494	-146.194	 71.87813	 13.95752	 47.22388	 17.09933	 42.61517	 -0.02494	 74.27216	701.21997	 43.20	
  8.502	-157.493	 71.75378	 11.89570	 49.39656	 20.02460	 39.20953	 -0.03607	 74.24841	701.32001	 43.20	
  8.491	-168.704	 71.69415	 10.57614	 51.15402	 23.39826	 35.33386	 -0.09257	 74.28507	701.34003	 43.20	
  8.500	180.000	 71.57024	  9.80349	 52.03669	 27.05054	 31.16933	 -0.20491	 74.23394	701.21002	 43.30	
 10.200	180.000	 70.20001	  5.52491	 55.18684	 25.50040	 30.53202	 -0.86732	 74.24456	701.23999	 43.30	
 10.191	-170.497	 70.27294	  6.21903	 54.31755	 21.77254	 34.60304	 -0.67096	 74.22738	701.16998	 43.30	
 10.210	-161.034	 70.38790	  7.29241	 52.83635	 18.31118	 38.73138	 -0.60820	 74.26376	701.19000	 43.30	
 10.194	-151.526	 70.52101	  9.06336	 50.58786	 15.26462	 42.39582	 -0.96130	 74.27881	701.32001	 43.30	
 10.190	-142.105	 70.62280	 11.30595	 48.02928	 12.64372	 45.64031	 -1.02583	 74.25562	701.09998	 43.30	
 10.215	-132.646	 70.77007	 13.97343	 44.94556	 10.54818	 48.33371	 -1.04883	 74.27576	701.14001	 43.40	
 10.203	-123.092	 70.88937	 17.06016	 41.42315	  8.95324	 50.52146	 -1.04998	 74.25695	701.17999	 43.40	
 10.192	-113.678	 70.98856	 20.49429	 37.56021	  7.74160	 52.22458	 -1.02329	 74.24186	701.14001	 43.40	
 10.208	-104.249	 71.15931	 24.27110	 33.41486	  7.07407	 53.24112	 -1.03243	 74.26656	701.14001	 43.40	
 10.210	-94.801	 71.32753	 28.18240	 29.51707	  6.98615	 53.55552	 -0.78830	 74.32254	701.13000	 43.40	
 10.210	-85.199	 71.48267	 32.16513	 25.64996	  7.51666	 53.10266	 -1.11287	 74.32349	701.21002	 43.50	
 10.208	-75.751	 71.58737	 36.19257	 22.05110	  8.36661	 51.92184	 -0.80148	 74.29552	701.13000	 43.50	
 10.192	-66.322	 71.73165	 40.02355	 18.88991	  9.77358	 49.99057	 -0.95233	 74.30441	701.17999	 43.50	
 10.203	-56.908	 71.82299	 43.52619	 15.98059	 11.65059	 47.75875	 -0.91789	 74.31370	701.14001	 43.50	
 10.215	-47.354	 71.88210	 46.65059	 13.39725	 14.16061	 44.72754	 -1.12882	 74.30202	701.15997	 43.50	
 10.190	-37.895	 71.96321	 49.03240	 11.41748	 17.16831	 41.37786	 -0.68292	 74.30494	701.23999	 43.50	
 10.194	-28.474	 72.02466	 50.97157	 10.11102	 20.54743	 37.59207	 -0.78112	 74.29464	701.13000	 43.50	
 10.210	-18.966	 72.00127	 52.35246	  8.65825	 24.20236	 33.32563	 -0.42165	 74.29551	701.20001	 43.50	
 10.191	 -9.503	 72.05085	 52.94253	  8.23866	 28.10756	 29.29861	 -0.33750	 74.34372	701.15997	 43.50	
 10.200	  0.000	 72.00936	 52.81124	  8.34938	 32.12985	 25.36880	 -0.38838	 74.34401	700.98999	 43.50	
 10.191	  9.503	 71.93186	 51.86595	  9.02151	 36.33216	 21.51418	 -0.29452	 74.33266	700.96002	 43.50	
 10.210	 18.966	 71.84829	 50.28443	 10.25217	 40.15694	 17.96931	 -0.55148	 74.36604	701.06000	 43.50	
 10.194	 28.474	 71.73215	 48.10439	 12.05551	 43.69353	 14.77549	 -0.58552	 74.33560	701.04999	 43.50	
 10.190	 37.895	 71.62499	 45.36853	 14.23146	 47.00111	 12.00849	 -0.75366	 74.34269	701.15997	 43.50	
 10.215	 47.354	 71.45631	 42.09251	 16.83320	 49.56740	  9.64215	 -0.92402	 74.32778	701.14001	 43.50	
 10.203	 56.908	 71.37113	 38.39684	 20.02081	 51.76960	  8.00409	 -1.00654	 74.33356	701.03003	 43.50	
 10.192	 66.322	 71.27231	 34.43761	 23.39217	 53.26707	  6.84284	 -1.10499	 74.34325	701.03998	 43.60	
 10.208	 75.751	 71.11710	 30.42524	 27.01898	 54.14498	  6.04952	 -0.88618	 74.33672	701.13000	 43.60	
 10.210	 85.199	 70.99377	 26.42340	 30.95624	 54.22322	  5.93878	 -0.85081	 74.31968	701.10999	 43.60	
 10.210	 94.801	 70.90875	 22.57039	 35.04317	 53.68724	  6.33995	 -1.43980	 74.35521	701.17999	 43.60	
 10.208	104.249	 70.77086	 18.92456	 39.16955	 52.36901	  7.28160	 -1.44227	 74.33071	701.03003	 43.60	
 10.192	113.678	 70.70097	 15.63720	 42.89968	 50.30166	  8.83532	 -1.48026	 74.38070	701.06000	 43.60	
 10.203	123.092	 70.53184	 12.72221	 46.18835	 47.86729	 10.68989	 -1.50233	 74.31284	700.90997	 43.60	
 10.215	132.646	 70.46772	 10.19539	 49.12502	 44.79855	 12.97480	 -1.51012	 74.31667	700.96997	 43.70	
 10.190	142.105	 70.43822	  8.30816	 51.58670	 41.33795	 15.93206	 -1.43396	 74.38930	701.12000	 43.70	
 10.194	151.526	 70.33136	  6.76953	 53.53744	 37.61324	 19.20852	 -1.43293	 74.36243	701.09998	 43.70	
 10.210	161.034	 70.30461	  5.80290	 54.83988	 33.55775	 22.83738	 -1.44128	 74.37189	700.95001	 43.70	
 10.191	170.497	 70.28056	  5.38723	 55.38174	 29.49084	 26.65470	 -0.93644	 74.34763	700.89001	 43.70	
 11.899	171.783	 68.68067	  0.87283	 58.35629	 27.80349	 25.81182	 -1.91154	 74.38525	701.00000	 43.70	
 11.890	163.610	 68.68371	  1.32327	 57.85917	 31.73539	 21.95172	 -2.13873	 74.35009	701.03003	 43.70	
 11.889	155.445	 68.72319	  2.09644	 56.85791	 35.87675	 18.31795	 -2.08965	 74.36707	701.00000	 43.70	
 11.909	147.299	 68.78578	  3.18499	 55.34848	 39.80622	 14.85956	 -2.08224	 74.38916	701.07001	 43.70	
 11.902	139.148	 68.87868	  4.83107	 53.12720	 43.42941	 11.89340	 -2.15795	 74.38186	701.06000	 43.70	
 11.894	130.867	 69.04434	  7.04330	 50.26833	 46.97122	  8.99570	 -2.16280	 74.39453	701.03998	 43.80	
 11.897	122.732	 69.04191	  9.55217	 47.41467	 49.80527	  6.73330	 -2.16508	 74.34885	700.98999	 43.80	
 11.903	114.597	 69.13802	 12.30155	 44.01334	 52.50394	  4.84996	 -2.17367	 74.36203	701.09998	 43.80	
 11.893	106.346	 69.28419	 15.54958	 40.30414	 54.63275	  3.46142	 -2.14325	 74.38664	701.01001	 43.80	
 11.892	 98.155	 69.36959	 19.09112	 36.17330	 56.12140	  2.39911	 -2.12252	 74.34682	701.04999	 43.80	
 11.900	 90.000	 69.49640	 22.85179	 32.17111	 57.04934	  1.74121	 -2.11615	 74.39609	700.89001	 43.80	
 11.892	 81.845	 69.58157	 26.77367	 28.21227	 57.33090	  1.58641	 -1.95737	 74.35956	701.01001	 43.80	
 11.893	 73.654	 69.74948	 30.78555	 24.38575	 56.97087	  1.96148	 -1.89066	 74.39900	700.94000	 43.90	
 11.903	 65.403	 69.84852	 34.78284	 20.74319	 56.01606	  2.75773	 -1.81446	 74.36018	701.03998	 43.90	
 11.897	 57.268	 69.99656	 38.78437	 17.37332	 54.49473	  3.95867	 -1.63752	 74.36539	701.03003	 43.90	
 11.894	 49.133	 70.10831	 42.52205	 14.24877	 52.37572	  5.57411	 -1.57600	 74.35260	700.98999	 43.90	
 11.902	 40.852	 70.22483	 45.96100	 11.65055	 49.66083	  7.57390	 -1.45076	 74.33920	700.98999	 43.90	
 11.909	 32.701	 70.35217	 48.93187	  9.19046	 46.79139	 10.10638	 -1.32804	 74.36479	700.96002	 44.00	
 11.889	 24.555	 70.46569	 51.33439	  7.34995	 43.28002	 13.05509	 -1.30731	 74.32351	700.97998	 44.00	
 11.890	 16.390	 70.58943	 53.53188	  5.82033	 39.65327	 16.33731	 -1.33757	 74.36743	700.96997	 44.00	
 11.899	  8.217	 70.65648	 55.06086	  4.68340	 35.72135	 19.85018	 -1.43398	 74.34866	700.91998	 44.00	
 11.900	  0.000	 70.72968	 55.89436	  4.14289	 31.43469	 23.74192	 -1.47438	 74.33916	700.91998	 44.00	
 11.899	 -8.217	 70.75562	 56.08291	  3.94513	 27.36316	 27.73688	 -1.40673	 74.30923	700.98999	 44.00	
 11.890	-16.390	 70.86012	 55.63727	  4.35290	 23.55158	 31.75933	 -1.41931	 74.39153	701.01001	 44.00	
 11.889	-24.555	 70.79470	 54.52605	  5.15540	 19.77163	 35.92557	 -1.62344	 74.34777	700.96002	 44.00	
 11.909	-32.701	 70.72572	 52.87271	  6.40387	 16.26225	 39.99059	 -1.75563	 74.34035	700.90997	 44.00	
 11.902	-40.852	 70.75657	 50.70396	  8.08156	 13.16502	 43.61531	 -1.91856	 74.38706	700.94000	 44.10	
 11.894	-49.133	 70.65616	 48.00870	 10.18350	 10.30978	 46.99054	 -1.97873	 74.36414	700.94000	 44.10	
 11.897	-57.268	 70.56483	 44.90987	 12.91303	  7.90099	 49.72377	 -1.94388	 74.36919	700.92999	 44.10	
 11.903	-65.403	 70.41988	 41.36982	 15.49832	  5.94366	 52.32381	 -1.87805	 74.36019	700.78003	 44.10	
 11.893	-73.654	 70.34252	 37.48443	 18.77356	  4.52248	 54.35799	 -1.85085	 74.36800	700.90997	 44.10	
 11.892	-81.845	 70.19605	 33.42811	 22.27052	  3.42839	 55.73295	 -2.01926	 74.37399	700.78998	 44.10	
 11.900	-90.000	 70.05822	 29.49578	 25.90195	  2.71300	 56.54503	 -2.06618	 74.37999	700.89001	 44.10	
 11.892	-98.155	 69.89160	 25.47322	 29.79429	  2.51006	 56.69624	 -1.70640	 74.37269	700.89001	 44.10	
 11.893	-106.346	 69.77316	 21.58427	 33.72186	  2.65023	 56.17817	 -1.86931	 74.36415	700.95001	 44.10	
 11.903	-114.597	 69.61972	 17.85627	 37.89854	  3.47350	 55.13561	 -1.80634	 74.40294	700.90997	 44.10	
 11.897	-122.732	 69.44066	 14.47418	 41.76157	  4.60550	 53.37925	 -1.81731	 74.31820	700.84998	 44.10	
 11.894	-130.867	 69.35031	 11.33869	 45.37075	  6.24288	 51.06928	 -1.80614	 74.38647	700.88000	 44.10	
 11.902	-139.148	 69.16326	  8.44617	 48.67038	  8.17186	 48.42064	 -1.75562	 74.33503	700.84998	 44.20	
 11.909	-147.299	 69.05556	  6.18225	 51.43515	 10.57434	 45.33334	 -1.63229	 74.35298	700.84998	 44.10	
 11.889	-155.445	 68.97600	  4.33419	 53.95324	 13.40207	 41.86298	 -1.57322	 74.34036	700.83002	 44.20	
 11.890	-163.610	 68.91502	  2.78446	 55.90783	 16.63530	 38.01374	 -1.58654	 74.37927	700.90002	 44.20	
 11.899	-171.783	 68.80536	  1.74518	 57.33968	 20.09287	 33.76708	 -1.73464	 74.37423	700.91998	 44.20	
 11.900	180.000	 68.69672	  1.06472	 58.15981	 23.81910	 29.84111	 -1.99837	 74.34273	701.08002	 44.20	
 13.600	180.000	 66.80228	 -3.31174	 60.76046	 21.97368	 28.79479	 -2.55727	 74.35665	700.98999	 44.20	
 13.608	-172.853	 66.90065	 -2.69386	 60.08957	 18.23038	 32.80682	 -2.38554	 74.41232	700.91998	 44.20	
 13.611	-165.583	 66.95631	 -1.80143	 58.79382	 14.67369	 36.88772	 -2.23290	 74.36243	700.97998	 44.20	
 13.601	-158.353	 67.04784	 -0.56449	 57.02431	 11.39516	 40.98509	 -2.16026	 74.36149	700.95001	 44.20	
 13.609	-151.210	 67.18793	  1.13846	 54.73668	  8.72509	 44.58760	 -2.13898	 74.40063	700.98999	 44.20	
 13.611	-143.999	 67.29706	  3.21992	 51.84398	  5.86458	 48.02834	 -2.27041	 74.38078	700.95001	 44.20	
 13.601	-136.825	 67.42722	  5.80906	 48.96391	  3.60643	 50.80739	 -2.43267	 74.35966	700.91998	 44.20	
 13.596	-129.640	 67.56615	  8.69587	 45.59774	  1.78319	 53.65535	 -2.49637	 74.37685	701.02002	 44.20	
 13.611	-122.431	 67.65021	 11.72945	 41.86710	  0.15827	 55.98020	 -2.48920	 74.35077	701.01001	 44.20	
 13.604	-115.211	 67.82366	 15.06881	 37.83244	 -0.95696	 57.65121	 -2.53703	 74.35775	701.04999	 44.20	
 13.595	-108.042	 68.06355	 18.67757	 33.83883	 -1.64319	 58.82248	 -2.60483	 74.42420	700.97998	 44.20	
 13.607	-100.793	 68.10903	 22.52948	 29.85214	 -2.11582	 59.42796	 -2.69296	 74.35286	700.89001	 44.20	
 13.601	-93.617	 68.28014	 26.45061	 26.05770	 -2.03844	 59.50182	 -2.82231	 74.37702	700.84998	 44.20	
 13.601	-86.383	 68.43383	 30.44834	 22.33864	 -1.60407	 59.07026	 -2.89702	 74.36522	700.94000	 44.20	
 13.607	-79.207	 68.61301	 34.51746	 18.67831	 -0.77891	 58.08392	 -2.85224	 74.39809	700.91998	 44.20	
 13.595	-71.958	 68.76543	 38.61270	 15.25844	  0.46683	 56.50642	 -2.77108	 74.38947	700.88000	 44.20	
 13.604	-64.789	 68.92320	 42.49522	 12.16508	  2.08748	 54.42170	 -2.73400	 74.43764	700.89001	 44.20	
 13.611	-57.569	 68.99500	 46.04342	  9.25349	  3.94133	 51.77229	 -2.78602	 74.38773	700.76001	 44.30	
 13.596	-50.360	 69.10391	 49.17286	  6.76997	  6.26146	 48.93774	 -2.80586	 74.39817	700.91998	 44.30	
 13.601	-43.175	 69.18721	 51.99474	  4.67224	  9.02890	 45.73729	 -2.76307	 74.42294	700.97998	 44.30	
 13.611	-36.001	 69.19447	 54.42025	  2.91540	 11.88019	 42.16881	 -2.57097	 74.38416	700.92999	 44.30	
 13.609	-28.790	 69.22905	 56.41850	  1.41981	 15.21531	 38.17682	 -2.34233	 74.39110	700.87000	 44.30	
 13.601	-21.647	 69.27082	 57.80863	  0.42264	 18.79623	 33.95082	 -2.19703	 74.40768	700.84998	 44.30	
 13.611	-14.417	 69.25060	 58.65593	 -0.26072	 22.64019	 29.91596	 -2.07047	 74.39449	700.90997	 44.30	
 13.608	 -7.147	 69.22829	 59.03807	 -0.46557	 26.62642	 25.83858	 -2.06869	 74.39668	700.90997	 44.30	
 13.600	  0.000	 69.20084	 58.76985	 -0.23355	 30.57147	 21.95314	 -2.09959	 74.37846	700.87000	 44.30	
 13.608	  7.147	 69.11401	 57.96441	  0.28043	 34.62418	 18.15429	 -2.12110	 74.38731	700.90997	 44.30	
 13.611	 14.417	 69.01659	 56.60472	  1.20601	 38.76919	 14.43657	 -2.05832	 74.37794	700.97998	 44.30	
 13.601	 21.647	 68.93558	 54.63768	  2.56555	 42.59881	 11.19187	 -1.96098	 74.36159	700.75000	 44.30	
 13.609	 28.790	 68.84467	 52.25545	  4.18750	 46.23688	  8.00971	 -1.95122	 74.42100	700.84998	 44.30	
 13.611	 36.001	 68.71368	 49.41262	  6.25496	 49.39839	  5.37392	 -2.06058	 74.38211	700.88000	 44.30	
 13.601	 43.175	 68.60371	 46.27492	  8.65869	 52.38082	  3.17653	 -2.21326	 74.38599	700.92999	 44.30	
 13.596	 50.360	 68.49726	 42.80216	 11.65081	 54.97562	  1.27220	 -2.24673	 74.44036	700.89001	 44.30	
 13.611	 57.569	 68.31001	 38.97505	 14.91282	 57.02124	 -0.28924	 -2.29910	 74.41572	700.90997	 44.40	
 13.604	 64.789	 68.19431	 34.89729	 17.95765	 58.55814	 -1.36723	 -2.44262	 74.41122	700.85999	 44.40	
 13.595	 71.958	 68.02380	 30.96191	 21.51098	 59.51201	 -2.12163	 -2.53274	 74.35185	700.79999	 44.30	
 13.607	 79.207	 67.89083	 26.99473	 25.25396	 60.05139	 -2.65954	 -2.60972	 74.36726	700.84003	 44.30	
 13.601	 86.383	 67.76687	 22.97819	 29.16664	 60.01634	 -2.80662	 -2.73090	 74.36382	700.87000	 44.30	
 13.601	 93.617	 67.69443	 19.17189	 33.08955	 59.44669	 -2.39385	 -2.77019	 74.40179	700.78998	 44.40	
 13.607	100.793	 67.58560	 15.44552	 37.12756	 58.35181	 -1.64222	 -2.84050	 74.41359	700.87000	 44.40	
 13.595	108.042	 67.47174	 12.14858	 41.22634	 56.64905	 -0.52318	 -2.82676	 74.42397	700.73999	 44.40	
 13.604	115.211	 67.31585	  8.96157	 44.91372	 54.44925	  0.95089	 -2.82052	 74.36705	700.84998	 44.40	
 13.611	122.431	 67.26470	  6.04085	 48.41104	 51.76524	  2.85991	 -2.85049	 74.39308	700.89001	 44.40	
 13.596	129.640	 67.20227	  3.62477	 51.34178	 48.76004	  5.03686	 -2.84385	 74.35276	700.76001	 44.40	
 13.601	136.825	 67.11792	  1.56246	 54.27531	 45.38349	  7.59428	 -2.80795	 74.37794	700.78998	 44.40	
 13.611	143.999	 66.94621	 -0.29577	 56.68719	 41.76846	 10.60852	 -2.77497	 74.35236	700.83002	 44.40	
 13.609	151.210	 66.89507	 -1.56762	 58.58395	 37.96162	 13.76625	 -2.71169	 74.39337	700.75000	 44.40	
 13.601	158.353	 66.85305	 -2.50713	 59.85653	 33.81786	 17.18509	 -2.73440	 74.39450	700.75000	 44.40	
 13.611	165.583	 66.82096	 -3.22313	 60.76765	 29.84830	 20.94647	 -2.71813	 74.42371	700.81000	 44.40	
 13.608	172.853	 66.78204	 -3.47481	 61.02297	 25.84583	 24.88617	 -2.65778	 74.37818	700.72998	 44.40	
 15.298	173.587	 64.59010	 -7.82889	 63.51799	 23.72532	 23.65687	 -3.08759	 74.33237	700.75000	 44.50	
 15.291	167.167	 64.66054	 -7.68113	 63.31209	 27.61557	 19.86241	 -3.19839	 74.39967	700.90997	 44.50	
 15.307	160.676	 64.62685	 -7.21594	 62.57780	 31.61889	 16.02108	 -3.22701	 74.35410	700.76001	 44.50	
 15.300	154.261	 64.71403	 -6.37099	 61.41063	 35.57212	 12.79884	 -3.28255	 74.39472	700.84998	 44.50	
 15.288	147.854	 64.87498	 -5.07338	 59.79578	 39.75027	  9.25976	 -3.22628	 74.41164	700.81000	 44.40	
 15.293	141.428	 64.98052	 -3.59702	 57.69006	 43.53491	  6.20509	 -3.30939	 74.38364	700.94000	 44.40	
 15.299	134.985	 65.10130	 -1.79069	 55.17059	 47.13668	  3.44243	 -3.34995	 74.40445	700.90002	 44.40	
 15.305	128.583	 65.11864	  0.26893	 52.13135	 50.32230	  1.00703	 -3.39594	 74.32377	700.84003	 44.40	
 15.309	122.142	 65.19890	  2.69121	 49.11333	 53.44434	 -1.02192	 -3.40254	 74.38187	700.87000	 44.40	
 15.304	115.711	 65.28412	  5.38259	 45.59251	 56.14597	 -2.81325	 -3.34551	 74.37180	700.81000	 44.40	
 15.297	109.291	 65.37549	  8.43549	 41.91405	 58.38680	 -4.45050	 -3.31129	 74.39137	700.83002	 44.50	
 15.293	102.897	 65.51374	 11.90035	 37.84135	 60.13229	 -5.60867	 -3.36365	 74.39439	700.91998	 44.50	
 15.293	 96.458	 65.66234	 15.33902	 33.89716	 61.45193	 -6.42132	 -3.36663	 74.41197	700.90002	 44.50	
 15.300	 90.000	 65.68356	 19.05958	 29.88201	 62.31901	 -7.05653	 -3.35381	 74.34776	700.84003	 44.50	
 15.293	 83.542	 65.78152	 23.05846	 25.91500	 62.66441	 -7.08407	 -3.25087	 74.33096	700.84003	 44.50	
 15.293	 77.103	 65.94196	 26.94133	 22.23205	 62.50966	 -6.73410	 -3.14175	 74.35977	700.87000	 44.50	
 15.297	 70.709	 66.03761	 30.79882	 18.61644	 61.83273	 -6.24397	 -3.07975	 74.31608	700.89001	 44.50	
 15.304	 64.289	 66.17372	 34.75624	 15.42868	 60.78239	 -5.55780	 -2.99101	 74.35202	700.91998	 44.50	
 15.309	 57.858	 66.27213	 38.78019	 11.91935	 59.20110	 -4.46561	 -2.94170	 74.31988	700.96002	 44.50	
 15.305	 51.417	 66.47714	 42.71756	  8.63164	 57.21319	 -2.94280	 -2.90590	 74.38130	700.89001	 44.50	
 15.299	 45.015	 66.63933	 46.29974	  5.88736	 54.76292	 -1.17439	 -2.86750	 74.36986	700.90002	 44.50	
 15.293	 38.572	 66.76057	 49.60846	  3.37940	 51.82069	  0.91392	 -2.73005	 74.38229	700.84003	 44.50	
 15.288	 32.146	 66.85885	 52.53412	  1.22076	 48.74075	  3.31523	 -2.62486	 74.36722	700.92999	 44.50	
 15.300	 25.739	 66.95224	 55.26216	 -0.59422	 45.26853	  6.03798	 -2.57536	 74.38711	700.88000	 44.50	
 15.307	 19.324	 67.07877	 57.50479	 -2.04813	 41.60472	  9.16885	 -2.57378	 74.36662	700.81000	 44.50	
 15.291	 12.833	 67.22801	 59.29536	 -3.22985	 37.56899	 12.90932	 -2.68910	 74.39619	700.85999	 44.50	
 15.298	  6.413	 67.25691	 60.49031	 -4.03503	 33.38659	 16.22353	 -2.69794	 74.33875	700.84003	 44.50	
 15.300	  0.000	 67.33582	 61.33605	 -4.57052	 29.47597	 20.04950	 -2.65135	 74.37383	700.83002	 44.50	
 15.298	 -6.413	 67.38280	 61.61771	 -4.71339	 25.53609	 23.95335	 -2.56993	 74.36001	700.91998	 44.50	
 15.291	-12.833	 67.42262	 61.38950	 -4.61054	 21.63033	 27.90422	 -2.54783	 74.33286	700.90997	 44.50	
 15.307	-19.324	 67.43123	 60.67353	 -4.14882	 17.71711	 32.00078	 -2.69123	 74.36842	701.01001	 44.50	
 15.300	-25.739	 67.40533	 59.52629	 -3.37272	 14.13999	 35.94513	 -2.80398	 74.37299	700.82001	 44.50	
 15.288	-32.146	 67.39977	 57.81213	 -2.12651	 10.87206	 40.12402	 -2.98742	 74.36876	700.95001	 44.50	
 15.293	-38.572	 67.35561	 55.68467	 -0.55505	  7.58014	 43.94556	 -3.25244	 74.36190	700.84003	 44.50	
 15.299	-45.015	 67.30249	 52.99776	  1.30026	  4.68129	 47.53125	 -3.42921	 74.35532	700.83002	 44.50	
 15.305	-51.417	 67.23121	 50.10062	  3.39173	  2.23080	 50.52119	 -3.50346	 74.36185	700.87000	 44.50	
 15.309	-57.858	 67.12057	 46.92085	  5.86739	  0.09193	 53.56606	 -3.48916	 74.35840	700.92999	 44.60	
 15.304	-64.289	 67.02549	 43.32693	  8.64153	 -1.78863	 56.26114	 -3.43234	 74.39858	700.95001	 44.60	
 15.297	-70.709	 66.87041	 39.42227	 11.70163	 -3.40501	 58.37479	 -3.44401	 74.35777	700.78998	 44.60	
 15.293	-77.103	 66.71162	 35.37347	 15.40456	 -4.75028	 59.98783	 -3.53504	 74.35835	700.90997	 44.60	
 15.293	-83.542	 66.55180	 31.39096	 18.42458	 -5.69546	 61.15403	 -3.59792	 74.37915	700.88000	 44.60	
 15.300	-90.000	 66.35009	 27.31718	 22.17059	 -6.27436	 61.89558	 -3.59217	 74.33334	700.82001	 44.60	
 15.293	-96.458	 66.21109	 23.40424	 25.92794	 -6.45901	 62.09515	 -3.44867	 74.33015	700.78998	 44.70	
 15.293	-102.897	 66.08959	 19.50570	 29.73315	 -6.44958	 61.85109	 -3.29864	 74.38639	700.96997	 44.70	
 15.297	-109.291	 65.95213	 15.75836	 33.59365	 -6.01417	 61.09880	 -3.20038	 74.37029	700.89001	 44.70	
 15.304	-115.711	 65.75619	 12.28292	 37.46170	 -5.26085	 59.93195	 -3.11983	 74.36945	700.96997	 44.70	
 15.309	-122.142	 65.64484	  8.83038	 41.71681	 -4.08227	 58.23927	 -3.07701	 74.38304	700.85999	 44.70	
 15.305	-128.583	 65.50032	  5.74270	 45.50644	 -2.52227	 55.98085	 -3.04075	 74.35071	700.89001	 44.70	
 15.299	-134.985	 65.38373	  2.99031	 48.92025	 -0.75492	 53.30122	 -2.98626	 74.35366	700.85999	 44.70	
 15.293	-141.428	 65.26325	  0.49983	 51.87621	  1.31546	 50.29354	 -2.85308	 74.32296	700.87000	 44.70	
 15.288	-147.854	 65.20531	 -1.60643	 54.95957	  3.71245	 47.16355	 -2.66643	 74.39206	700.85999	 44.70	
 15.300	-154.261	 65.03648	 -3.50879	 57.58055	  6.39024	 43.62706	 -2.59723	 74.38622	700.91998	 44.70	
 15.307	-160.676	 64.86357	 -5.05828	 59.65665	  9.54404	 39.77387	 -2.60032	 74.32397	701.01001	 44.70	
 15.291	-167.167	 64.86379	 -6.16425	 61.34276	 12.74751	 35.59504	 -2.63884	 74.39606	700.95001	 44.70	
 15.298	-173.587	 64.73350	 -7.07816	 62.49047	 16.15440	 31.68427	 -2.80998	 74.37506	700.90002	 44.70	
 15.300	180.000	 64.67324	 -7.65975	 63.28449	 19.86304	 27.68044	 -2.98027	 74.38110	700.89001	 44.70	
 17.000	180.000	 62.31390	-11.99606	 65.57215	 17.69379	 26.26684	 -3.16879	 74.40730	700.94000	 44.70	
 16.990	-174.179	 62.36392	-11.57893	 64.83330	 14.03153	 30.26360	 -3.01726	 74.37984	700.89001	 44.70	
 17.009	-168.383	 62.45693	-10.75422	 63.69394	 10.63950	 34.29903	 -2.91725	 74.42445	700.90997	 44.70	
 17.000	-162.596	 62.56026	 -9.54870	 62.04984	  7.28460	 38.15618	 -2.86019	 74.41161	700.92999	 44.70	
 16.990	-156.759	 62.61713	 -8.16071	 60.07682	  4.21933	 42.34648	 -2.89643	 74.37884	700.83002	 44.70	
 16.995	-150.919	 62.75784	 -6.48680	 57.74557	  1.47469	 46.00568	 -2.94576	 74.36389	700.92999	 44.80	
 16.988	-145.161	 62.90041	 -4.50444	 54.94102	 -1.02576	 49.45454	 -3.03615	 74.40539	700.89001	 44.80	
 17.014	-139.343	 63.03004	 -2.30946	 51.84411	 -3.23739	 52.55412	 -3.21211	 74.38668	700.89001	 44.80	
 17.007	-133.546	 63.16737	  0.20224	 48.65069	 -5.17867	 55.53894	 -3.35362	 74.40102	700.97998	 44.80	
 17.001	-127.699	 63.28298	  2.95734	 45.11368	 -6.87179	 58.13152	 -3.40780	 74.40670	700.92999	 44.80	
 17.006	-121.937	 63.35364	  5.88228	 41.27120	 -8.34966	 60.22934	 -3.43018	 74.40644	700.94000	 44.80	
 17.002	-116.134	 63.47299	  9.28049	 37.12650	 -9.48119	 61.88758	 -3.50781	 74.33252	701.00000	 44.80	
 17.001	-110.310	 63.64762	 12.76358	 33.19643	-10.29347	 63.25463	 -3.60802	 74.37733	700.90997	 44.80	
 16.988	-104.517	 63.82746	 16.39579	 29.31418	-10.78238	 64.12798	 -3.70096	 74.37942	701.02002	 44.80	
 17.008	-98.662	 63.96332	 20.26009	 25.43358	-10.99113	 64.57574	 -3.87630	 74.39719	700.96002	 44.80	
 16.996	-92.909	 64.13409	 23.93286	 21.92424	-10.84416	 64.53848	 -4.09188	 74.40031	700.90002	 44.80	
 16.996	-87.091	 64.28570	 27.92057	 18.26252	-10.47488	 64.07485	 -4.14199	 74.39842	700.88000	 44.80	
 17.012	-81.253	 64.41850	 31.99014	 15.05275	 -9.77150	 63.15432	 -4.13750	 74.40341	700.89001	 44.80	
 16.988	-75.483	 64.60003	 35.95657	 11.36769	 -8.66256	 61.72730	 -4.04285	 74.39363	700.89001	 44.80	
 17.001	-69.690	 64.76421	 40.03796	  8.10826	 -7.33894	 60.03811	 -4.00420	 74.39509	700.89001	 44.80	
 17.002	-63.866	 64.85207	 43.89453	  5.14218	 -5.76443	 57.82946	 -4.03115	 74.35642	701.00000	 44.80	
 17.006	-58.063	 64.99035	 47.56387	  2.52092	 -3.93974	 55.19680	 -4.02367	 74.37598	700.98999	 44.80	
 17.001	-52.301	 65.13563	 50.79178	  0.31652	 -1.87118	 52.17730	 -4.00414	 74.38713	700.89001	 44.80	
 17.007	-46.454	 65.19859	 53.90545	 -1.73877	  0.58692	 49.11021	 -3.94564	 74.40386	700.98999	 44.80	
 17.014	-40.657	 65.20815	 56.59514	 -3.64677	  3.20464	 45.68512	 -3.80826	 74.35539	700.92999	 44.80	
 16.988	-34.839	 65.35146	 58.90493	 -5.31786	  6.28453	 41.94590	 -3.55668	 74.39999	700.98999	 44.80	
 16.995	-29.081	 65.36040	 60.80698	 -6.80752	  9.53112	 37.82192	 -3.35746	 74.40736	700.90997	 44.80	
 16.990	-23.241	 65.39880	 62.31263	 -7.83128	 13.00230	 33.73296	 -3.18989	 74.39708	700.89001	 44.80	
 17.000	-17.404	 65.32230	 63.34940	 -8.51311	 16.58341	 29.70579	 -3.06232	 74.36189	700.98999	 44.80	
 17.009	-11.617	 65.34151	 64.00286	 -8.82530	 20.41905	 25.68498	 -3.00212	 74.38158	700.89001	 44.80	
 16.990	 -5.821	 65.29214	 64.07819	 -8.78743	 24.25181	 21.84960	 -3.04130	 74.37316	700.94000	 44.80	
 17.000	  0.000	 65.20644	 63.81092	 -8.69683	 28.15371	 17.91395	 -3.09913	 74.38904	700.94000	 44.90	
 16.990	  5.821	 65.15031	 62.96339	 -8.07575	 32.13028	 14.55655	 -3.27035	 74.34559	700.95001	 44.90	
 17.009	 11.617	 65.07122	 61.78380	 -7.34965	 36.05188	 10.77448	 -3.22228	 74.37801	700.92999	 44.80	
 17.000	 17.404	 64.95921	 60.04647	 -6.33634	 40.20716	  7.28223	 -3.09331	 74.36700	701.01001	 44.90	
 16.990	 23.241	 64.82660	 57.95589	 -5.03154	 44.05365	  4.07608	 -3.09028	 74.33067	700.91998	 44.80	
 16.995	 29.081	 64.74567	 55.47664	 -3.39407	 47.69631	  1.19505	 -3.13583	 74.38013	700.96002	 44.80	
 16.988	 34.839	 64.70701	 52.66311	 -1.49474	 50.92150	 -1.29484	 -3.22320	 74.42947	700.89001	 44.80	
 17.014	 40.657	 64.55799	 49.60767	  0.57540	 54.11571	 -3.61835	 -3.33716	 74.44167	700.84998	 44.90	
 17.007	 46.454	 64.39828	 46.12175	  3.01723	 56.87811	 -5.51016	 -3.41870	 74.35422	700.82001	 44.90	
 17.001	 52.301	 64.29275	 42.44439	  5.79705	 59.26015	 -7.12359	 -3.43887	 74.37485	700.92999	 44.90	
 17.006	 58.063	 64.12721	 38.49638	  8.83409	 61.18901	 -8.44926	 -3.44617	 74.33784	700.92999	 44.90	
 17.002	 63.866	 63.97219	 34.47772	 12.13244	 62.81708	 -9.49888	 -3.46595	 74.34630	700.91998	 44.90	
 17.001	 69.690	 63.86722	 30.46854	 15.83053	 64.04673	-10.33669	 -3.48336	 74.38034	700.90997	 44.90	
 16.988	 75.483	 63.71991	 26.51410	 19.12291	 64.74377	-10.84926	 -3.50831	 74.35091	700.98999	 44.90	
 17.012	 81.253	 63.55237	 22.78910	 22.57404	 65.08443	-11.16077	 -3.64323	 74.37093	700.95001	 44.90	
 16.996	 87.091	 63.49134	 18.87207	 26.41252	 64.92007	-11.39350	 -3.72808	 74.38790	701.00000	 44.80	
 16.996	 92.909	 63.44719	 15.22378	 30.39249	 64.36393	-11.01370	 -3.74761	 74.42003	700.85999	 44.80	
 17.008	 98.662	 63.35294	 11.64422	 34.27418	 63.35226	-10.34132	 -3.72452	 74.42975	700.89001	 44.80	
 16.988	104.517	 63.24105	  8.07465	 38.16571	 61.80865	 -9.30788	 -3.66749	 74.43375	701.01001	 44.80	
 17.001	110.310	 63.09889	  4.84371	 42.33427	 59.91363	 -7.97162	 -3.61739	 74.39050	700.92999	 44.80	
 17.002	116.134	 63.04932	  1.99366	 46.08769	 57.68369	 -6.38212	 -3.65350	 74.42535	700.90997	 44.80	
 17.006	121.937	 62.96062	 -0.60931	 49.61435	 54.96143	 -4.57431	 -3.71954	 74.43857	700.89001	 44.80	
 17.001	127.699	 62.92010	 -2.99001	 52.71074	 51.89462	 -2.65508	 -3.70817	 74.43947	700.91998	 44.80	
 17.007	133.546	 62.77795	 -5.20483	 55.78520	 48.67029	 -0.51728	 -3.72709	 74.40188	700.90002	 44.80	
 17.014	139.343	 62.66872	 -7.09938	 58.47189	 45.12363	  1.93158	 -3.69447	 74.40224	700.78003	 44.80	
 16.988	145.161	 62.56713	 -8.69408	 60.74028	 41.26167	  4.87599	 -3.63086	 74.39275	700.83002	 44.80	
 16.995	150.919	 62.49251	 -9.93613	 62.54441	 37.26986	  7.96050	 -3.56649	 74.42568	700.95001	 44.80	
 16.990	156.759	 62.43665	-10.99525	 64.09131	 33.26981	 11.40091	 -3.57212	 74.42695	700.79999	 44.90	
 17.000	162.596	 62.30638	-11.85144	 65.12278	 29.23965	 15.17683	 -3.60963	 74.40897	700.89001	 44.90	
 17.009	168.383	 62.26705	-12.21673	 65.72396	 25.25276	 18.56328	 -3.53558	 74.42493	700.90997	 44.90	
 16.990	174.179	 62.27459	-12.05401	 65.79697	 21.52046	 22.32448	 -3.35170	 74.37977	700.88000	 44.90	
 18.709	174.675	 59.62835	-16.49360	 67.81974	 18.99790	 20.84164	 -3.39407	 74.41010	700.89001	 44.90	
 18.703	169.441	 59.62285	-16.72071	 67.74880	 22.60144	 17.53701	 -3.74035	 74.41038	700.90002	 44.90	
 18.691	164.085	 59.67128	-16.34483	 67.25768	 26.70058	 13.61946	 -3.67865	 74.39151	700.92999	 44.90	
 18.706	158.818	 59.75642	-15.58134	 66.38105	 30.71223	  9.94720	 -3.63272	 74.39434	700.98999	 44.90	
 18.695	153.537	 59.84835	-14.62247	 65.06351	 34.68976	  6.63843	 -3.66182	 74.40469	700.95001	 44.90	
 18.704	148.255	 59.89476	-13.55604	 63.35390	 38.59718	  3.48216	 -3.70200	 74.39059	700.84998	 44.90	
 18.698	142.952	 60.01229	-12.14958	 61.33702	 42.67213	  0.59429	 -3.80554	 74.41573	700.91998	 44.90	
 18.699	137.625	 60.13012	-10.47293	 58.90194	 46.38526	 -2.01772	 -3.83787	 74.35627	700.85999	 44.90	
 18.705	132.343	 60.22495	 -8.55128	 56.14908	 49.94313	 -4.41572	 -3.78692	 74.39051	700.95001	 44.90	
 18.713	127.067	 60.31058	 -6.50147	 53.05371	 53.05625	 -6.58395	 -3.73409	 74.39855	700.91998	 44.90	
 18.700	121.794	 60.37894	 -4.19551	 49.94355	 56.16188	 -8.50354	 -3.71917	 74.42364	700.87000	 44.90	
 18.698	116.504	 60.44425	 -1.61134	 46.39861	 58.83886	-10.29970	 -3.68214	 74.39306	700.89001	 44.90	
 18.707	111.165	 60.48296	  1.19552	 42.60812	 61.11443	-11.84646	 -3.63528	 74.36756	700.96997	 44.90	
 18.690	105.863	 60.71858	  4.36485	 38.31576	 63.15975	-13.07394	 -3.70727	 74.42961	700.84003	 44.90	
 18.696	100.583	 60.84083	  7.73699	 34.64559	 64.77412	-14.21144	 -3.74650	 74.38743	700.87000	 44.90	
 18.700	 95.309	 60.88764	 11.22113	 30.66123	 65.92125	-14.96257	 -3.80122	 74.32568	700.84003	 44.90	
 18.700	 90.000	 61.01195	 14.92299	 26.68953	 66.73418	-15.52512	 -3.85634	 74.36395	700.92999	 44.90	
 18.700	 84.691	 61.08696	 18.59433	 22.69660	 67.12174	-15.71347	 -3.91470	 74.37062	700.94000	 44.90	
 18.696	 79.417	 61.17455	 22.02961	 19.70825	 67.11336	-15.29684	 -3.85068	 74.35461	701.03003	 44.90	
 18.690	 74.137	 61.34723	 25.89475	 16.27774	 66.69592	-15.00001	 -3.79421	 74.37212	701.03003	 44.90	
 18.707	 68.835	 61.46227	 29.98238	 12.44455	 65.90405	-14.45724	 -3.75619	 74.35716	700.96002	 44.90	
 18.698	 63.496	 61.63354	 34.00559	  9.02353	 64.65265	-13.51556	 -3.77417	 74.33118	700.96997	 44.90	
 18.700	 58.206	 61.80679	 38.00309	  5.85679	 63.03307	-12.43211	 -3.75585	 74.36696	700.96002	 45.00	
 18.713	 52.933	 61.82189	 42.00365	  2.95841	 61.05590	-11.19183	 -3.74226	 74.38219	700.91998	 45.00	
 18.705	 47.657	 61.97441	 45.81469	  0.54239	 58.75230	 -9.60232	 -3.65523	 74.41348	700.87000	 45.00	
 18.699	 42.375	 62.12855	 49.26718	 -1.84289	 56.06591	 -7.73112	 -3.58151	 74.39421	700.96002	 45.00	
 18.698	 37.048	 62.28810	 52.41842	 -4.12902	 52.96038	 -5.55203	 -3.48503	 74.36955	700.94000	 45.00	
 18.704	 31.745	 62.36754	 55.41172	 -6.19978	 49.75266	 -3.18859	 -3.39217	 74.35182	700.91998	 45.00	
 18.695	 26.463	 62.48083	 58.14783	 -8.04067	 46.22634	 -0.58066	 -3.39647	 74.34878	700.90997	 45.00	
 18.706	 21.182	 62.59221	 60.51075	 -9.61024	 42.60060	  2.21373	 -3.31659	 74.40464	700.95001	 45.00	
 18.691	 15.915	 62.68202	 62.39892	-10.80072	 38.59420	  5.39519	 -3.31651	 74.34826	700.88000	 45.00	
 18.703	 10.559	 62.71329	 63.95739	-11.80477	 34.49824	  8.79047	 -3.35525	 74.29893	700.94000	 45.00	
 18.709	  5.325	 62.85092	 65.20055	-12.51596	 30.63156	 12.38950	 -3.41549	 74.36162	700.88000	 45.00	
 18.700	  0.000	 62.88187	 65.95693	-13.01029	 26.56119	 16.17654	 -3.41084	 74.30309	700.88000	 45.00	
 18.709	 -5.325	 62.96921	 66.30563	-13.05733	 22.71581	 19.52452	 -3.24401	 74.35489	700.97998	 45.00	
 18.703	-10.559	 63.01614	 66.22501	-13.00703	 19.04299	 23.27132	 -3.25946	 74.33037	700.98999	 45.00	
 18.691	-15.915	 63.01955	 65.75134	-12.91949	 15.25709	 27.22517	 -3.30755	 74.35116	700.95001	 45.00	
 18.706	-21.182	 62.98898	 64.84194	-12.35628	 11.66394	 31.22657	 -3.40956	 74.31647	700.87000	 45.00	
 18.695	-26.463	 63.03156	 63.51873	-11.42797	  8.17865	 35.21898	 -3.50560	 74.32983	700.88000	 45.00	
 18.704	-31.745	 63.02864	 61.82086	-10.23731	  4.94826	 39.30792	 -3.65580	 74.35564	700.88000	 45.00	
 18.698	-37.048	 62.98732	 59.71175	 -8.71374	  1.94777	 43.33723	 -3.81913	 74.33641	700.84998	 45.00	
 18.699	-42.375	 62.90907	 57.28867	 -7.06664	 -0.90482	 47.03194	 -4.01044	 74.34954	700.96997	 45.00	
 18.705	-47.657	 62.85278	 54.46487	 -5.10630	 -3.43757	 50.40850	 -4.10761	 74.36663	700.90002	 45.00	
 18.713	-52.933	 62.73713	 51.23553	 -3.01077	 -5.87982	 53.51067	 -4.13798	 74.32142	700.88000	 45.00	
 18.700	-58.206	 62.63603	 47.99094	 -0.59940	 -7.85180	 56.52804	 -4.18835	 74.35474	700.96002	 45.00	
 18.698	-63.496	 62.49340	 44.38417	  1.98027	 -9.61036	 59.10612	 -4.24208	 74.34055	700.87000	 45.00	
 18.707	-68.835	 62.33161	 40.44661	  4.73190	-11.17027	 61.27544	 -4.25623	 74.30087	700.96002	 45.00	
 18.690	-74.137	 62.24062	 36.34759	  7.79178	-12.46427	 63.18736	 -4.28788	 74.34943	700.87000	 45.10	
 18.696	-79.417	 62.03945	 32.39556	 10.98989	-13.57255	 64.71255	 -4.31087	 74.34393	700.81000	 45.00	
 18.700	-84.691	 61.90130	 28.39730	 14.52294	-14.43682	 65.77225	 -4.39135	 74.34878	700.89001	 45.00	
 18.700	-90.000	 61.76101	 24.23864	 18.36627	-14.99743	 66.43739	 -4.42347	 74.32313	700.89001	 45.00	
 18.700	-95.309	 61.63006	 20.36609	 21.40065	-15.25106	 66.71273	 -4.22151	 74.34627	700.95001	 45.00	
 18.696	-100.583	 61.43542	 16.95982	 24.73611	-15.28978	 66.56297	 -3.89439	 74.32755	700.94000	 45.00	
 18.690	-105.863	 61.38899	 13.35529	 28.71567	-14.97934	 66.05448	 -3.76350	 74.36520	700.92999	 45.00	
 18.707	-111.165	 61.19515	  9.74340	 32.65519	-14.42043	 65.11872	 -3.66103	 74.33978	700.96002	 45.00	
 18.698	-116.504	 61.01281	  6.27618	 36.67487	-13.52341	 63.73262	 -3.56701	 74.35247	700.94000	 45.00	
 18.700	-121.794	 60.91603	  2.98357	 40.61219	-12.37371	 61.96189	 -3.50720	 74.37697	700.90002	 45.00	
 18.713	-127.067	 60.72610	 -0.02127	 44.55817	-10.95579	 59.85087	 -3.47789	 74.35047	700.98999	 45.00	
 18.705	-132.343	 60.63321	 -2.71846	 48.13779	 -9.37031	 57.36300	 -3.39516	 74.30087	701.02002	 45.00	
 18.699	-137.625	 60.44013	 -5.14820	 51.49104	 -7.52850	 54.54337	 -3.27258	 74.33215	700.92999	 45.10	
 18.698	-142.952	 60.27991	 -7.42614	 54.55748	 -5.51320	 51.38185	 -3.14871	 74.29518	700.92999	 45.10	
 18.704	-148.255	 60.16938	 -9.40761	 57.51710	 -3.30702	 48.11645	 -3.00298	 74.30785	700.97998	 45.10	
 18.695	-153.537	 60.04314	-11.24491	 60.07030	 -0.77429	 44.50554	 -2.97494	 74.29014	701.01001	 45.10	
 18.706	-158.818	 59.93612	-12.84618	 62.26741	  2.01298	 40.69206	 -2.88177	 74.34120	700.95001	 45.10	
 18.691	-164.085	 59.91477	-14.10053	 64.18092	  5.09557	 36.68571	 -2.88726	 74.36422	701.00000	 45.10	
 18.703	-169.441	 59.78354	-15.30865	 65.78993	  8.34793	 32.62817	 -2.89073	 74.36610	700.96002	 45.10	
 18.709	-174.675	 59.65409	-15.99134	 66.79340	 11.88347	 28.60268	 -2.94717	 74.28737	701.01001	 45.10	
 18.700	180.000	 59.58958	-16.41685	 67.47408	 15.50225	 24.57383	 -3.06469	 74.30943	700.96997	 45.10	
 20.400	180.000	 56.82170	-20.77354	 69.20986	 13.10067	 22.73630	 -2.80232	 74.30142	700.90997	 45.00	
 20.401	-175.153	 56.83033	-20.49193	 68.58914	  9.52256	 26.69404	 -2.75769	 74.30604	700.90997	 45.10	
 20.407	-170.264	 56.92340	-19.76457	 67.52850	  6.11923	 30.77479	 -2.72258	 74.30600	701.03998	 45.10	
 20.410	-165.423	 57.00317	-18.82009	 66.12708	  2.92658	 34.79031	 -2.75923	 74.32248	701.03998	 45.10	
 20.392	-160.496	 57.14691	-17.42984	 64.23389	 -0.04392	 38.75365	 -2.77515	 74.33882	700.97998	 45.10	
 20.401	-155.705	 57.27526	-16.02859	 62.22830	 -2.71607	 42.76304	 -2.77516	 74.33917	701.07001	 45.10	
 20.405	-150.835	 57.36801	-14.32361	 59.80573	 -5.28068	 46.53479	 -2.80996	 74.33243	700.97998	 45.10	
 20.397	-145.903	 57.53142	-12.35395	 57.03695	 -7.54096	 50.04071	 -2.89586	 74.33063	700.98999	 45.10	
 20.392	-141.062	 57.64164	-10.30063	 53.92015	 -9.61521	 53.12571	 -2.98704	 74.30022	701.08002	 45.10	
 20.396	-136.227	 57.75417	 -8.15362	 50.91612	-11.55119	 56.21939	 -3.15130	 74.28644	701.00000	 45.10	
 20.408	-131.372	 57.87292	 -5.68576	 47.46513	-13.33211	 59.04317	 -3.21444	 74.32848	700.96002	 45.10	
 20.410	-126.511	 57.95263	 -2.99094	 43.74864	-14.89900	 61.43209	 -3.31725	 74.30213	701.02002	 45.10	
 20.400	-121.604	 58.16759	  0.00752	 39.50615	-16.20664	 63.48708	 -3.36709	 74.30942	700.98999	 45.10	
 20.403	-116.741	 58.32863	  3.17069	 35.89998	-17.35966	 65.29227	 -3.44815	 74.31474	700.96002	 45.10	
 20.413	-111.900	 58.35403	  6.44526	 31.90790	-18.56128	 66.69199	 -3.52111	 74.27464	700.94000	 45.10	
 20.398	-107.004	 58.49795	 10.03007	 27.90468	-19.30481	 67.66337	 -3.63599	 74.26716	700.96002	 45.10	
 20.394	-102.132	 58.61203	 13.73358	 23.93604	-19.45492	 68.25698	 -3.76929	 74.24094	701.07001	 45.10	
 20.403	-97.332	 58.70460	 16.85765	 21.06972	-19.32296	 68.49435	 -4.13011	 74.22249	701.04999	 45.10	
 20.392	-92.440	 58.88611	 20.30832	 17.66549	-19.19156	 68.45258	 -4.36322	 74.26398	700.95001	 45.10	
 20.392	-87.560	 59.00197	 24.36973	 13.91962	-18.68135	 67.99255	 -4.39488	 74.24221	700.95001	 45.20	
 20.403	-82.668	 59.15985	 28.54682	 10.31063	-17.95716	 67.17384	 -4.37647	 74.26277	700.98999	 45.20	
 20.394	-77.868	 59.33049	 32.49269	  7.16908	-17.05936	 65.97345	 -4.36494	 74.25624	700.90002	 45.20	
 20.398	-72.996	 59.40433	 36.37593	  4.09359	-15.95952	 64.34283	 -4.36217	 74.17291	700.88000	 45.20	
 20.413	-68.100	 59.64013	 40.51655	  1.10093	-14.69345	 62.39412	 -4.31602	 74.26965	700.96997	 45.20	
 20.403	-63.259	 59.75524	 44.41240	 -1.63237	-13.19452	 60.17049	 -4.27519	 74.22009	700.96002	 45.20	
 20.400	-58.396	 59.92487	 48.07243	 -4.18670	-11.41641	 57.60437	 -4.16556	 74.21985	700.96997	 45.20	
 20.410	-53.489	 60.04541	 51.41426	 -6.62682	 -9.48010	 54.60954	 -4.03547	 74.23627	701.04999	 45.20	
 20.408	-48.628	 60.16648	 54.60407	 -8.75513	 -7.21999	 51.46343	 -3.92395	 74.23933	701.02002	 45.20	
 20.396	-43.773	 60.25300	 57.58501	-10.64459	 -4.89470	 48.17508	 -3.89634	 74.24916	701.03003	 45.20	
 20.392	-38.938	 60.35730	 60.09167	-12.32381	 -2.43195	 44.58808	 -3.82553	 74.23389	700.98999	 45.20	
 20.397	-34.097	 60.39180	 62.33728	-13.92610	  0.35072	 40.67739	 -3.64074	 74.24687	700.98999	 45.20	
 20.405	-29.165	 60.37092	 64.26106	-15.24645	  3.43239	 36.55458	 -3.57159	 74.22687	701.01001	 45.20	
 20.401	-24.295	 60.39177	 65.82112	-16.24674	  6.74641	 32.60706	 -3.53261	 74.24350	700.92999	 45.20	
 20.392	-19.504	 60.35936	 66.92068	-17.01525	 10.10393	 28.65681	 -3.49063	 74.20831	701.03003	 45.20	
 20.410	-14.577	 60.36874	 67.73949	-17.59607	 13.85452	 24.55533	 -3.43788	 74.26769	701.03003	 45.20	
 20.407	 -9.736	 60.36205	 68.10224	-17.70968	 17.41861	 20.58654	 -3.36581	 74.23936	701.12000	 45.20	
 20.401	 -4.847	 60.36274	 68.12442	-17.80749	 20.82979	 17.60849	 -3.41179	 74.24374	701.06000	 45.20	
 20.400	  0.000	 60.32899	 67.77831	-17.69251	 24.80364	 13.79357	 -3.33242	 74.23597	701.04999	 45.20	
 20.401	  4.847	 60.29259	 67.07520	-17.28611	 28.86352	 10.12555	 -3.25607	 74.29240	701.03003	 45.20	
 20.407	  9.736	 60.19883	 65.95023	-16.47238	 32.86304	  6.60780	 -3.23374	 74.27351	701.03003	 45.20	
 20.410	 14.577	 60.10553	 64.43533	-15.52191	 36.71855	  3.27378	 -3.23285	 74.24104	701.07001	 45.20	
 20.392	 19.504	 60.04034	 62.53495	-14.32914	 40.83088	  0.14630	 -3.27469	 74.26842	701.01001	 45.20	
 20.401	 24.295	 59.84114	 60.41905	-13.01247	 44.57860	 -2.74334	 -3.35486	 74.28230	701.01001	 45.20	
 20.405	 29.165	 59.78592	 57.93467	-11.33758	 48.19080	 -5.39830	 -3.36460	 74.31310	701.04999	 45.20	
 20.397	 34.097	 59.67102	 55.02309	 -9.36895	 51.50471	 -7.91639	 -3.48025	 74.30003	701.06000	 45.20	
 20.392	 38.938	 59.60012	 51.89136	 -7.18754	 54.73185	-10.16560	 -3.61602	 74.28539	700.95001	 45.20	
 20.396	 43.773	 59.42132	 48.69942	 -4.92014	 57.63464	-12.17298	 -3.70627	 74.27793	701.08002	 45.20	
 20.408	 48.628	 59.17777	 45.17852	 -2.54676	 60.20805	-13.97087	 -3.72391	 74.25871	700.98999	 45.20	
 20.410	 53.489	 59.01538	 41.34487	 -0.01684	 62.49319	-15.53703	 -3.76657	 74.26582	700.96997	 45.20	
 20.400	 58.396	 58.96181	 37.26360	  2.87578	 64.59307	-16.78788	 -3.85451	 74.31122	701.03003	 45.20	
 20.403	 63.259	 58.82068	 33.34524	  5.95831	 66.19678	-17.84567	 -3.87448	 74.28204	700.95001	 45.20	
 20.413	 68.100	 58.62402	 29.34452	  9.24337	 67.40592	-18.75783	 -3.93885	 74.23120	700.97998	 45.20	
 20.398	 72.996	 58.56201	 25.20758	 12.85581	 68.33449	-19.34641	 -3.94975	 74.30536	701.02002	 45.20	
 20.394	 77.868	 58.45519	 21.47424	 16.16523	 68.79591	-19.66154	 -3.93471	 74.30390	701.02002	 45.20	
 20.403	 82.668	 58.27842	 18.23073	 19.12125	 68.94267	-20.08146	 -3.88282	 74.26414	700.97998	 45.20	
 20.392	 87.560	 58.23374	 14.45758	 22.79321	 68.74297	-20.02397	 -3.76612	 74.30804	701.00000	 45.20	
 20.392	 92.440	 58.18467	 10.69538	 26.83447	 68.24963	-19.72986	 -3.62883	 74.34264	700.96997	 45.20	
 20.403	 97.332	 58.06134	  7.14519	 30.81011	 67.23891	-19.11642	 -3.55260	 74.29077	701.07001	 45.20	
 20.394	102.132	 58.01879	  3.81894	 34.77559	 65.92790	-18.22757	 -3.49509	 74.32890	700.92999	 45.20	
 20.398	107.004	 57.92456	  0.61924	 38.56728	 64.19112	-17.19031	 -3.49058	 74.29968	700.97998	 45.20	
 20.413	111.900	 57.81279	 -2.41073	 42.59993	 62.16288	-15.92189	 -3.49161	 74.27163	700.97998	 45.30	
 20.403	116.741	 57.70583	 -5.12843	 46.38683	 59.77903	-14.35271	 -3.48622	 74.30330	701.06000	 45.30	
 20.400	121.604	 57.59475	 -7.65219	 49.89814	 57.11675	-12.62104	 -3.51971	 74.32275	700.92999	 45.30	
 20.410	126.511	 57.48177	 -9.92847	 52.91367	 53.99207	-10.68195	 -3.60293	 74.31183	700.98999	 45.30	
 20.408	131.372	 57.45241	-11.91511	 56.19624	 50.85503	 -8.53165	 -3.63065	 74.33023	701.00000	 45.30	
 20.396	136.227	 57.37866	-13.76771	 59.09562	 47.42065	 -6.21418	 -3.56299	 74.34097	701.07001	 45.30	
 20.392	141.062	 57.25001	-15.50444	 61.55708	 43.78885	 -3.72397	 -3.53418	 74.35567	701.01001	 45.20	
 20.397	145.903	 57.10807	-16.97857	 63.69893	 39.83319	 -1.04686	 -3.52175	 74.29648	701.02002	 45.20	
 20.405	150.835	 56.98996	-18.29378	 65.64074	 35.81496	  2.01596	 -3.49744	 74.27364	701.03003	 45.30	
 20.401	155.705	 56.88507	-19.32741	 67.15691	 31.82821	  5.17906	 -3.45112	 74.26134	700.98999	 45.30	
 20.392	160.496	 56.86402	-20.12850	 68.29543	 27.92249	  8.46304	 -3.46571	 74.31625	700.97998	 45.30	
 20.410	165.423	 56.80387	-20.81477	 69.10655	 23.74047	 12.16034	 -3.47654	 74.31781	701.08002	 45.30	
 20.407	170.264	 56.80093	-21.05960	 69.52938	 19.77428	 15.98761	 -3.49373	 74.37783	701.07001	 45.30	
 20.401	175.153	 56.77116	-20.82480	 69.51424	 16.47396	 19.49996	 -3.22424	 74.31590	700.96002	 45.30	
  0.141	 45.000	 74.55953	 30.96006	 34.00304	 32.68944	 31.19252	  1.50157	 74.35403	700.97998	 45.30	
  4.001	128.691	 74.06625	 23.53571	 40.47531	 38.49467	 24.31963	  0.99979	 74.37868	700.95001	 45.30	
  4.002	 76.995	 74.20261	 31.10838	 32.38257	 41.49865	 21.70428	  1.16648	 74.32095	701.12000	 45.30	
  4.002	 25.892	 74.37273	 38.58287	 25.56903	 37.20101	 25.80959	  1.34891	 74.30197	701.03003	 45.30	
  4.002	-25.892	 74.42305	 39.70741	 24.61842	 28.78765	 34.31363	  1.33354	 74.32530	701.16998	 45.30	
  4.002	-76.995	 74.33990	 33.54586	 30.23078	 23.07870	 40.38360	  1.21481	 74.31905	701.04999	 45.30	
  4.001	-128.691	 74.12959	 25.20509	 38.78580	 23.72666	 39.37278	  1.11995	 74.29980	701.15002	 45.30	
  4.000	180.000	 73.97917	 21.01560	 43.13663	 30.35412	 31.94492	  0.98858	 74.35657	701.09998	 45.30	
  8.000	180.000	 72.00155	 11.04522	 51.15501	 27.49038	 31.34143	 -0.04557	 74.33378	701.06000	 45.30	
  7.991	-152.370	 72.22286	 13.84612	 47.92530	 19.55022	 40.43370	  0.01996	 74.33356	701.01001	 45.30	
  7.997	-124.550	 72.46395	 20.11001	 40.95017	 14.28214	 46.88585	  0.09585	 74.33570	701.03998	 45.30	
  8.006	-96.837	 72.80914	 28.57936	 31.71198	 12.53214	 49.16364	  0.08262	 74.34143	701.08002	 45.30	
  7.988	-69.228	 73.04406	 37.69638	 23.35842	 14.38369	 47.20880	  0.14596	 74.32601	701.13000	 45.30	
  7.997	-41.563	 73.25402	 45.01523	 17.11309	 19.86737	 40.96476	  0.08603	 74.33322	701.10999	 45.30	
  8.008	-13.821	 73.28266	 48.48475	 14.09210	 28.06779	 31.73935	  0.44060	 74.31406	701.14001	 45.30	
  8.008	 13.821	 73.21694	 47.43186	 15.02751	 37.49050	 22.81873	  0.52493	 74.36347	701.10999	 45.30	
  7.997	 41.563	 72.93993	 41.78445	 19.65311	 45.23458	 15.76670	  0.12037	 74.30329	701.09998	 45.30	
  7.988	 69.228	 72.69871	 33.22224	 27.10315	 49.53178	 12.04587	  0.15841	 74.36286	701.08002	 45.30	
  8.006	 96.837	 72.43076	 24.25086	 36.23607	 49.37383	 12.00364	 -0.06146	 74.37372	700.95001	 45.30	
  7.997	124.550	 72.22385	 16.67701	 44.54476	 44.75971	 15.74719	 -0.18059	 74.38228	701.03998	 45.30	
  7.991	152.370	 72.02020	 12.02453	 49.86626	 36.84639	 22.63655	 -0.16415	 74.36331	701.15002	 45.30	
 12.009	161.059	 68.58202	  1.23148	 57.81669	 32.92688	 20.66561	 -2.17770	 74.38328	700.90002	 45.30	
 12.013	142.081	 68.70019	  3.89421	 54.14726	 42.18435	 12.59639	 -2.16885	 74.34483	700.98999	 45.30	
 12.006	123.113	 68.96216	  9.25365	 47.64534	 49.81249	  6.59097	 -2.19771	 74.39195	700.97998	 45.30	
 12.007	104.200	 69.20238	 16.25160	 39.28295	 55.24181	  2.88883	 -2.19080	 74.39957	700.90997	 45.30	
 11.989	 85.301	 69.40064	 24.98031	 29.84393	 57.37013	  1.34904	 -1.88128	 74.31728	700.88000	 45.30	
 12.013	 66.294	 69.70057	 34.30005	 20.96266	 56.29212	  2.39149	 -1.85872	 74.34056	701.03003	 45.30	
 12.012	 47.388	 70.05150	 43.32898	 13.82199	 51.98665	  5.69016	 -1.57669	 74.35475	700.95001	 45.30	
 11.990	 28.440	 70.27840	 50.30340	  7.91899	 45.04292	 11.52536	 -1.31394	 74.29848	700.94000	 45.30	
 11.991	  9.464	 70.57587	 54.99950	  4.62715	 36.30424	 19.21982	 -1.47561	 74.36666	700.90997	 45.30	
 11.991	 -9.464	 70.66847	 56.21993	  3.71432	 26.71872	 28.27170	 -1.45537	 74.31284	701.07001	 45.30	
 11.990	-28.440	 70.69658	 53.92585	  5.50903	 17.90918	 37.97028	 -1.71115	 74.32178	701.07001	 45.30	
 12.012	-47.388	 70.58206	 48.67962	  9.48337	 10.66590	 46.41143	 -2.03572	 74.35737	701.03003	 45.30	
 12.013	-66.294	 70.31345	 41.03004	 15.62215	  5.53471	 52.72635	 -1.91442	 74.32929	700.96997	 45.30	
 11.989	-85.301	 69.98378	 31.69183	 23.70915	  2.82634	 56.27172	 -2.08107	 74.29801	701.08002	 45.30	
 12.007	-104.200	 69.66670	 22.48045	 32.61062	  2.42471	 56.55222	 -1.93433	 74.33272	701.06000	 45.30	
 12.006	-123.113	 69.34097	 14.11494	 41.99705	  4.42129	 53.47103	 -1.84270	 74.33840	701.09998	 45.30	
 12.013	-142.081	 69.01052	  7.31935	 49.73811	  8.75261	 47.49380	 -1.76090	 74.33978	701.01001	 45.30	
 12.009	-161.059	 68.79684	  2.90778	 55.52018	 15.35522	 39.30979	 -1.58622	 74.35632	701.07001	 45.30	
 16.000	180.000	 63.66862	 -9.42286	 64.20853	 18.96554	 27.09269	 -3.06776	 74.31503	701.03003	 45.30	
 15.990	-165.604	 63.87740	 -7.61596	 61.74516	 10.93699	 36.31992	 -2.71515	 74.32322	701.07001	 45.30	
 16.002	-151.165	 64.13538	 -4.27239	 57.01809	  3.61839	 45.56315	 -2.75153	 74.36205	701.13000	 45.30	
 16.002	-136.836	 64.39770	  0.81087	 50.12791	 -1.82898	 53.04137	 -3.08854	 74.32832	701.08002	 45.30	
 15.995	-122.439	 64.67930	  7.46406	 41.76162	 -5.69326	 58.86917	 -3.19578	 74.30855	701.03998	 45.30	
 15.993	-107.966	 65.04443	 15.57345	 32.32110	 -7.96585	 62.27051	 -3.38452	 74.35505	701.17999	 45.30	
 16.005	-93.629	 65.37292	 24.40940	 23.52662	 -8.30238	 63.14704	 -3.76728	 74.34680	701.15997	 45.30	
 15.992	-79.234	 65.76392	 33.74414	 15.49410	 -6.96349	 61.37347	 -3.81983	 74.36426	701.08002	 45.30	
 16.009	-64.774	 66.11253	 43.14571	  7.50233	 -3.65832	 57.17803	 -3.68084	 74.34430	701.15002	 45.30	
 15.997	-50.364	 66.38342	 51.02757	  1.55629	  1.08181	 50.49577	 -3.70718	 74.31099	701.09003	 45.30	
 15.997	-36.045	 66.47788	 57.29140	 -2.83828	  7.41077	 42.63638	 -3.39134	 74.31100	701.09003	 45.30	
 16.000	-21.597	 66.55920	 61.24345	 -5.65697	 15.37552	 33.08704	 -2.89098	 74.30012	701.07001	 45.30	
 16.003	 -7.169	 66.55091	 62.64054	 -6.43931	 24.37935	 23.74434	 -2.75925	 74.33953	701.06000	 45.30	
 16.003	  7.169	 66.38281	 61.34839	 -5.69567	 33.54301	 15.01435	 -2.94669	 74.30176	701.06000	 45.30	
 16.000	 21.597	 66.15497	 57.52604	 -3.22959	 42.98635	  6.74580	 -2.74490	 74.35407	701.02002	 45.30	
 15.997	 36.045	 65.89686	 51.28457	  0.90457	 50.96690	  0.30129	 -2.88075	 74.34372	701.13000	 45.30	
 15.997	 50.364	 65.59335	 43.49207	  6.76846	 57.51460	 -4.33469	 -3.15222	 74.33458	701.09998	 45.30	
 16.009	 64.774	 65.27492	 34.19679	 14.52772	 61.77302	 -7.33903	 -3.19855	 74.33729	701.13000	 45.40	
 15.992	 79.234	 64.99906	 25.04560	 22.63743	 63.62069	 -8.60737	 -3.34405	 74.35648	701.09998	 45.40	
 16.005	 93.629	 64.74170	 16.01926	 31.60026	 62.91406	 -8.57580	 -3.51288	 74.38704	701.09998	 45.40	
 15.993	107.966	 64.47412	  7.87466	 40.98677	 59.58912	 -6.33056	 -3.43933	 74.37740	701.15997	 45.40	
 15.995	122.439	 64.29589	  1.22821	 49.53467	 53.89486	 -2.41155	 -3.51916	 74.39333	701.15002	 45.40	
 16.002	136.836	 64.13824	 -3.95638	 56.53128	 46.36395	  2.78368	 -3.51257	 74.37423	701.10999	 45.40	
 16.002	151.165	 63.82228	 -7.47607	 61.46542	 37.44075	  9.77199	 -3.40283	 74.36324	701.06000	 45.40	
 15.990	165.604	 63.70701	 -9.41923	 64.15750	 28.02475	 18.04379	 -3.32046	 74.37036	701.14001	 45.40	
 20.003	168.362	 57.47602	-19.96336	 68.97809	 21.79804	 15.07217	 -3.60626	 74.34292	701.07001	 45.40	
 20.008	156.764	 57.63229	-18.52117	 67.15955	 31.33594	  6.52197	 -3.50253	 74.35020	701.04999	 45.40	
 20.000	145.147	 57.81600	-15.83411	 63.12931	 40.62505	 -0.67515	 -3.60077	 74.34541	701.13000	 45.40	
 19.995	133.545	 58.10195	-11.86849	 57.41353	 49.31906	 -6.61871	 -3.64395	 74.34772	701.10999	 45.40	
 20.009	121.926	 58.23034	 -6.98899	 50.12233	 56.76076	-11.57310	 -3.59451	 74.34410	701.09998	 45.30	
 20.005	110.327	 58.51441	 -0.72579	 41.53017	 62.55982	-15.34444	 -3.49835	 74.34158	701.09998	 45.40	
 19.989	 98.733	 58.75698	  6.85563	 32.33311	 66.54248	-17.83792	 -3.55665	 74.37552	701.16998	 45.40	
 19.999	 87.075	 58.94942	 15.37550	 22.93403	 68.44175	-19.06912	 -3.80411	 74.38390	701.06000	 45.40	
 19.992	 75.457	 59.20335	 23.60895	 15.25586	 68.26142	-18.52924	 -3.92169	 74.35574	701.15997	 45.40	
 20.009	 63.844	 59.57322	 33.11119	  7.02090	 66.08616	-16.93741	 -3.86610	 74.38417	701.21997	 45.40	
 19.989	 52.269	 59.96360	 42.46020	  0.24223	 61.74455	-14.15963	 -3.78907	 74.39817	701.15002	 45.40	
 19.999	 40.602	 60.23515	 50.74629	 -5.52405	 55.62678	 -9.97411	 -3.67884	 74.30957	701.23999	 45.40	
 20.004	 29.051	 60.45652	 57.69859	-10.34346	 48.07820	 -4.47301	 -3.43817	 74.29556	701.21002	 45.40	
 20.005	 17.433	 60.78363	 63.09475	-13.84666	 39.31086	  2.19410	 -3.29150	 74.34099	701.14001	 45.40	
 20.006	  5.780	 60.94271	 66.51051	-16.03972	 29.95111	 10.08544	 -3.29763	 74.31962	701.09998	 45.40	
 20.006	 -5.780	 61.06366	 67.76752	-16.67726	 20.65816	 18.46920	 -3.41340	 74.33312	701.17999	 45.40	
 20.005	-17.433	 61.04641	 66.95948	-16.25616	 12.27135	 27.31002	 -3.46575	 74.30696	701.10999	 45.40	
 20.004	-29.051	 61.11773	 64.03283	-14.26457	  4.27810	 36.65037	 -3.61396	 74.34664	701.02002	 45.40	
 19.999	-40.602	 61.03703	 59.10647	-10.81095	 -2.53333	 45.91959	 -3.89258	 74.37471	701.09998	 45.40	
 19.989	-52.269	 60.86255	 52.18299	 -6.22746	 -8.09397	 53.68903	 -4.06158	 74.38676	701.03998	 45.40	
 20.009	-63.844	 60.51674	 44.14196	 -0.49885	-12.55023	 60.29823	 -4.30783	 74.37788	701.03003	 45.40	
 19.992	-75.457	 60.14925	 34.75229	  6.38925	-15.56717	 64.92617	 -4.37908	 74.33522	701.14001	 45.40	
 19.999	-87.075	 59.79465	 25.25440	 14.22164	-17.68992	 67.58629	 -4.40447	 74.33902	701.07001	 45.40	
 19.989	-98.733	 59.39421	 16.64173	 22.02089	-18.44928	 68.15541	 -3.97847	 74.36327	701.03003	 45.40	
 20.005	-110.327	 59.10271	  8.28174	 30.97693	-17.83482	 66.73189	 -3.57853	 74.34895	700.97998	 45.40	
 20.009	-121.926	 58.84919	  0.57843	 40.01712	-15.16326	 63.09433	 -3.39672	 74.41209	701.01001	 45.40	
 19.995	-133.545	 58.48589	 -6.00240	 49.09414	-11.61347	 57.61612	 -3.24758	 74.35435	701.01001	 45.40	
 20.000	-145.147	 58.16806	-11.15156	 56.40295	 -7.02912	 50.47797	 -2.99289	 74.32499	701.03003	 45.40	
 20.008	-156.764	 57.88169	-15.41483	 62.40520	 -1.44359	 42.02578	 -2.83605	 74.34412	700.98999	 45.40	
 20.003	-168.362	 57.65946	-18.45673	 66.73074	  5.48974	 32.64442	 -2.80994	 74.35727	700.89001	 45.40	
 20.000	180.000	 57.55117	-19.79541	 68.87680	 13.72408	 23.15223	 -2.86924	 74.36142	700.98999	 45.40	
