FileType=PCF
NHL=14
Date=05/29/19	10:36:58
Facility=APL
Serial=16071-14
Customer=NASA
NP=6
Mach=0.550000
Calibration=1:1
CalPts=490
TstPts=95
PortNumbering=AP Standard
Units=Torr C m/s kg/m^3 deg mm 
Theta[deg]	Phi[deg]	P1[Torr]	P2[Torr]	P3[Torr]	P4[Torr]	P5[Torr]	P6[Torr]	Pt[Torr]	Ps[Abs,Torr]	Ts[C]	
  0.000	  0.000	160.93800	 70.18417	 80.13675	 73.04671	 74.76663	  5.69417	160.79778	702.40997	 29.10	
  1.691	128.401	160.91861	 64.54507	 85.46854	 78.42658	 68.80853	  5.60092	160.93094	702.41998	 29.10	
  1.692	 77.194	161.03825	 70.93742	 79.30753	 81.03125	 66.66356	  5.64058	160.94075	702.40002	 29.10	
  1.699	 26.182	161.10748	 77.05798	 73.58533	 77.61010	 70.36288	  5.65247	160.97792	702.41998	 29.20	
  1.699	-26.182	161.13646	 77.82655	 72.78522	 70.44933	 77.53660	  5.59748	160.99796	702.47998	 29.30	
  1.692	-77.194	161.20337	 72.78864	 77.49410	 65.41610	 82.41470	  5.56182	161.09668	702.42999	 29.30	
  1.691	-128.401	161.11430	 65.84259	 84.09444	 66.03004	 81.47928	  5.53031	161.10197	702.31000	 29.30	
  1.700	180.000	161.08252	 62.20181	 87.81083	 71.80929	 75.59959	  5.54819	161.14980	702.52002	 29.40	
  3.400	180.000	160.47830	 53.97021	 95.43920	 70.09553	 75.88777	  5.08607	161.18442	702.38000	 29.50	
  3.388	-152.325	160.66093	 56.60284	 92.53999	 63.17541	 83.24323	  5.13660	161.29529	702.46002	 29.60	
  3.397	-124.529	160.86424	 62.06921	 86.82289	 58.40937	 88.45660	  5.11552	161.32243	702.35999	 29.60	
  3.399	-96.763	161.10083	 69.42516	 79.58694	 56.86519	 90.52399	  5.09272	161.34602	702.39001	 29.70	
  3.394	-69.283	161.34195	 77.16336	 72.45804	 58.67411	 88.85136	  5.06600	161.39494	702.46002	 29.70	
  3.400	-41.398	161.53241	 83.45950	 66.70942	 63.82497	 83.79028	  5.13059	161.47153	702.42999	 29.80	
  3.401	-14.021	161.54764	 86.47556	 64.17406	 71.09709	 76.59935	  5.21907	161.45219	702.39001	 29.80	
  3.401	 14.021	161.63544	 85.45828	 65.18064	 79.10485	 68.73814	  5.34154	161.54933	702.41998	 29.90	
  3.400	 41.398	161.61780	 81.10625	 69.23805	 85.34673	 62.56301	  5.36480	161.56114	702.35999	 29.90	
  3.394	 69.283	161.51428	 73.92818	 76.15662	 88.94183	 59.17381	  5.36718	161.59270	702.34003	 30.00	
  3.399	 96.763	161.40268	 66.38139	 83.51498	 88.70416	 59.07839	  5.29666	161.66576	702.41998	 30.10	
  3.397	124.529	161.22990	 59.81256	 90.19440	 84.69488	 62.31089	  5.21085	161.71631	702.41998	 30.10	
  3.388	152.325	161.10483	 55.49994	 94.73714	 78.15562	 68.27785	  5.15698	161.73883	702.47998	 30.20	
  5.099	161.165	159.96814	 46.54569	102.38741	 76.29034	 67.89761	  4.49670	161.76012	702.39001	 30.20	
  5.109	142.013	160.13448	 49.53558	 99.47651	 83.92837	 60.96235	  4.53536	161.79442	702.41998	 30.30	
  5.095	123.033	160.39375	 54.58054	 94.12051	 90.37375	 55.55081	  4.60024	161.79834	702.34998	 30.30	
  5.105	104.191	160.69051	 61.21412	 87.41221	 94.96412	 51.86780	  4.69652	161.86243	702.34998	 30.40	
  5.093	 85.207	160.96758	 68.85952	 79.84930	 96.79232	 50.42648	  4.75334	161.86166	702.33002	 30.50	
  5.104	 66.290	161.25706	 76.76549	 72.06429	 96.15980	 51.39274	  4.84007	161.91895	702.29999	 30.60	
  5.094	 47.331	161.51384	 84.20837	 65.17524	 92.74377	 54.84201	  4.86921	161.95976	702.26001	 30.70	
  5.089	 28.397	161.66904	 90.00227	 60.05887	 86.87488	 60.17833	  4.84621	161.94652	702.34003	 30.70	
  5.096	  9.576	161.77794	 93.59972	 56.97112	 79.74423	 67.00566	  4.75022	161.96692	702.38000	 30.80	
  5.096	 -9.576	161.83972	 94.57363	 56.05541	 71.59625	 75.33417	  4.65100	162.02477	702.37000	 30.80	
  5.089	-28.397	161.78018	 92.66707	 57.56229	 63.69307	 83.15107	  4.52717	162.05522	702.34003	 30.90	
  5.094	-47.331	161.69475	 88.19496	 61.32324	 57.08933	 89.91196	  4.43068	162.07883	702.37000	 30.90	
  5.104	-66.290	161.48819	 81.54437	 66.98431	 52.18600	 95.28536	  4.43976	162.07483	702.33002	 31.00	
  5.093	-85.207	161.28421	 73.88460	 74.38635	 49.35395	 97.93055	  4.40861	162.13908	702.34003	 31.00	
  5.105	-104.191	161.03482	 65.89344	 82.01527	 49.01341	 98.09543	  4.46847	162.16129	702.39001	 31.10	
  5.095	-123.033	160.76833	 58.65548	 89.48098	 51.11115	 95.49087	  4.54312	162.16516	702.29999	 31.20	
  5.109	-142.013	160.58983	 52.56679	 96.04396	 55.25927	 90.60196	  4.54028	162.23184	702.34998	 31.20	
  5.099	-161.165	160.46205	 48.31893	100.78966	 61.35100	 83.95876	  4.57888	162.25172	702.34998	 31.20	
  5.100	180.000	160.43687	 46.30231	103.04429	 68.69934	 76.36356	  4.48151	162.27565	702.44000	 31.30	
  6.800	180.000	158.89203	 37.94234	109.91183	 66.46157	 75.94680	  3.94376	162.35262	702.28998	 31.30	
  6.796	-166.229	158.90802	 39.63145	107.99003	 59.21163	 83.53567	  4.07673	162.35722	702.35999	 31.40	
  6.808	-152.311	159.10582	 43.04845	104.36198	 52.89186	 90.58357	  4.09401	162.42943	702.37000	 31.40	
  6.795	-138.383	159.28664	 47.73950	 98.89471	 47.54849	 96.68062	  3.97750	162.42340	702.25000	 31.50	
  6.792	-124.591	159.54346	 53.64990	 92.52047	 43.71716	101.43089	  3.90914	162.43544	702.44000	 31.50	
  6.787	-110.754	159.88966	 60.62666	 85.38095	 41.35767	104.55142	  3.87512	162.48886	702.38000	 31.60	
  6.800	-96.985	160.12675	 67.80341	 77.87698	 40.49179	105.74961	  3.78462	162.44734	702.40002	 31.60	
  6.800	-83.015	160.54131	 75.65984	 70.10423	 41.60252	105.05968	  3.81038	162.53351	702.33002	 31.70	
  6.787	-69.246	160.84213	 83.20040	 63.56641	 44.21507	102.40643	  3.83645	162.52209	702.34003	 31.70	
  6.792	-55.409	161.06709	 90.13781	 57.65929	 48.30648	 97.96101	  3.84665	162.50504	702.32001	 31.80	
  6.795	-41.617	161.29884	 95.96309	 52.89817	 53.74850	 91.81351	  3.89306	162.55098	702.34003	 31.80	
  6.808	-27.689	161.50490	 99.67946	 49.54726	 60.12536	 84.98820	  3.98579	162.59047	702.37000	 31.90	
  6.796	-13.771	161.61467	101.85056	 47.88951	 67.84496	 77.26167	  4.13293	162.60606	702.37000	 31.90	
  6.800	  0.000	161.64838	102.10612	 47.89565	 76.04203	 69.08802	  4.16597	162.61989	702.22998	 32.00	
  6.796	 13.771	161.62018	100.07922	 49.64331	 83.61461	 61.92286	  4.23788	162.62283	702.35999	 32.00	
  6.808	 27.689	161.52623	 96.48844	 52.89526	 90.91179	 55.32824	  4.29834	162.66985	702.33002	 32.10	
  6.795	 41.617	161.36858	 90.99883	 57.69441	 96.83583	 49.80130	  4.24291	162.68500	702.40002	 32.10	
  6.792	 55.409	161.18062	 84.34418	 63.58252	101.22729	 45.73264	  4.22870	162.73076	702.45001	 32.20	
  6.787	 69.246	160.94547	 76.85082	 70.23076	103.72411	 43.28390	  4.20009	162.74538	702.39001	 32.20	
  6.800	 83.015	160.69543	 69.05289	 78.16451	104.57293	 42.43160	  4.10017	162.77570	702.40997	 32.30	
  6.800	 96.985	160.47635	 61.70430	 85.69949	103.43868	 43.25469	  4.07049	162.82741	702.50000	 32.30	
  6.787	110.754	160.17627	 54.57351	 92.83121	100.26955	 45.76870	  4.03597	162.81912	702.46997	 32.40	
  6.792	124.591	159.95250	 48.48901	 99.40209	 95.61026	 49.58133	  4.04766	162.86438	702.42999	 32.40	
  6.795	138.383	159.73671	 43.70554	104.61939	 89.25278	 54.87363	  4.04134	162.88737	702.46997	 32.40	
  6.808	152.311	159.59653	 40.17344	108.38168	 82.00222	 61.31874	  4.01161	162.91893	702.40997	 32.50	
  6.796	166.229	159.49065	 38.42640	110.21143	 74.35402	 68.28387	  3.93386	162.90187	702.46002	 32.50	
  8.491	168.704	157.35452	 29.74680	116.98331	 71.85256	 67.50928	  3.73717	162.90871	702.38000	 32.50	
  8.502	157.493	157.45737	 30.89972	115.63239	 79.58306	 60.32292	  3.74469	162.92836	702.46002	 32.50	
  8.494	146.194	157.68164	 33.72077	112.63455	 87.29396	 53.45688	  3.80806	162.97972	702.42999	 32.60	
  8.495	135.039	157.97182	 37.69228	108.25196	 94.48725	 47.48700	  3.74421	163.01633	702.42999	 32.70	
  8.487	123.723	158.21982	 42.88160	102.57298	100.56781	 42.43737	  3.69724	163.00600	702.41998	 32.70	
  8.492	112.575	158.48805	 48.90363	 96.05065	105.41817	 38.67522	  3.62217	162.98442	702.42999	 32.80	
  8.510	101.220	158.82893	 55.94375	 88.84093	109.18098	 35.82257	  3.60179	163.04903	702.37000	 32.80	
  8.500	 90.000	159.11047	 63.34307	 81.24635	111.08336	 34.50431	  3.56826	163.02034	702.34003	 32.80	
  8.510	 78.780	159.41095	 71.02415	 73.23978	111.49356	 34.44651	  3.61919	163.02072	702.35999	 32.80	
  8.492	 67.425	159.68405	 78.85636	 65.97672	110.22392	 35.68020	  3.75436	163.01743	702.41998	 32.90	
  8.487	 56.277	159.97885	 86.35171	 59.30910	107.35622	 38.16221	  3.82227	163.05142	702.39001	 32.90	
  8.495	 44.961	160.20523	 93.30189	 53.21172	103.16901	 42.01755	  3.88518	163.02846	702.41998	 33.00	
  8.494	 33.806	160.43459	 99.40698	 48.07016	 97.71447	 46.96201	  3.97773	163.02568	702.28998	 33.00	
  8.502	 22.507	160.66045	104.08991	 43.98100	 90.97166	 53.09108	  4.01779	163.07359	702.38000	 33.00	
  8.491	 11.296	160.72517	107.36716	 41.18307	 83.58796	 59.78488	  4.01615	163.03560	702.41998	 33.10	
  8.500	  0.000	160.79135	109.22195	 39.44537	 75.84369	 66.98666	  3.92160	163.07477	702.29999	 33.10	
  8.491	-11.296	160.77599	109.25326	 39.40429	 67.09768	 75.13824	  3.96389	163.05716	702.34998	 33.10	
  8.502	-22.507	160.72858	107.76334	 40.69991	 59.48357	 83.05449	  3.91519	163.10770	702.39001	 33.20	
  8.494	-33.806	160.61362	104.49741	 43.31856	 53.03104	 90.62032	  3.76911	163.13692	702.39001	 33.20	
  8.495	-44.961	160.45239	 99.87688	 47.21811	 46.81042	 97.39985	  3.62683	163.11783	702.50000	 33.20	
  8.487	-56.277	160.18121	 94.09079	 52.23972	 41.53602	103.41835	  3.64678	163.15018	702.45001	 33.20	
  8.492	-67.425	159.92575	 87.08056	 58.10508	 37.61825	108.04603	  3.63294	163.15855	702.33002	 33.30	
  8.510	-78.780	159.58252	 79.39453	 64.74641	 34.37802	111.32152	  3.58271	163.16051	702.45001	 33.40	
  8.500	-90.000	159.32146	 71.65466	 71.66891	 32.85539	112.81996	  3.53070	163.20911	702.33002	 33.40	
  8.510	-101.220	158.97786	 64.03069	 79.56039	 32.39917	112.90676	  3.55248	163.22025	702.47998	 33.40	
  8.492	-112.575	158.69502	 56.36463	 87.31136	 33.70446	111.26579	  3.60173	163.26320	702.34998	 33.50	
  8.487	-123.723	158.39177	 49.66975	 94.39844	 36.16283	108.12395	  3.61903	163.24818	702.44000	 33.50	
  8.495	-135.039	158.19618	 43.62992	101.20884	 39.87793	103.33662	  3.71805	163.28677	702.46997	 33.60	
  8.494	-146.194	157.91280	 38.34718	107.22820	 44.52949	 97.46496	  3.85914	163.24509	702.39001	 33.60	
  8.502	-157.493	157.81029	 33.97615	112.00394	 50.41067	 90.73603	  3.91462	163.28343	702.53003	 33.70	
  8.491	-168.704	157.72424	 31.09373	115.24923	 57.02950	 83.46111	  3.88305	163.28055	702.46997	 33.70	
  8.500	180.000	157.73160	 29.88937	117.06349	 64.40297	 75.41247	  3.81861	163.32297	702.41998	 33.80	
 10.200	180.000	155.04257	 21.28141	123.67803	 61.45940	 74.19506	  3.99996	163.33943	702.47998	 33.80	
 10.191	-170.497	155.11060	 22.28796	121.67607	 53.98337	 82.46072	  4.03745	163.36581	702.42999	 33.80	
 10.210	-161.034	155.10239	 24.32714	118.58635	 47.13301	 90.00804	  3.98114	163.32397	702.38000	 33.80	
 10.194	-151.526	155.26102	 28.74672	114.30305	 41.17675	 97.08488	  3.95327	163.33182	702.44000	 33.80	
 10.190	-142.105	155.47243	 33.20000	109.02509	 36.06781	103.67630	  3.81408	163.37270	702.44000	 33.90	
 10.215	-132.646	155.70306	 38.50090	102.65553	 31.65707	109.45303	  3.78152	163.38147	702.50000	 33.90	
 10.203	-123.092	156.01111	 44.81678	 95.52836	 28.07262	114.04829	  3.68481	163.40141	702.32001	 34.00	
 10.192	-113.678	156.33418	 51.62104	 88.21954	 25.59585	117.29851	  3.68112	163.40207	702.40997	 34.00	
 10.208	-104.249	156.70485	 59.16237	 80.54565	 24.38794	119.26608	  3.72358	163.41298	702.45001	 34.00	
 10.210	-94.801	157.04817	 66.75451	 72.74744	 24.62457	119.86920	  3.69019	163.37242	702.47998	 34.10	
 10.210	-85.199	157.42114	 74.68769	 65.54418	 25.42951	118.93227	  3.70710	163.37770	702.42999	 34.10	
 10.208	-75.751	157.71980	 82.66633	 58.43084	 27.22153	116.86845	  3.75863	163.38533	702.39001	 34.10	
 10.192	-66.322	158.10361	 90.07690	 52.06504	 30.55953	113.25691	  3.76664	163.38107	702.37000	 34.20	
 10.203	-56.908	158.39636	 97.31990	 46.18998	 34.56871	108.58945	  3.83384	163.40387	702.40997	 34.20	
 10.215	-47.354	158.70195	103.30411	 40.99079	 39.57546	102.74674	  3.81163	163.42735	702.38000	 34.20	
 10.190	-37.895	158.96317	108.36937	 37.07516	 45.53535	 95.71225	  3.89777	163.41032	702.53998	 34.20	
 10.194	-28.474	159.11099	112.36525	 33.89833	 52.06713	 88.52579	  3.99771	163.39885	702.42999	 34.20	
 10.210	-18.966	159.29922	115.07217	 31.94448	 59.11460	 80.82069	  4.10216	163.45763	702.51001	 34.20	
 10.191	 -9.503	159.36211	116.19102	 31.30922	 66.54991	 72.49171	  4.10985	163.41051	702.52002	 34.30	
 10.200	  0.000	159.39580	116.00414	 31.43905	 75.35500	 64.74641	  4.10957	163.44263	702.50000	 34.30	
 10.191	  9.503	159.30119	114.39212	 32.62786	 83.23156	 57.30782	  4.15751	163.44362	702.59003	 34.30	
 10.210	 18.966	159.22388	111.51167	 35.18628	 90.82594	 50.31816	  4.17066	163.51112	702.52002	 34.30	
 10.194	 28.474	159.09636	107.11359	 38.77069	 98.07298	 43.96415	  4.09814	163.51756	702.65002	 34.30	
 10.190	 37.895	158.92450	101.70428	 43.35796	104.24507	 38.55404	  4.00920	163.54874	702.63000	 34.40	
 10.215	 47.354	158.70923	 95.34556	 48.73190	109.56068	 33.98792	  3.93996	163.57022	702.58002	 34.40	
 10.203	 56.908	158.45023	 88.05547	 54.97262	113.88856	 30.34241	  3.84750	163.60510	702.52002	 34.40	
 10.192	 66.322	158.16827	 80.26857	 61.77743	116.78316	 28.02761	  3.69534	163.56403	702.65997	 34.50	
 10.208	 75.751	157.85767	 72.44099	 68.81428	118.54335	 26.65757	  3.60064	163.58893	702.58002	 34.50	
 10.210	 85.199	157.57730	 64.94789	 76.38120	118.66908	 26.05600	  3.52607	163.58574	702.53998	 34.50	
 10.210	 94.801	157.32442	 57.12201	 84.39046	117.43180	 26.72806	  3.53551	163.66164	702.62000	 34.60	
 10.208	104.249	156.96201	 49.82954	 91.92355	114.68514	 28.50037	  3.56119	163.60757	702.54999	 34.60	
 10.192	113.678	156.66940	 43.11137	 99.14770	110.73410	 31.51165	  3.60067	163.60132	702.60999	 34.60	
 10.203	123.092	156.36913	 37.22127	105.83802	105.72171	 35.27661	  3.63266	163.61513	702.57001	 34.70	
 10.215	132.646	156.07852	 31.88541	111.87257	 99.58093	 39.95023	  3.77560	163.61090	702.62000	 34.70	
 10.190	142.105	155.79214	 27.58353	116.67249	 92.52528	 45.62952	  3.86940	163.61322	702.64001	 34.70	
 10.194	151.526	155.61516	 24.28797	120.37920	 85.11978	 52.12698	  4.04482	163.63826	702.50000	 34.70	
 10.210	161.034	155.45186	 22.28940	123.10203	 77.20175	 59.30159	  3.93148	163.64278	702.65002	 34.80	
 10.191	170.497	155.41533	 21.56384	124.21723	 69.13470	 66.70768	  3.93145	163.63199	702.58002	 34.80	
 11.899	171.783	152.28307	 13.04227	130.00890	 65.70164	 65.23656	  4.23731	163.64307	702.54999	 34.80	
 11.890	163.610	152.47685	 13.70389	129.36655	 73.30043	 57.74357	  4.17398	163.72098	702.60999	 34.80	
 11.889	155.445	152.50523	 15.00104	127.38937	 81.80910	 50.31950	  4.32849	163.67026	702.60999	 34.80	
 11.909	147.299	152.66139	 17.52380	124.21634	 89.49769	 43.60262	  4.32515	163.68153	702.67999	 34.90	
 11.902	139.148	152.84213	 20.92859	119.81902	 97.00072	 37.49989	  4.03326	163.67224	702.60999	 35.00	
 11.894	130.867	153.22528	 25.82947	114.41560	104.08498	 32.13168	  3.90442	163.67326	702.66998	 35.10	
 11.897	122.732	153.48000	 30.90158	108.45305	110.18958	 27.63777	  3.75358	163.69101	702.64001	 35.20	
 11.903	114.597	153.76637	 36.70982	101.69291	115.31734	 23.59711	  3.79015	163.70589	702.53998	 35.20	
 11.893	106.346	154.09418	 43.37226	 94.33447	119.40810	 20.60777	  3.80476	163.66109	702.65997	 35.30	
 11.892	 98.155	154.41571	 50.63589	 86.62393	122.58852	 18.42859	  3.81031	163.65590	702.63000	 35.30	
 11.900	 90.000	154.77347	 58.21891	 78.90859	124.50315	 17.41003	  3.76349	163.69002	702.71002	 35.30	
 11.892	 81.845	155.07646	 65.90863	 71.16885	125.15417	 17.46819	  3.76836	163.70937	702.66998	 35.30	
 11.893	 73.654	155.42232	 73.50304	 63.92487	124.46609	 18.47256	  3.90495	163.69843	702.66998	 35.40	
 11.903	 65.403	155.66364	 81.40800	 56.76558	122.60667	 19.71696	  4.00000	163.68434	702.71997	 35.40	
 11.897	 57.268	155.95615	 89.16585	 50.03922	119.57023	 22.22099	  4.14156	163.68362	702.65002	 35.40	
 11.894	 49.133	156.22906	 96.63492	 43.89327	115.15843	 25.79284	  4.22602	163.62617	702.60999	 35.40	
 11.902	 40.852	156.49507	103.38442	 38.25796	109.93312	 30.17620	  4.31214	163.61862	702.65997	 35.40	
 11.909	 32.701	156.71257	109.25349	 33.46978	103.97450	 35.27147	  4.27513	163.61661	702.65002	 35.50	
 11.889	 24.555	156.93900	114.21158	 29.59051	 97.19473	 41.07229	  4.33303	163.64389	702.71002	 35.50	
 11.890	 16.390	157.06920	118.12806	 26.30450	 89.75974	 47.38303	  4.38230	163.63171	702.71002	 35.50	
 11.899	  8.217	157.14096	120.94192	 24.13887	 82.20918	 54.38344	  4.35173	163.62135	702.76001	 35.60	
 11.900	  0.000	157.26768	122.55873	 23.16252	 74.06219	 62.05936	  4.38768	163.62950	702.71002	 35.70	
 11.899	 -8.217	157.22142	122.99235	 22.88553	 65.66760	 69.73640	  4.37991	163.61818	702.69000	 35.70	
 11.890	-16.390	157.18433	121.94773	 23.27666	 58.40415	 77.86903	  4.27769	163.64481	702.67999	 35.70	
 11.889	-24.555	157.07155	119.83760	 24.69320	 50.98153	 85.85503	  4.27232	163.67406	702.70001	 35.70	
 11.909	-32.701	156.81926	116.38766	 27.12457	 43.92429	 93.41293	  4.24437	163.64784	702.62000	 35.70	
 11.902	-40.852	156.61855	112.00838	 30.63808	 37.67324	100.54378	  4.20172	163.65262	702.60999	 35.80	
 11.894	-49.133	156.41269	106.40706	 34.84159	 32.20048	107.40656	  4.15111	163.67627	702.65997	 35.80	
 11.897	-57.268	156.09511	100.21066	 39.83113	 27.36228	113.16978	  4.15965	163.66678	702.69000	 35.80	
 11.903	-65.403	155.75955	 92.85489	 45.37790	 22.98047	118.17937	  4.09522	163.71495	702.69000	 35.80	
 11.893	-73.654	155.33145	 85.34455	 51.71317	 19.60089	122.05155	  4.04658	163.63829	702.71002	 35.90	
 11.892	-81.845	154.92816	 77.18094	 58.72287	 17.42045	124.92731	  4.00762	163.60190	702.65997	 35.90	
 11.900	-90.000	154.61455	 69.31335	 66.15280	 16.19843	126.42010	  4.00265	163.64334	702.59003	 35.90	
 11.892	-98.155	154.29131	 61.78816	 73.32841	 15.66391	126.67117	  4.03999	163.67526	702.76001	 35.90	
 11.893	-106.346	153.91389	 54.05067	 81.13399	 15.73806	125.58335	  4.02388	163.66064	702.71002	 36.00	
 11.903	-114.597	153.60478	 46.52819	 88.99013	 17.08813	123.10338	  4.03398	163.67522	702.79999	 36.00	
 11.897	-122.732	153.29153	 39.73120	 96.37276	 19.62239	119.60680	  4.08010	163.68742	702.65002	 36.00	
 11.894	-130.867	153.05751	 33.49073	103.68701	 23.19076	115.11663	  4.10395	163.67746	702.73999	 36.00	
 11.902	-139.148	152.77406	 27.86334	110.43310	 27.31318	109.53449	  4.04077	163.70024	702.73999	 36.00	
 11.909	-147.299	152.55275	 23.04821	116.20928	 32.11587	103.25417	  4.12736	163.68742	702.64001	 36.10	
 11.889	-155.445	152.45647	 19.18186	121.11353	 37.81746	 96.09588	  4.21211	163.71918	702.70001	 36.10	
 11.890	-163.610	152.39635	 15.64327	125.21466	 44.13721	 88.76422	  4.29406	163.73070	702.65997	 36.10	
 11.899	-171.783	152.35544	 13.79385	128.17957	 50.95255	 81.01884	  4.24391	163.72551	702.71002	 36.10	
 11.900	180.000	152.25508	 12.78909	129.76489	 58.42310	 72.77678	  4.25086	163.72075	702.73999	 36.10	
 13.600	180.000	148.58041	  2.38581	135.07538	 54.58176	 70.79499	  4.50784	163.72084	702.67999	 36.10	
 13.608	-172.853	148.59210	  3.20045	133.53197	 47.38467	 78.71482	  4.48875	163.75105	702.73999	 36.10	
 13.611	-165.583	148.65982	  5.17741	131.04233	 40.20615	 87.00804	  4.50614	163.74568	702.64001	 36.10	
 13.601	-158.353	148.81857	  9.17276	127.37633	 33.87384	 94.56162	  4.30333	163.77480	702.69000	 36.10	
 13.609	-151.210	148.85405	 12.63964	122.57133	 28.03931	101.86308	  4.36233	163.74425	702.73999	 36.20	
 13.611	-143.999	149.05919	 17.08974	117.12903	 22.71738	108.67154	  4.38999	163.72115	702.84998	 36.20	
 13.601	-136.825	149.37828	 22.20018	111.01105	 18.29270	114.85970	  4.41087	163.80356	702.77002	 36.20	
 13.596	-129.640	149.57072	 27.89993	104.25979	 14.03852	120.16825	  4.39442	163.71910	702.72998	 36.20	
 13.611	-122.431	149.77809	 34.22606	 96.60471	 10.61568	124.97205	  4.41837	163.74484	702.81000	 36.30	
 13.604	-115.211	150.22787	 41.14833	 89.17529	  8.29327	128.39777	  4.40355	163.73434	702.75000	 36.30	
 13.595	-108.042	150.57280	 48.35441	 81.44852	  6.87421	130.72943	  4.36407	163.73909	702.77002	 36.30	
 13.607	-100.793	150.86926	 56.20803	 73.46120	  6.18357	132.00975	  4.21561	163.72853	702.70001	 36.30	
 13.601	-93.617	151.21358	 63.52074	 66.29778	  6.69483	132.17509	  4.19167	163.72615	702.73999	 36.40	
 13.601	-86.383	151.55991	 71.47817	 58.70237	  7.47785	131.34279	  4.21805	163.71092	702.75000	 36.50	
 13.607	-79.207	151.91637	 79.27577	 51.44160	  9.09844	129.70435	  4.18981	163.72263	702.69000	 36.50	
 13.595	-71.958	152.30167	 87.54562	 44.75659	 11.60050	126.73801	  4.17966	163.71182	702.75000	 36.50	
 13.604	-64.789	152.67639	 95.08810	 38.90102	 14.92994	122.46812	  4.27313	163.71968	702.78998	 36.50	
 13.611	-57.569	153.01683	102.42677	 33.36685	 19.29093	117.50183	  4.37744	163.74158	702.69000	 36.50	
 13.596	-50.360	153.37717	108.84657	 28.38177	 24.29483	111.64194	  4.37491	163.70963	702.73999	 36.60	
 13.601	-43.175	153.65747	114.68102	 23.96478	 29.62986	105.03327	  4.37934	163.72675	702.70001	 36.60	
 13.611	-36.001	153.81877	119.64129	 20.05401	 35.46129	 97.84177	  4.31983	163.71735	702.79999	 36.50	
 13.609	-28.790	154.04352	123.67358	 17.08735	 41.97768	 90.50168	  4.36728	163.72681	702.77002	 36.50	
 13.601	-21.647	154.25812	126.59011	 15.14042	 49.41525	 82.63411	  4.37758	163.74657	702.66998	 36.50	
 13.611	-14.417	154.31389	128.57130	 14.04357	 57.06266	 74.16365	  4.47610	163.70993	702.72998	 36.50	
 13.608	 -7.147	154.44183	129.15160	 14.08183	 64.87343	 66.47792	  4.51094	163.70016	702.82001	 36.50	
 13.600	  0.000	154.49905	128.66367	 14.36098	 72.44820	 58.88236	  4.56532	163.66156	702.59998	 36.50	
 13.608	  7.147	154.39304	127.20205	 15.11037	 80.67699	 51.23058	  4.53407	163.76207	702.75000	 36.50	
 13.611	 14.417	154.26167	124.55649	 16.88475	 88.44958	 44.01195	  4.61194	163.69302	702.67999	 36.50	
 13.601	 21.647	154.04591	120.78556	 19.76562	 95.98675	 37.47736	  4.53493	163.71640	702.65002	 36.50	
 13.609	 28.790	153.94644	116.18680	 23.62570	103.18464	 31.57685	  4.53846	163.76405	702.64001	 36.60	
 13.611	 36.001	153.74501	110.63683	 28.09042	109.76904	 26.13211	  4.60393	163.74321	702.66998	 36.60	
 13.601	 43.175	153.53720	104.44069	 33.14026	115.55724	 21.32245	  4.64083	163.76785	702.67999	 36.60	
 13.596	 50.360	153.23262	 97.29534	 38.79583	120.72822	 17.00739	  4.57557	163.76395	702.66998	 36.60	
 13.611	 57.569	152.90518	 89.86893	 44.79148	124.88902	 13.55853	  4.50173	163.75963	702.72998	 36.60	
 13.604	 64.789	152.59955	 81.72744	 51.41988	127.88517	 11.16729	  4.42850	163.73540	702.63000	 36.70	
 13.595	 71.958	152.30975	 74.04190	 58.54163	129.83630	  9.49529	  4.28692	163.74214	702.62000	 36.70	
 13.607	 79.207	152.01070	 66.32774	 65.77779	130.84564	  8.69193	  4.11370	163.77065	702.67999	 36.80	
 13.601	 86.383	151.68839	 58.62496	 72.99973	130.70706	  8.03583	  4.06382	163.74719	702.75000	 36.80	
 13.601	 93.617	151.44106	 51.19305	 81.06911	129.54515	  8.62131	  4.26889	163.79469	702.54999	 36.80	
 13.607	100.793	151.13739	 43.72401	 88.85320	127.31833	 10.29415	  4.32782	163.80392	702.69000	 36.80	
 13.595	108.042	150.83582	 36.66803	 96.47576	123.86854	 12.61314	  4.34315	163.79555	702.72998	 36.90	
 13.604	115.211	150.56274	 30.29965	103.74506	119.39329	 15.67090	  4.21267	163.79330	702.59998	 36.90	
 13.611	122.431	150.29814	 24.37086	110.72264	114.09210	 19.72101	  4.19795	163.80159	702.40002	 36.90	
 13.596	129.640	149.98418	 19.16815	116.93267	107.94088	 24.19989	  4.19090	163.77193	702.09998	 36.90	
 13.601	136.825	149.59830	 14.45229	122.28526	101.05940	 29.23479	  4.24826	163.77144	702.64001	 36.90	
 13.611	143.999	149.21158	 10.21333	127.23214	 93.72238	 35.03525	  4.45463	163.73262	702.63000	 37.00	
 13.609	151.210	149.09770	  6.95120	130.76413	 85.99338	 41.55606	  4.61463	163.76782	702.67999	 37.00	
 13.601	158.353	148.98370	  4.42955	133.41615	 77.81252	 48.40462	  4.54917	163.81650	702.66998	 37.10	
 13.611	165.583	148.74510	  3.19263	134.95500	 69.14655	 55.67017	  4.40493	163.71831	702.72998	 37.10	
 13.608	172.853	148.67714	  2.66812	135.57034	 62.09145	 63.09350	  4.39900	163.77800	701.83002	 37.10	
 15.298	173.587	144.51578	 -6.92288	140.63866	 58.07457	 60.61121	  4.49643	163.79320	701.91998	 37.10	
 15.291	167.167	144.61644	 -6.26552	140.23215	 65.19521	 53.69343	  4.43420	163.73175	701.90002	 37.10	
 15.307	160.676	144.77237	 -5.35558	139.00903	 73.04434	 46.44660	  4.51363	163.77255	702.03998	 37.00	
 15.300	154.261	144.98201	 -3.30047	136.74921	 81.37734	 39.51196	  4.68820	163.77562	702.15997	 37.00	
 15.288	147.854	145.23538	 -0.65797	133.41327	 89.71475	 32.72208	  4.65569	163.74823	702.02002	 37.00	
 15.293	141.428	145.46144	  2.84947	129.47148	 97.49382	 26.41798	  4.48017	163.75758	702.06000	 37.10	
 15.299	134.985	145.78485	  7.01861	124.18330	104.68107	 20.86788	  4.17425	163.74713	701.96002	 37.10	
 15.305	128.583	146.10124	 11.81356	118.70172	111.58240	 15.85598	  4.12815	163.78563	702.00000	 37.10	
 15.309	122.142	146.35042	 17.45691	112.33842	117.65780	 10.80669	  4.22706	163.76469	701.96002	 37.10	
 15.304	115.711	146.72850	 23.35658	105.40947	123.00603	  6.66673	  4.37911	163.76825	701.95001	 37.10	
 15.297	109.291	147.01056	 29.59532	 98.08968	127.73371	  3.37060	  4.53975	163.78851	701.98999	 37.10	
 15.293	102.897	147.25755	 36.48908	 90.53117	131.23511	  0.91330	  4.55382	163.73953	701.96002	 37.10	
 15.293	 96.458	147.51912	 43.70150	 82.68454	133.95949	 -0.86378	  4.49392	163.74846	702.00000	 37.20	
 15.300	 90.000	147.77884	 51.30095	 74.46816	135.78328	 -1.84292	  4.43166	163.74269	702.02002	 37.20	
 15.293	 83.542	148.06927	 58.99020	 66.66106	136.51378	 -1.99104	  4.27030	163.72672	701.98999	 37.20	
 15.293	 77.103	148.37209	 66.34862	 59.77821	136.31494	 -1.25057	  4.32960	163.71852	701.95001	 37.30	
 15.297	 70.709	148.67134	 74.15000	 52.68015	134.99632	 -0.25160	  4.49642	163.68358	702.03998	 37.30	
 15.304	 64.289	149.05963	 81.87259	 45.97294	132.74309	  1.52914	  4.55882	163.71721	702.09998	 37.40	
 15.309	 57.858	149.36368	 90.06923	 39.56983	129.65773	  4.03974	  4.65722	163.72006	702.08002	 37.40	
 15.305	 51.417	149.65027	 97.59113	 33.25554	125.58685	  7.70654	  4.69192	163.64935	702.12000	 37.50	
 15.299	 45.015	149.99847	104.81157	 27.39808	120.55244	 12.21912	  4.70217	163.69162	701.90997	 37.60	
 15.293	 38.572	150.30579	111.29227	 22.24287	114.87960	 17.08281	  4.67098	163.68048	702.09003	 37.60	
 15.288	 32.146	150.53793	117.25972	 17.64847	108.47710	 22.31392	  4.65441	163.69989	702.03003	 37.60	
 15.300	 25.739	150.60016	122.41131	 13.38137	101.55357	 27.88890	  4.63848	163.67232	702.02002	 37.60	
 15.307	 19.324	150.71642	126.86523	  9.71216	 94.01972	 34.01296	  4.54786	163.65126	701.98999	 37.60	
 15.291	 12.833	150.92467	130.07980	  7.06163	 86.56149	 40.76807	  4.53537	163.67932	702.08002	 37.60	
 15.298	  6.413	151.03618	132.63052	  5.22569	 78.56536	 47.76878	  4.57344	163.68185	702.01001	 37.60	
 15.300	  0.000	151.11684	134.07907	  4.52607	 70.46136	 55.29981	  4.59138	163.64885	702.08002	 37.60	
 15.298	 -6.413	151.08427	134.73544	  4.37505	 63.05647	 62.80488	  4.54134	163.67520	702.03003	 37.70	
 15.291	-12.833	151.03256	134.18246	  4.33401	 55.40002	 70.40382	  4.48478	163.69594	702.04999	 37.70	
 15.307	-19.324	150.89906	132.56789	  5.28519	 47.57825	 78.51057	  4.35738	163.63191	702.06000	 37.80	
 15.300	-25.739	150.65240	130.11252	  6.97966	 40.18875	 86.74162	  4.35925	163.61197	702.07001	 37.90	
 15.288	-32.146	150.50569	126.74714	  9.49412	 33.42729	 94.40134	  4.36918	163.65268	702.15002	 37.90	
 15.293	-38.572	150.32745	122.10595	 12.78406	 27.07330	101.89926	  4.42718	163.63252	702.12000	 37.90	
 15.299	-45.015	150.06993	116.75937	 16.80883	 21.13497	108.94212	  4.42106	163.62437	702.07001	 37.90	
 15.305	-51.417	149.80127	110.73218	 21.39731	 15.85079	115.42400	  4.41452	163.66209	702.10999	 38.00	
 15.309	-57.858	149.45038	104.34565	 26.40227	 10.95024	121.09258	  4.36544	163.66643	702.09003	 38.10	
 15.304	-64.289	149.04562	 96.82114	 32.12385	  6.97283	126.38900	  4.29585	163.65291	702.08002	 38.10	
 15.297	-70.709	148.62541	 89.22939	 38.31890	  3.53563	130.63757	  4.20419	163.68542	702.08002	 38.10	
 15.293	-77.103	148.30408	 80.97330	 44.79913	  0.87432	133.68898	  4.13956	163.68573	702.12000	 38.10	
 15.293	-83.542	147.96922	 73.22043	 51.33554	 -1.62074	135.98805	  4.26757	163.66325	702.13000	 38.10	
 15.300	-90.000	147.57854	 65.10773	 58.51474	 -2.97274	137.34843	  4.31626	163.63406	702.07001	 38.10	
 15.293	-96.458	147.21785	 57.60872	 65.83512	 -4.00161	137.62700	  4.31462	163.65935	702.21002	 38.10	
 15.293	-102.897	146.82059	 50.17748	 73.14069	 -4.28146	137.15451	  4.37181	163.66838	702.03998	 38.10	
 15.297	-109.291	146.43907	 42.64520	 80.97921	 -3.06512	135.47183	  4.46072	163.66771	702.08002	 38.20	
 15.304	-115.711	146.08061	 35.42676	 88.97670	 -0.99784	132.90300	  4.46326	163.65996	702.04999	 38.20	
 15.309	-122.142	145.62547	 28.43120	 96.55055	  1.68969	129.56352	  4.47389	163.66524	702.10999	 38.30	
 15.305	-128.583	145.40094	 22.07058	103.89068	  4.91464	124.89677	  4.41742	163.62326	702.08002	 38.30	
 15.299	-134.985	145.23553	 16.34219	110.90540	  8.80217	119.55707	  4.40825	163.65060	702.16998	 38.40	
 15.293	-141.428	145.00359	 11.09171	117.36882	 13.32694	113.58615	  4.37967	163.64149	702.15997	 38.50	
 15.288	-147.854	144.77943	  6.22352	123.18961	 18.28282	106.99261	  4.34170	163.67113	702.15997	 38.50	
 15.300	-154.261	144.61606	  1.56443	128.59225	 23.66538	 99.80779	  4.32834	163.65666	702.21997	 38.50	
 15.307	-160.676	144.48814	 -1.82845	132.84415	 29.68646	 92.34388	  4.42892	163.68320	702.09003	 38.50	
 15.291	-167.167	144.52992	 -4.22025	136.12906	 36.48307	 84.52925	  4.53247	163.68109	702.23999	 38.50	
 15.298	-173.587	144.36673	 -6.00995	138.66954	 43.36891	 76.26660	  4.55003	163.67491	702.19000	 38.50	
 15.300	180.000	144.37314	 -7.07555	140.00351	 50.63653	 68.27703	  4.56584	163.67387	702.15997	 38.50	
 17.000	180.000	139.71106	-15.98496	144.66818	 46.25940	 65.58088	  4.47520	163.71051	702.28998	 38.50	
 16.990	-174.179	139.63640	-14.74230	143.15088	 38.93347	 73.60039	  4.47130	163.62511	702.17999	 38.60	
 17.009	-168.383	139.78442	-13.20420	140.82063	 31.99115	 81.63568	  4.45278	163.68217	702.16998	 38.70	
 17.000	-162.596	139.75760	-11.30474	137.82536	 25.23023	 89.76183	  4.32908	163.65619	702.09998	 38.70	
 16.990	-156.759	139.89981	 -8.26789	133.81245	 19.19759	 97.33431	  4.24582	163.65262	702.16998	 38.70	
 16.995	-150.919	140.07230	 -4.44047	128.97116	 13.70327	104.83586	  4.16407	163.68930	702.10999	 38.70	
 16.988	-145.161	140.17805	 -0.17177	123.28294	  8.60686	111.57732	  4.17067	163.64563	702.12000	 38.80	
 17.014	-139.343	140.33679	  4.58057	117.19180	  3.69556	118.05435	  4.24112	163.62178	702.07001	 38.80	
 17.007	-133.546	140.61435	  9.80696	110.68214	 -1.17998	123.84525	  4.30819	163.66293	702.09003	 38.80	
 17.001	-127.699	140.87587	 16.03657	103.43289	 -5.62791	129.33499	  4.27885	163.70413	702.29999	 38.80	
 17.006	-121.937	140.99609	 22.46195	 96.12399	 -8.77193	133.43581	  4.29148	163.57968	702.19000	 38.80	
 17.002	-116.134	141.40187	 29.32040	 88.52614	-10.96554	137.13632	  4.33248	163.62569	702.29999	 38.90	
 17.001	-110.310	141.71419	 36.45316	 80.26945	-12.47025	139.66258	  4.27278	163.57399	702.27002	 38.80	
 16.988	-104.517	142.10175	 43.96239	 72.44846	-13.26539	141.46918	  4.21795	163.58302	702.23999	 38.80	
 17.008	-98.662	142.35167	 51.53205	 64.56177	-13.67693	142.43532	  4.15309	163.59702	702.16998	 38.80	
 16.996	-92.909	142.87100	 58.62017	 58.09361	-13.35528	142.36481	  4.26145	163.62599	702.21997	 38.80	
 16.996	-87.091	143.28888	 66.58521	 51.46894	-12.41108	141.59857	  4.25493	163.64859	702.34003	 38.80	
 17.012	-81.253	143.66531	 74.63948	 44.35410	-10.88738	139.91055	  4.12336	163.63560	702.26001	 38.80	
 16.988	-75.483	144.09758	 82.37174	 37.53222	 -8.49349	137.46082	  4.04786	163.61627	702.33002	 38.90	
 17.001	-69.690	144.47536	 90.62775	 30.99456	 -5.06589	133.90993	  4.05569	163.57991	702.20001	 38.90	
 17.002	-63.866	144.90257	 98.26678	 24.92020	 -1.31899	129.83778	  4.17693	163.60680	702.33002	 38.90	
 17.006	-58.063	145.28389	105.62918	 19.09927	  2.96751	124.48484	  4.26580	163.58820	702.22998	 38.90	
 17.001	-52.301	145.66759	112.16843	 13.77765	  7.58642	118.81834	  4.29224	163.57239	702.14001	 39.00	
 17.007	-46.454	145.89503	118.37611	  8.96947	 12.45472	112.48237	  4.31006	163.54645	702.20001	 39.00	
 17.014	-40.657	146.14767	123.89237	  4.94168	 17.95609	105.89252	  4.29321	163.54753	702.19000	 39.00	
 16.988	-34.839	146.46411	128.90656	  1.85756	 24.33395	 98.18469	  4.26657	163.55435	702.23999	 39.00	
 16.995	-29.081	146.62302	132.78938	 -0.78768	 30.95262	 90.64589	  4.24107	163.53839	702.33002	 39.00	
 16.990	-23.241	146.87042	135.84528	 -2.73589	 38.04506	 82.63315	  4.21023	163.54034	702.16998	 39.00	
 17.000	-17.404	147.06725	137.95929	 -4.19627	 45.43893	 74.32034	  4.28670	163.55902	702.25000	 39.00	
 17.009	-11.617	147.15926	139.17618	 -4.87077	 52.97689	 66.33177	  4.35297	163.52461	702.23999	 39.10	
 16.990	 -5.821	147.19066	139.49315	 -4.66106	 60.60505	 58.62502	  4.44758	163.53212	702.22998	 39.10	
 17.000	  0.000	147.15552	138.99123	 -4.56401	 68.11938	 51.16203	  4.48179	163.53214	702.27002	 39.10	
 16.990	  5.821	147.03038	137.62766	 -3.77599	 75.97067	 43.98866	  4.37496	163.49496	702.17999	 39.20	
 17.009	 11.617	146.89880	135.38184	 -2.21716	 84.17345	 36.92349	  4.36088	163.48436	702.27002	 39.20	
 17.000	 17.404	146.79601	132.12077	  0.11206	 91.86959	 30.08484	  4.34113	163.54849	702.32001	 39.20	
 16.990	 23.241	146.67067	128.10205	  3.06464	 99.41449	 23.71888	  4.40967	163.52785	702.28998	 39.20	
 16.995	 29.081	146.50272	123.10406	  6.45625	106.68556	 17.88824	  4.42407	163.54608	702.27002	 39.20	
 16.988	 34.839	146.32767	117.62041	 10.59283	113.42841	 11.96017	  4.58994	163.58620	702.33002	 39.20	
 17.014	 40.657	146.01288	111.36636	 15.56655	119.70672	  6.31336	  4.62076	163.62216	702.25000	 39.20	
 17.007	 46.454	145.72670	104.82336	 21.55400	125.25866	  2.06073	  4.64083	163.60681	702.25000	 39.20	
 17.001	 52.301	145.43324	 97.19092	 27.55725	130.09766	 -1.50933	  4.57144	163.56195	702.27002	 39.20	
 17.006	 58.063	145.09473	 89.87389	 33.69809	133.97348	 -4.44099	  4.54275	163.59352	702.17999	 39.20	
 17.002	 63.866	144.74985	 81.63774	 40.26376	137.20392	 -6.77839	  4.53362	163.60608	702.28998	 39.20	
 17.001	 69.690	144.37260	 73.69590	 47.15630	139.50249	 -8.77610	  4.45333	163.56444	702.29999	 39.20	
 16.988	 75.483	144.08904	 65.77301	 53.92441	140.81750	 -9.85822	  4.43557	163.55693	702.29999	 39.20	
 17.012	 81.253	143.75082	 58.79243	 60.15792	141.45752	-10.59766	  4.40618	163.60663	702.23999	 39.20	
 16.996	 87.091	143.42345	 51.00073	 67.77721	141.09956	-10.71571	  4.42783	163.56992	702.19000	 39.20	
 16.996	 92.909	143.16727	 43.46738	 75.62026	139.81624	-10.08116	  4.50527	163.55109	702.23999	 39.30	
 17.008	 98.662	142.77142	 35.92479	 83.57219	137.79178	 -8.94416	  4.58797	163.55264	702.29999	 39.30	
 16.988	104.517	142.51511	 29.04912	 91.58589	134.63200	 -6.86098	  4.62189	163.53638	702.27002	 39.30	
 17.001	110.310	142.15741	 22.34869	 99.02998	130.84653	 -4.19574	  4.60076	163.52580	702.27002	 39.30	
 17.002	116.134	141.95522	 15.33218	106.43716	126.16859	 -1.16805	  4.41323	163.59218	702.34003	 39.30	
 17.006	121.937	141.74258	  9.32744	113.56728	120.57543	  2.47965	  4.31410	163.59418	702.31000	 39.40	
 17.001	127.699	141.47845	  4.52113	119.82493	114.62637	  6.55620	  4.16333	163.56590	702.27002	 39.40	
 17.007	133.546	141.28185	  0.12815	125.67051	107.78860	 11.26711	  4.09758	163.62997	702.25000	 39.40	
 17.014	139.343	140.90662	 -3.82734	131.09111	100.56384	 17.20759	  4.31080	163.57945	702.28998	 39.50	
 16.988	145.161	140.70621	 -7.24620	135.38211	 93.09065	 23.68209	  4.61484	163.64687	702.25000	 39.50	
 16.995	150.919	140.40897	-10.17751	139.02821	 84.92953	 29.95725	  4.72766	163.55446	702.21002	 39.50	
 16.990	156.759	140.14929	-12.46735	141.81639	 76.58462	 36.88792	  4.65160	163.56116	702.28003	 39.50	
 17.000	162.596	140.03079	-14.13773	143.81177	 68.46780	 44.15565	  4.45654	163.55359	702.34998	 39.50	
 17.009	168.383	139.78123	-15.18653	144.86197	 60.58916	 51.38118	  4.39730	163.53763	702.31000	 39.50	
 16.990	174.179	139.65889	-15.99049	145.00238	 53.80194	 57.66890	  4.45778	163.52859	702.29999	 39.60	
 18.709	174.675	134.40755	-24.95180	149.21254	 49.33406	 54.66828	  4.34573	163.49330	702.28998	 39.60	
 18.703	169.441	134.65358	-24.23205	149.20622	 55.79396	 48.68940	  4.35615	163.58113	702.19000	 39.50	
 18.691	164.085	134.96478	-23.17761	148.27629	 63.74706	 41.24893	  4.41044	163.58902	702.23999	 39.50	
 18.706	158.818	134.98956	-21.82990	146.50322	 71.71670	 33.94820	  4.47236	163.49371	702.33002	 39.50	
 18.695	153.537	135.32547	-19.78113	144.06393	 79.69768	 27.29572	  4.65112	163.55449	702.34003	 39.50	
 18.704	148.255	135.54771	-17.06870	140.62918	 87.98320	 19.89970	  4.53553	163.47261	702.28998	 39.50	
 18.698	142.952	135.82878	-14.10573	136.78368	 95.90617	 13.46836	  4.37293	163.52847	702.28003	 39.50	
 18.699	137.625	136.12189	-10.34518	132.08104	103.36903	  8.06577	  4.10064	163.49553	702.40997	 39.50	
 18.705	132.343	136.33757	 -6.50328	126.56184	110.50034	  3.32303	  4.04989	163.49509	702.39001	 39.60	
 18.713	127.067	136.60988	 -2.21771	120.69101	117.22071	 -1.08760	  4.16474	163.51796	702.35999	 39.60	
 18.700	121.794	136.78313	  2.58061	114.25083	123.16029	 -5.30464	  4.28781	163.46864	702.26001	 39.60	
 18.698	116.504	137.13107	  7.99603	107.26296	128.77840	 -8.74466	  4.43241	163.50114	702.29999	 39.70	
 18.707	111.165	137.45242	 13.82253	 99.93412	133.71893	-11.73379	  4.55965	163.56937	702.21997	 39.70	
 18.690	105.863	137.70360	 20.47068	 92.43817	137.63452	-14.54560	  4.57454	163.50368	702.22998	 39.70	
 18.696	100.583	137.96240	 28.29351	 84.42654	140.90843	-16.84756	  4.57299	163.52394	702.28003	 39.70	
 18.700	 95.309	138.26540	 35.43678	 76.49417	143.46783	-18.29588	  4.54699	163.54903	702.31000	 39.80	
 18.700	 90.000	138.56335	 43.06635	 68.56730	145.07571	-19.27754	  4.44500	163.55354	702.32001	 39.80	
 18.700	 84.691	138.74307	 50.62174	 60.74825	145.79437	-19.73949	  4.30702	163.48271	702.26001	 39.90	
 18.696	 79.417	139.15154	 57.88245	 54.41236	145.84186	-19.25025	  4.42799	163.57417	702.29999	 39.90	
 18.690	 74.137	139.56061	 65.23849	 48.12613	145.20316	-18.47869	  4.53681	163.63548	702.28003	 39.90	
 18.707	 68.835	139.73680	 73.14664	 40.87835	143.64044	-17.17460	  4.53534	163.57297	702.40997	 39.90	
 18.698	 63.496	140.08348	 81.26974	 34.00827	141.19859	-15.10019	  4.51063	163.59512	702.35999	 39.90	
 18.700	 58.206	140.38847	 89.35864	 27.55141	137.99963	-12.59554	  4.54703	163.56647	702.35999	 40.00	
 18.713	 52.933	140.66194	 96.87067	 21.32988	134.04761	 -9.71740	  4.51687	163.58029	702.25000	 40.00	
 18.705	 47.657	140.89417	104.34789	 14.72027	129.28773	 -6.13917	  4.50503	163.44118	702.31000	 40.20	
 18.699	 42.375	141.26707	111.14146	  9.49647	123.75419	 -2.17672	  4.49376	163.43089	702.33002	 40.20	
 18.698	 37.048	141.61476	117.54447	  4.89615	117.81834	  2.31463	  4.46849	163.48703	702.40997	 40.20	
 18.704	 31.745	141.72533	123.43899	  0.68203	111.19294	  7.06270	  4.50171	163.44218	702.35999	 40.20	
 18.695	 26.463	141.92767	128.87407	 -3.04800	104.01305	 12.82613	  4.47602	163.41759	702.32001	 40.20	
 18.706	 21.182	142.15274	133.55309	 -6.28217	 96.79270	 19.77348	  4.54243	163.53745	702.38000	 40.10	
 18.691	 15.915	142.36406	137.26262	 -8.89465	 89.23058	 26.37436	  4.51742	163.54407	702.46997	 40.10	
 18.703	 10.559	142.47475	140.22231	-11.11274	 80.87300	 33.22686	  4.51486	163.56607	702.45001	 40.10	
 18.709	  5.325	142.56854	142.39711	-12.69739	 73.30341	 40.34853	  4.54310	163.56778	702.42999	 40.10	
 18.700	  0.000	142.70453	143.77531	-13.63027	 65.39304	 47.76864	  4.55550	163.56546	702.45001	 40.10	
 18.709	 -5.325	142.69742	144.43474	-13.78367	 57.84203	 54.42243	  4.56411	163.58469	702.40997	 40.10	
 18.703	-10.559	142.62823	144.08321	-13.76855	 50.75810	 61.63721	  4.51619	163.51791	702.34003	 40.20	
 18.691	-15.915	142.56540	143.10564	-13.29018	 43.36891	 69.76395	  4.44067	163.58842	702.37000	 40.20	
 18.706	-21.182	142.39517	141.23871	-12.14586	 35.84183	 77.88300	  4.38174	163.59999	702.25000	 40.20	
 18.695	-26.463	142.26471	138.52449	-10.22629	 28.72112	 86.10603	  4.42305	163.57367	702.41998	 40.20	
 18.704	-31.745	141.98405	134.98329	 -7.97836	 21.82843	 94.06234	  4.38121	163.52374	702.34003	 40.20	
 18.698	-37.048	141.73108	130.62799	 -5.15391	 15.53335	101.63058	  4.36990	163.53311	702.41998	 40.20	
 18.699	-42.375	141.54935	125.53208	 -1.77429	  9.84162	108.88300	  4.39618	163.57813	702.29999	 40.20	
 18.705	-47.657	141.20972	119.84549	  2.09183	  3.59335	115.38094	  4.34796	163.51697	702.35999	 40.30	
 18.713	-52.933	140.96527	113.48277	  6.62361	 -2.21589	121.72433	  4.42020	163.52815	702.41998	 40.30	
 18.700	-58.206	140.63750	106.81040	 11.61963	 -6.51986	127.45293	  4.36799	163.52541	702.34003	 40.30	
 18.698	-63.496	140.30202	 99.46110	 17.21709	-10.28810	132.69698	  4.33001	163.54434	702.35999	 40.40	
 18.707	-68.835	139.84732	 91.79556	 23.45391	-13.70451	136.92833	  4.29204	163.50281	702.40002	 40.40	
 18.690	-74.137	139.57587	 83.44691	 30.10919	-16.20491	140.40021	  4.21578	163.57091	702.38000	 40.50	
 18.696	-79.417	139.07428	 75.74294	 36.62066	-18.54112	143.22289	  4.23727	163.51735	702.34998	 40.50	
 18.700	-84.691	138.65822	 67.75691	 43.69861	-20.11925	145.27261	  4.27763	163.56186	702.25000	 40.50	
 18.700	-90.000	138.26563	 59.64755	 51.06872	-21.56817	146.45926	  4.33284	163.55426	702.28003	 40.60	
 18.700	-95.309	137.83385	 51.62824	 58.10679	-21.79370	146.96431	  4.29180	163.57387	702.34003	 40.60	
 18.696	-100.583	137.40164	 45.17776	 63.73381	-21.95395	146.58679	  4.21420	163.52692	702.31000	 40.50	
 18.690	-105.863	137.13794	 37.75135	 71.47970	-21.38285	145.48730	  4.27404	163.55978	702.25000	 40.50	
 18.707	-111.165	136.77501	 30.45047	 79.34325	-20.34070	143.51526	  4.32388	163.54460	702.40002	 40.50	
 18.698	-116.504	136.48138	 22.95257	 87.45711	-18.59852	140.61046	  4.41414	163.53404	702.28003	 40.50	
 18.700	-121.794	136.11171	 15.84285	 95.29662	-16.49506	137.19530	  4.33590	163.55412	702.25000	 40.50	
 18.713	-127.067	135.79054	  9.53476	102.59866	-14.03246	132.90869	  4.30642	163.54887	702.34003	 40.60	
 18.705	-132.343	135.64105	  4.01834	109.89104	-10.92387	127.77205	  4.26941	163.53325	702.31000	 40.60	
 18.699	-137.625	135.36510	 -1.22614	116.54414	 -7.07679	122.04086	  4.36300	163.55412	702.40997	 40.60	
 18.698	-142.952	135.12889	 -5.82861	122.82009	 -1.87346	115.78015	  4.32917	163.52550	702.34998	 40.70	
 18.704	-148.255	134.99063	 -9.91603	128.64616	  4.16926	109.26216	  4.32480	163.54845	702.37000	 40.70	
 18.695	-153.537	134.89336	-13.65935	133.95953	  9.42964	101.88773	  4.30190	163.56964	702.33002	 40.80	
 18.706	-158.818	134.71844	-16.84584	138.43011	 14.83750	 94.45931	  4.39392	163.55254	702.27002	 40.80	
 18.691	-164.085	134.65015	-19.69392	141.95509	 20.85152	 86.71557	  4.50523	163.53917	702.35999	 40.80	
 18.703	-169.441	134.61302	-21.47526	145.05888	 27.47412	 78.44611	  4.61016	163.54327	702.39001	 40.80	
 18.709	-174.675	134.43036	-23.18131	147.27411	 34.43757	 70.47456	  4.64583	163.53111	702.41998	 40.80	
 18.700	180.000	134.50606	-24.32606	148.68483	 41.96843	 62.36031	  4.64090	163.56993	702.34003	 40.80	
 20.400	180.000	128.95552	-33.04490	152.21547	 37.17525	 59.28815	  4.56453	163.55446	702.38000	 40.80	
 20.401	-175.153	128.92842	-31.86195	150.82312	 29.77152	 66.88599	  4.58840	163.53424	702.46002	 40.80	
 20.407	-170.264	128.92984	-30.47344	148.80019	 22.70909	 74.96294	  4.50389	163.53784	702.40997	 40.80	
 20.410	-165.423	128.98898	-28.74209	145.97018	 16.18399	 82.82354	  4.46412	163.53419	702.26001	 40.90	
 20.392	-160.496	129.05544	-26.15172	142.23117	 10.16919	 91.14352	  4.35152	163.49332	702.31000	 40.90	
 20.401	-155.705	129.21361	-23.02058	138.29994	  4.83379	 98.65074	  4.25285	163.56566	702.28003	 41.00	
 20.405	-150.835	129.37430	-19.34595	133.45633	 -1.42729	105.99157	  4.27101	163.52579	702.32001	 41.00	
 20.397	-145.903	129.55008	-15.42181	127.68676	 -7.05502	113.08872	  4.22496	163.49313	702.34003	 41.00	
 20.392	-141.062	129.74889	-11.39396	121.80467	-11.61495	119.60108	  4.28832	163.52431	702.33002	 41.00	
 20.396	-136.227	129.95253	 -6.87120	115.39614	-15.41686	125.57649	  4.24710	163.50162	702.39001	 41.00	
 20.408	-131.372	130.08327	 -1.98212	108.61857	-18.94868	131.21971	  4.14769	163.47025	702.40997	 41.00	
 20.410	-126.511	130.29942	  3.77794	101.25457	-21.86634	136.14340	  4.20518	163.49919	702.38000	 41.00	
 20.400	-121.604	130.60188	  9.59322	 93.79385	-24.43296	140.29019	  4.22168	163.49455	702.39001	 41.10	
 20.403	-116.741	130.84903	 15.66384	 85.76191	-26.72083	143.86949	  4.21296	163.43814	702.35999	 41.00	
 20.413	-111.900	131.20235	 22.62889	 77.92094	-28.60094	146.78145	  4.24246	163.46863	702.40997	 41.00	
 20.398	-107.004	131.52876	 30.34979	 69.97984	-29.79801	148.81441	  4.13654	163.44548	702.33002	 41.00	
 20.394	-102.132	131.85388	 38.53938	 62.48362	-30.67196	150.14978	  4.13012	163.47736	702.53003	 41.00	
 20.403	-97.332	132.19357	 44.86103	 56.67386	-30.76196	150.74817	  4.15179	163.49283	702.54999	 41.00	
 20.392	-92.440	132.61813	 52.08378	 49.79104	-30.55918	150.60408	  4.21568	163.46033	702.51001	 41.00	
 20.392	-87.560	133.09570	 60.15173	 42.44724	-29.51942	149.83395	  4.22314	163.46336	702.46002	 41.00	
 20.403	-82.668	133.44125	 68.20418	 35.24602	-28.09858	148.35240	  4.14090	163.41502	702.46997	 41.00	
 20.394	-77.868	133.83588	 76.36471	 28.15969	-26.59916	146.05025	  4.18602	163.42537	702.45001	 41.00	
 20.398	-72.996	134.24330	 83.94237	 21.56729	-24.42961	143.06728	  4.15721	163.40442	702.42999	 41.00	
 20.413	-68.100	134.72585	 92.33647	 15.34809	-21.59866	139.41420	  4.16622	163.41751	702.51001	 41.00	
 20.403	-63.259	135.15578	 99.88967	  9.77360	-18.31992	134.99483	  4.24308	163.40932	702.52002	 41.00	
 20.400	-58.396	135.54813	107.25093	  4.51921	-14.69759	130.01871	  4.25810	163.41743	702.46002	 41.10	
 20.410	-53.489	135.82971	114.04268	 -0.59258	-10.67316	124.10802	  4.29114	163.40334	702.40997	 41.10	
 20.408	-48.628	136.05153	120.42713	 -5.15197	 -6.13766	117.91092	  4.24207	163.35895	702.47998	 41.00	
 20.396	-43.773	136.46526	126.26930	 -8.91105	 -0.70056	111.25360	  4.23941	163.37404	702.39001	 41.00	
 20.392	-38.938	136.63963	131.61093	-12.40370	  6.10223	104.44886	  4.23604	163.38701	702.39001	 41.00	
 20.397	-34.097	136.81873	136.24054	-15.41775	 12.48743	 97.09166	  4.27283	163.36383	702.42999	 41.00	
 20.405	-29.165	137.05972	140.24718	-18.00797	 18.94290	 89.09206	  4.26544	163.39842	702.41998	 41.00	
 20.401	-24.295	137.25916	143.27599	-19.93101	 25.68228	 80.89983	  4.31838	163.36021	702.39001	 41.10	
 20.392	-19.504	137.41093	145.69498	-21.42120	 32.73014	 72.96555	  4.26758	163.33487	702.44000	 41.10	
 20.410	-14.577	137.46750	147.31575	-22.56153	 40.47629	 64.58971	  4.34430	163.29688	702.50000	 41.20	
 20.407	 -9.736	137.65092	148.16309	-22.91938	 48.07735	 56.67133	  4.42214	163.31616	702.45001	 41.20	
 20.401	 -4.847	137.63515	148.27943	-22.97550	 54.68676	 50.46461	  4.43899	163.28966	702.46002	 41.30	
 20.400	  0.000	137.65640	147.65666	-22.68068	 62.08442	 43.61909	  4.43602	163.28709	702.56000	 41.30	
 20.401	  4.847	137.57159	146.38213	-21.64800	 70.07396	 35.92587	  4.42650	163.28674	702.53998	 41.40	
 20.407	  9.736	137.43117	144.19754	-20.16164	 77.80052	 28.70503	  4.34144	163.26137	702.59003	 41.40	
 20.410	 14.577	137.26405	141.34532	-18.21645	 85.86692	 21.76385	  4.30388	163.26125	702.40997	 41.40	
 20.392	 19.504	137.10861	137.95175	-15.61110	 93.75110	 14.39675	  4.34946	163.25343	702.47998	 41.30	
 20.401	 24.295	136.88414	133.70320	-12.68477	101.02070	  8.55270	  4.39415	163.22581	702.44000	 41.30	
 20.405	 29.165	136.68663	128.72433	 -9.33937	108.28855	  3.06780	  4.47228	163.23055	702.53003	 41.30	
 20.397	 34.097	136.53236	122.93618	 -5.29617	115.28288	 -2.09520	  4.44946	163.24939	702.46997	 41.30	
 20.392	 38.938	136.40279	116.83814	 -0.81852	121.68552	 -6.64822	  4.47839	163.29169	702.56000	 41.30	
 20.396	 43.773	136.00732	110.40938	  3.77302	127.52907	-11.00591	  4.53568	163.29027	702.52002	 41.30	
 20.408	 48.628	135.69464	103.30346	  8.87199	132.82426	-14.73953	  4.57393	163.31206	702.46002	 41.30	
 20.410	 53.489	135.31819	 95.87328	 14.50735	137.50227	-18.21665	  4.51451	163.28148	702.46997	 41.30	
 20.400	 58.396	135.08633	 87.97066	 20.78936	141.28424	-21.07073	  4.50449	163.26949	702.51001	 41.40	
 20.403	 63.259	134.75320	 80.01948	 27.47913	144.53113	-23.50695	  4.53844	163.27910	702.59998	 41.40	
 20.413	 68.100	134.39661	 72.18204	 34.11248	146.99579	-25.60951	  4.57031	163.28407	702.52002	 41.40	
 20.398	 72.996	134.10303	 64.21673	 41.19054	148.67555	-27.15653	  4.59633	163.31210	702.57001	 41.40	
 20.394	 77.868	133.76718	 56.61055	 48.09283	149.55620	-27.94954	  4.50572	163.29120	702.58002	 41.40	
 20.403	 82.668	133.40472	 50.02116	 54.13264	149.85738	-28.62553	  4.53838	163.27403	702.57001	 41.50	
 20.392	 87.560	133.17882	 42.17607	 61.14182	149.33179	-28.33700	  4.57214	163.23738	702.50000	 41.50	
 20.392	 92.440	132.96407	 34.81117	 68.97556	148.14688	-27.57441	  4.63247	163.26700	702.50000	 41.50	
 20.403	 97.332	132.63231	 26.71924	 76.83741	146.22807	-26.37087	  4.62753	163.27615	702.46002	 41.50	
 20.394	102.132	132.45041	 19.23206	 84.66123	143.50739	-24.49181	  4.63722	163.29425	702.44000	 41.50	
 20.398	107.004	132.20882	 13.07687	 92.65885	140.05328	-22.29537	  4.73998	163.30664	702.47998	 41.50	
 20.413	111.900	131.81917	  7.04164	100.20650	135.89297	-19.55774	  4.65763	163.28746	702.51001	 41.50	
 20.403	116.741	131.68047	  1.73609	107.45655	130.94952	-16.42382	  4.59512	163.28192	702.48999	 41.50	
 20.400	121.604	131.42671	 -3.49487	114.44463	125.39892	-12.90688	  4.53234	163.28941	702.41998	 41.50	
 20.410	126.511	131.15756	 -8.42645	120.98793	119.35394	 -8.95781	  4.43171	163.26625	702.41998	 41.40	
 20.408	131.372	130.86507	-12.84827	126.96908	112.73630	 -4.52127	  4.30122	163.27872	702.57001	 41.40	
 20.396	136.227	130.69791	-16.72712	132.64232	105.66890	  0.29306	  4.29452	163.27866	702.60999	 41.40	
 20.392	141.062	130.51147	-20.31669	137.43971	 98.48505	  5.43096	  4.36868	163.33359	702.53998	 41.40	
 20.397	145.903	130.16653	-23.72868	141.65376	 90.84488	 10.98916	  4.56987	163.31033	702.53998	 41.40	
 20.405	150.835	129.79456	-26.58455	145.36230	 82.40508	 17.09676	  4.76690	163.30379	702.48999	 41.40	
 20.401	155.705	129.60757	-28.99523	148.32303	 74.63277	 23.91923	  4.74017	163.32607	702.51001	 41.50	
 20.392	160.496	129.39754	-30.76988	150.39934	 66.49718	 31.01628	  4.56882	163.31314	702.48999	 41.50	
 20.410	165.423	129.04048	-32.31662	151.84149	 58.11689	 38.18066	  4.51769	163.24672	702.56000	 41.50	
 20.407	170.264	128.94595	-32.91496	152.55304	 51.14408	 45.02060	  4.46166	163.28551	702.50000	 41.50	
 20.401	175.153	128.74744	-33.99015	152.59169	 44.63907	 51.61911	  4.53016	163.25710	702.45001	 41.50	
  0.141	 45.000	163.36238	 72.04089	 81.22434	 75.15540	 75.56686	  6.14105	163.20818	702.45001	 41.50	
  4.001	128.691	162.41406	 57.77365	 93.65050	 86.66731	 61.65294	  5.37871	163.20903	702.41998	 41.50	
  4.002	 76.995	162.90454	 72.98376	 78.60304	 93.19399	 56.59215	  5.52761	163.20824	702.46002	 41.60	
  4.002	 25.892	163.24998	 87.41599	 64.84692	 84.58658	 64.84715	  5.54786	163.22646	702.53003	 41.60	
  4.002	-25.892	163.19232	 89.34436	 62.94379	 67.63138	 81.67326	  5.37354	163.17722	702.51001	 41.60	
  4.002	-76.995	162.92599	 77.00727	 74.25803	 56.06072	 93.14902	  5.24424	163.17000	702.40002	 41.60	
  4.001	-128.691	162.43248	 60.36089	 90.19006	 57.62751	 90.93934	  5.30651	163.17801	702.37000	 41.60	
  4.000	180.000	162.14526	 52.23333	 99.17255	 70.76715	 76.99710	  5.27424	163.18416	702.46997	 41.70	
  8.000	180.000	158.28032	 32.76503	115.13118	 65.31700	 75.94450	  4.08989	163.17484	702.41998	 41.70	
  7.991	-152.370	158.47154	 38.44015	108.51875	 49.60803	 93.14497	  4.22195	163.20570	702.48999	 41.70	
  7.997	-124.550	158.94893	 50.76289	 94.37399	 39.01843	106.23094	  3.93257	163.18239	702.40002	 41.70	
  8.006	-96.837	159.65080	 67.56953	 77.18921	 35.41693	111.04276	  3.88274	163.15590	702.47998	 41.60	
  7.988	-69.228	160.38745	 85.45806	 60.78327	 39.57018	106.95724	  3.90107	163.14771	702.54999	 41.70	
  7.997	-41.563	160.96552	100.05452	 48.29347	 50.49112	 94.48582	  3.96939	163.14081	702.50000	 41.70	
  8.008	-13.821	161.23526	107.25801	 42.19871	 66.29978	 77.34724	  4.28442	163.10254	702.34998	 41.60	
  8.008	 13.821	161.17738	105.10351	 44.23739	 85.19355	 59.45108	  4.39016	163.07069	702.42999	 41.60	
  7.997	 41.563	160.80156	 94.40431	 53.63675	100.62878	 45.36296	  4.33288	163.10889	702.40997	 41.70	
  7.988	 69.228	160.23804	 77.67032	 68.20107	108.93858	 37.78282	  4.16033	163.10014	702.42999	 41.70	
  8.006	 96.837	159.57904	 59.92902	 85.97176	108.45069	 37.66272	  3.95987	163.13486	702.40002	 41.80	
  7.997	124.550	158.89420	 44.54647	102.19029	 99.06485	 45.08824	  4.06799	163.12640	702.46997	 41.90	
  7.991	152.370	158.45073	 34.97153	112.78815	 83.21410	 58.65180	  4.10840	163.16280	702.46002	 41.90	
 12.009	161.059	151.78513	 13.56004	128.79521	 76.13846	 54.96976	  4.46130	163.17099	702.52002	 41.90	
 12.013	142.081	152.11180	 19.39098	121.32182	 94.27856	 39.10513	  4.37803	163.17503	702.46002	 41.90	
 12.006	123.113	152.79037	 30.45957	108.51926	109.84480	 27.46135	  4.02907	163.14911	702.40997	 41.90	
 12.007	104.200	153.47925	 45.04288	 92.02421	120.51996	 19.47203	  4.10425	163.15442	702.53003	 41.90	
 11.989	 85.301	154.20750	 62.40891	 74.08768	124.93780	 16.91351	  4.00561	163.10858	702.54999	 41.90	
 12.013	 66.294	154.80197	 80.34952	 57.08881	122.91015	 19.08204	  4.24641	163.07506	702.46002	 41.90	
 12.012	 47.388	155.52255	 97.99413	 42.23206	114.12309	 26.27378	  4.54038	163.03297	702.44000	 41.90	
 11.990	 28.440	156.12920	111.90948	 30.97996	100.39008	 37.88469	  4.64326	163.07797	702.46002	 41.90	
 11.991	  9.464	156.43765	120.50126	 24.10768	 83.14609	 53.08237	  4.67134	163.03958	702.41998	 41.90	
 11.991	 -9.464	156.57840	122.82052	 22.77536	 64.33629	 70.68422	  4.64598	163.04584	702.50000	 41.90	
 11.990	-28.440	156.23398	118.24083	 25.49031	 47.21109	 89.26774	  4.54972	163.02319	702.46002	 42.00	
 12.012	-47.388	155.75023	107.54185	 33.51791	 32.93063	105.88206	  4.50117	163.08626	702.33002	 42.00	
 12.013	-66.294	154.97394	 91.93868	 45.66644	 22.32958	118.49107	  4.37535	163.07982	702.45001	 42.00	
 11.989	-85.301	154.13361	 73.68829	 61.62709	 16.60598	125.55022	  4.24309	163.05586	702.51001	 42.00	
 12.007	-104.200	153.28391	 55.85404	 78.77656	 15.23911	125.93771	  4.32443	163.08952	702.53003	 42.10	
 12.006	-123.113	152.57005	 39.17136	 96.52273	 19.52646	119.24816	  4.40846	163.08046	702.50000	 42.10	
 12.013	-142.081	151.95537	 25.74472	112.47072	 28.64944	107.15197	  4.28168	163.08273	702.46997	 42.10	
 12.009	-161.059	151.68198	 16.53001	123.98054	 41.89175	 90.76468	  4.51671	163.11560	702.50000	 42.20	
 16.000	180.000	141.97240	-10.60387	141.48964	 48.93998	 66.92854	  4.74960	163.08260	702.46997	 42.20	
 15.990	-165.604	142.22690	 -7.08380	136.76674	 32.48089	 85.95390	  4.71577	163.14174	702.52002	 42.10	
 16.002	-151.165	142.25093	  0.13746	127.05790	 18.17247	103.68176	  4.55279	163.08177	702.42999	 42.10	
 16.002	-136.836	142.79721	 11.95057	113.06823	  6.87212	118.71571	  4.60412	163.04156	702.45001	 42.20	
 15.995	-122.439	143.29797	 25.70903	 96.61600	 -1.75304	130.41748	  4.62374	163.01805	702.57001	 42.20	
 15.993	-107.966	144.15674	 42.31946	 78.22536	 -7.40343	137.33205	  4.60427	162.99857	702.50000	 42.20	
 16.005	-93.629	145.01344	 59.43613	 60.96903	 -7.91611	139.08130	  4.48409	162.99358	702.54999	 42.20	
 15.992	-79.234	145.92746	 77.87685	 44.94054	 -3.88106	136.01909	  4.44454	162.93256	702.48999	 42.30	
 16.009	-64.774	146.84036	 96.37466	 29.85280	  3.55874	127.91421	  4.51225	162.99434	702.47998	 42.30	
 15.997	-50.364	147.69098	112.47504	 17.60703	 13.84386	115.01935	  4.63641	163.00941	702.53003	 42.20	
 15.997	-36.045	148.19911	125.25835	  7.76731	 26.95465	 98.89591	  4.60699	162.94884	702.38000	 42.30	
 16.000	-21.597	148.61475	133.44934	  2.11902	 42.78184	 80.79971	  4.54970	162.94028	702.38000	 42.30	
 16.003	 -7.169	148.92232	136.21381	  0.60416	 60.84434	 62.11808	  4.73511	162.89101	702.31000	 42.20	
 16.003	  7.169	148.79594	133.89494	  1.91193	 78.83604	 44.78448	  4.71710	162.85150	702.45001	 42.20	
 16.000	 21.597	148.40057	126.54574	  7.22659	 96.73051	 29.08913	  4.74348	162.88037	702.46997	 42.20	
 15.997	 36.045	147.97279	114.48925	 17.09652	113.00941	 15.96497	  4.87690	162.87825	702.41998	 42.20	
 15.997	 50.364	147.29358	 98.97629	 29.53410	125.91374	  4.72578	  4.90595	162.89395	702.35999	 42.20	
 16.009	 64.774	146.61992	 80.53917	 44.35212	134.53531	 -2.17114	  4.78818	162.92783	702.45001	 42.20	
 15.992	 79.234	145.95427	 62.70300	 60.21045	137.91333	 -5.09351	  4.62255	162.96860	702.48999	 42.20	
 16.005	 93.629	145.16939	 44.95341	 77.75258	136.46010	 -4.90442	  4.68001	162.93900	702.57001	 42.20	
 15.993	107.966	144.56290	 28.63969	 95.94653	129.68044	 -0.60457	  4.80380	162.93262	702.53998	 42.30	
 15.995	122.439	143.84280	 14.06388	112.80962	118.07037	  7.48412	  4.52176	162.93706	702.44000	 42.30	
 16.002	136.836	143.11447	  2.51634	126.57955	102.78562	 19.52122	  4.49556	162.92171	702.45001	 42.30	
 16.002	151.165	142.50128	 -5.59455	136.44037	 85.10673	 33.67904	  4.93364	162.96764	702.40002	 42.30	
 15.990	165.604	142.18120	 -9.48753	141.25580	 65.83728	 50.16168	  4.66689	162.93417	702.46997	 42.40	
 20.003	168.362	130.03668	-30.64759	151.23987	 54.32722	 43.56275	  4.40774	162.94685	702.54999	 42.40	
 20.008	156.764	130.50320	-27.34977	147.75279	 73.14866	 26.83899	  4.79432	162.92860	702.57001	 42.50	
 20.000	145.147	131.27196	-21.08845	140.07709	 92.01546	 11.33854	  4.51796	162.96083	702.44000	 42.50	
 19.995	133.545	131.82217	-12.77582	128.88965	109.30683	 -0.87904	  4.31249	162.96669	702.53998	 42.50	
 20.009	121.926	132.40215	 -2.28857	114.45028	124.46575	-11.02010	  4.50941	162.99477	702.46002	 42.50	
 20.005	110.327	133.00641	 10.29945	 97.82520	136.28242	-18.49871	  4.67344	162.93974	702.50000	 42.50	
 19.989	 98.733	133.63445	 26.03140	 79.60242	144.31470	-23.76821	  4.65591	162.92694	702.48999	 42.50	
 19.999	 87.075	134.20332	 44.00728	 61.13366	148.20828	-26.28929	  4.57959	162.92064	702.47998	 42.50	
 19.992	 75.457	134.90689	 60.80112	 45.91973	147.95039	-25.45362	  4.53664	162.91351	702.54999	 42.50	
 20.009	 63.844	135.59953	 79.33647	 29.59242	143.63745	-21.70581	  4.54502	162.88670	702.53003	 42.50	
 19.989	 52.269	136.39139	 97.51087	 14.67900	135.27042	-15.30591	  4.53294	162.88766	702.46997	 42.60	
 19.999	 40.602	137.13745	114.11180	  2.39893	122.87551	 -6.42547	  4.51356	162.85434	702.54999	 42.60	
 20.004	 29.051	137.60451	127.96665	 -7.48076	107.64010	  4.87611	  4.54624	162.84798	702.57001	 42.70	
 20.005	 17.433	138.09138	138.35316	-14.74465	 90.55259	 19.42448	  4.37673	162.87735	702.46002	 42.70	
 20.006	  5.780	138.33391	144.60860	-19.25156	 71.89967	 35.76727	  4.38901	162.80292	702.53998	 42.80	
 20.006	 -5.780	138.41335	146.94305	-20.75624	 54.02807	 52.24400	  4.41781	162.82619	702.52002	 42.80	
 20.005	-17.433	138.09908	145.18094	-19.92161	 37.04783	 69.75419	  4.31586	162.80325	702.59003	 42.80	
 20.004	-29.051	137.77362	139.10080	-15.94138	 20.42204	 88.74860	  4.28357	162.82028	702.63000	 42.80	
 19.999	-40.602	137.25926	128.85651	 -9.34480	  6.03770	106.52203	  4.29537	162.78993	702.59003	 42.80	
 19.989	-52.269	136.67468	114.96623	  0.13073	 -7.66233	121.69672	  4.29280	162.81342	702.59998	 42.80	
 20.009	-63.844	135.84512	 98.72357	 11.97964	-16.85165	134.40680	  4.22845	162.80780	702.58002	 42.80	
 19.992	-75.457	134.94881	 80.22759	 26.52985	-23.46560	143.32376	  4.14539	162.87665	702.60999	 42.80	
 19.999	-87.075	133.92886	 61.49669	 42.76073	-27.31657	148.28300	  4.19893	162.84305	702.60999	 42.90	
 19.989	-98.733	132.96530	 44.37238	 58.64404	-28.66144	149.11522	  4.11124	162.85930	702.44000	 42.90	
 20.005	-110.327	132.19395	 26.41782	 75.74170	-26.94422	146.14185	  4.15970	162.88284	702.56000	 42.90	
 20.009	-121.926	131.33391	 10.41954	 94.14539	-22.37935	138.88731	  4.20774	162.84210	702.56000	 42.90	
 19.995	-133.545	130.94325	 -2.49233	111.67673	-15.75540	127.72813	  4.20953	162.93001	702.53003	 42.80	
 20.000	-145.147	130.39177	-13.12749	126.02765	 -6.01088	113.43400	  4.25132	162.90613	702.50000	 42.90	
 20.008	-156.764	129.95914	-21.87118	138.17551	  7.53591	 96.65161	  4.26886	162.88370	702.56000	 42.90	
 20.003	-168.362	129.81592	-27.70396	146.41905	 21.30915	 78.15009	  4.47985	162.86810	702.52002	 43.00	
 20.000	180.000	129.72760	-30.91849	150.83005	 38.20333	 59.60371	  4.57403	162.91052	702.57001	 43.00	
