FileType=PCF
NHL=14
Date=05/31/19	12:44:14
Facility=APL
Serial=16071-14
Customer=NASA
NP=6
Mach=0.300000
Calibration=1:1
CalPts=490
TstPts=95
PortNumbering=AP Standard
Units=Torr C m/s kg/m^3 deg mm 
Theta[deg]	Phi[deg]	P1[Torr]	P2[Torr]	P3[Torr]	P4[Torr]	P5[Torr]	P6[Torr]	Pt[Torr]	Ps[Abs,Torr]	Ts[C]	
  0.000	  0.000	 45.39790	 18.52471	 20.37525	 19.46105	 18.80508	  0.99823	 45.29417	701.77002	 35.00	
  1.691	128.401	 45.35439	 16.75305	 22.10339	 21.13663	 17.13931	  0.92344	 45.29603	701.77002	 35.00	
  1.692	 77.194	 45.38724	 18.73373	 19.99896	 21.97995	 16.51908	  0.98810	 45.29461	701.72998	 35.10	
  1.699	 26.182	 45.39638	 20.61613	 18.18029	 20.84550	 17.47182	  1.02201	 45.31804	701.78003	 35.10	
  1.699	-26.182	 45.39740	 20.86937	 18.01369	 18.61021	 19.68823	  1.02169	 45.29478	701.79999	 35.10	
  1.692	-77.194	 45.40276	 19.29924	 19.49518	 17.10181	 21.20799	  0.98397	 45.30170	701.71002	 35.20	
  1.691	-128.401	 45.38341	 17.15508	 21.71101	 17.23544	 20.94693	  0.94018	 45.31269	701.78003	 35.20	
  1.700	180.000	 45.35799	 16.05929	 22.89862	 19.04856	 19.03612	  0.91903	 45.31149	701.81000	 35.20	
  3.400	180.000	 45.19876	 13.60126	 25.24051	 18.49410	 19.14138	  0.76282	 45.32259	701.70001	 35.20	
  3.388	-152.325	 45.25544	 14.36000	 24.41795	 16.47468	 21.49272	  0.79933	 45.34299	701.71002	 35.30	
  3.397	-124.529	 45.34710	 16.05070	 22.58365	 15.00307	 23.22496	  0.83924	 45.37277	701.65002	 35.30	
  3.399	-96.763	 45.37511	 18.28726	 20.20011	 14.47474	 23.86623	  0.86874	 45.36281	701.71002	 35.30	
  3.394	-69.283	 45.38862	 20.65570	 17.95334	 15.09500	 23.25999	  0.90039	 45.33123	701.65002	 35.40	
  3.400	-41.398	 45.39937	 22.56332	 16.37178	 16.58545	 21.64313	  0.93861	 45.32960	701.69000	 35.40	
  3.401	-14.021	 45.45980	 23.48035	 15.59739	 18.65961	 19.35980	  0.96121	 45.39063	701.75000	 35.40	
  3.401	 14.021	 45.42295	 23.16977	 15.82496	 21.18020	 17.06233	  0.98185	 45.35743	701.87000	 35.40	
  3.400	 41.398	 45.39223	 21.75153	 17.04817	 23.16969	 15.21691	  0.94785	 45.35984	701.88000	 35.50	
  3.394	 69.283	 45.36722	 19.49549	 18.84036	 24.31298	 14.15238	  0.89447	 45.37389	701.88000	 35.50	
  3.399	 96.763	 45.28806	 17.13116	 21.29275	 24.22717	 14.09075	  0.81963	 45.33695	701.75000	 35.50	
  3.397	124.529	 45.22425	 15.13736	 23.49798	 23.02891	 15.10405	  0.76190	 45.32193	701.84003	 35.50	
  3.388	152.325	 45.23880	 13.87445	 24.92306	 20.93398	 16.99680	  0.75234	 45.35212	701.84003	 35.60	
  5.099	161.165	 44.89695	 11.07724	 27.36512	 20.32537	 16.94335	  0.51942	 45.38816	701.82001	 35.60	
  5.109	142.013	 44.89537	 11.85090	 26.43136	 22.76780	 14.70857	  0.51419	 45.36352	701.89001	 35.60	
  5.095	123.033	 44.93007	 13.39582	 24.73407	 24.78622	 12.94082	  0.53414	 45.34963	701.88000	 35.60	
  5.105	104.191	 44.99386	 15.43952	 22.51980	 26.12330	 11.80586	  0.58386	 45.36823	701.83002	 35.60	
  5.093	 85.207	 45.08554	 17.70562	 20.08853	 26.71238	 11.38573	  0.64770	 45.37331	701.90997	 35.70	
  5.104	 66.290	 45.16303	 20.20091	 17.81836	 26.43994	 11.68746	  0.70531	 45.40861	701.90997	 35.70	
  5.094	 47.331	 45.23512	 22.51536	 15.72978	 25.33483	 12.70602	  0.73719	 45.39740	701.81000	 35.70	
  5.089	 28.397	 45.29887	 24.36237	 14.17561	 23.58204	 14.38683	  0.80708	 45.39882	701.84998	 35.80	
  5.096	  9.576	 45.35576	 25.56338	 13.22402	 21.28427	 16.53888	  0.82929	 45.41740	701.84003	 35.80	
  5.096	 -9.576	 45.36073	 25.86169	 12.97934	 18.69363	 18.73267	  0.82112	 45.43095	701.88000	 35.80	
  5.089	-28.397	 45.34900	 25.31241	 13.46761	 16.47021	 21.29102	  0.79359	 45.39880	701.96002	 35.80	
  5.094	-47.331	 45.33680	 23.99531	 14.64731	 14.40287	 23.53652	  0.74895	 45.42441	701.89001	 35.90	
  5.104	-66.290	 45.29114	 21.96635	 16.39714	 12.83406	 25.20969	  0.69806	 45.40960	701.94000	 35.90	
  5.093	-85.207	 45.21315	 19.46523	 18.38184	 12.01495	 26.04467	  0.67628	 45.37441	702.03003	 35.90	
  5.105	-104.191	 45.16833	 17.05037	 20.82601	 11.87297	 26.13370	  0.66800	 45.40341	702.03998	 35.90	
  5.095	-123.033	 45.10640	 14.85479	 23.24920	 12.53449	 25.35150	  0.64793	 45.40338	701.90997	 35.90	
  5.109	-142.013	 45.02541	 12.93043	 25.37690	 13.82352	 23.79326	  0.60129	 45.38763	701.84003	 36.00	
  5.099	-161.165	 44.97699	 11.63603	 26.83220	 15.76534	 21.64235	  0.60127	 45.41229	701.83002	 36.00	
  5.100	180.000	 44.92999	 11.03108	 27.52507	 17.86774	 19.14384	  0.54727	 45.39432	701.87000	 36.00	
  6.800	180.000	 44.41554	  8.45466	 29.58553	 17.23548	 18.97920	  0.26193	 45.40623	702.03998	 36.00	
  6.796	-166.229	 44.44104	  8.88962	 29.02217	 15.03530	 21.42733	  0.31055	 45.39074	701.94000	 36.10	
  6.808	-152.311	 44.49916	  9.82285	 27.88941	 13.04150	 23.71264	  0.31687	 45.39040	701.78003	 36.10	
  6.795	-138.383	 44.58581	 11.33444	 26.22674	 11.38822	 25.67845	  0.36392	 45.41205	701.84998	 36.10	
  6.792	-124.591	 44.64946	 13.15933	 24.15805	 10.23190	 27.09356	  0.31306	 45.38220	701.78003	 36.10	
  6.787	-110.754	 44.72400	 15.26555	 21.80981	  9.49013	 28.02324	  0.34583	 45.39091	701.77002	 36.10	
  6.800	-96.985	 44.79255	 17.52919	 19.34767	  9.26629	 28.36119	  0.35191	 45.38013	701.85999	 36.10	
  6.800	-83.015	 44.86158	 19.93045	 17.33222	  9.51683	 28.16836	  0.36237	 45.38890	701.83002	 36.10	
  6.787	-69.246	 44.90978	 22.30340	 15.25295	 10.26793	 27.30888	  0.40629	 45.37165	701.79999	 36.20	
  6.792	-55.409	 44.92394	 24.38386	 13.40616	 11.46082	 25.88699	  0.40350	 45.33850	701.83002	 36.20	
  6.795	-41.617	 44.98861	 26.13179	 11.97262	 13.19405	 23.95845	  0.38205	 45.36333	701.83002	 36.20	
  6.808	-27.689	 45.00824	 27.39309	 10.91044	 15.28061	 21.68973	  0.52220	 45.37091	701.79999	 36.20	
  6.796	-13.771	 45.00849	 27.99295	 10.37206	 17.43951	 19.13605	  0.54083	 45.37386	701.91998	 36.20	
  6.800	  0.000	 45.01785	 28.02048	 10.37912	 19.84658	 17.03589	  0.56128	 45.38027	701.90002	 36.30	
  6.796	 13.771	 44.95610	 27.37873	 10.82322	 22.32578	 14.74060	  0.58910	 45.34617	701.96997	 36.30	
  6.808	 27.689	 44.92660	 26.15702	 11.80389	 24.56707	 12.69056	  0.52020	 45.38012	702.01001	 36.30	
  6.795	 41.617	 44.87088	 24.41925	 13.22445	 26.40960	 11.03857	  0.39429	 45.38387	701.90002	 36.30	
  6.792	 55.409	 44.78941	 22.30633	 15.02755	 27.79807	  9.78866	  0.44113	 45.37390	701.90002	 36.30	
  6.787	 69.246	 44.72221	 19.97893	 17.15244	 28.65533	  9.02437	  0.40362	 45.38019	701.90002	 36.30	
  6.800	 83.015	 44.68278	 17.57105	 19.25039	 28.94733	  8.76829	  0.33150	 45.40762	701.83002	 36.40	
  6.800	 96.985	 44.61532	 15.32718	 21.74157	 28.56656	  8.98539	  0.23304	 45.40428	701.87000	 36.40	
  6.787	110.754	 44.52974	 13.19702	 24.08235	 27.58804	  9.78857	  0.07362	 45.37535	701.87000	 36.40	
  6.792	124.591	 44.47387	 11.32915	 26.13899	 26.13862	 10.91114	  0.07999	 45.38198	701.88000	 36.40	
  6.795	138.383	 44.44575	  9.86492	 27.82369	 24.22913	 12.56146	  0.07585	 45.40388	701.87000	 36.40	
  6.808	152.311	 44.39752	  8.84790	 28.96891	 21.95099	 14.56724	  0.17269	 45.40323	701.84998	 36.40	
  6.796	166.229	 44.38095	  8.33769	 29.57715	 19.42933	 16.85773	  0.18707	 45.37986	701.84998	 36.50	
  8.491	168.704	 43.72168	  5.64985	 31.59793	 18.65548	 16.52099	 -0.32575	 45.39729	701.84003	 36.50	
  8.502	157.493	 43.72389	  6.00479	 31.16391	 21.06431	 14.20932	 -0.35835	 45.40855	701.90002	 36.50	
  8.494	146.194	 43.76248	  6.74283	 30.26010	 23.56218	 12.05549	 -0.34757	 45.41605	701.88000	 36.50	
  8.495	135.039	 43.79930	  7.84353	 28.89070	 25.73940	 10.16489	 -0.38465	 45.40974	701.96997	 36.50	
  8.487	123.723	 43.85316	  9.39482	 27.15558	 27.67114	  8.56501	 -0.39405	 45.39317	701.87000	 36.60	
  8.492	112.575	 43.87500	 11.21293	 25.07237	 29.14475	  7.38592	 -0.37626	 45.37472	701.90002	 36.60	
  8.510	101.220	 43.97366	 13.34875	 22.68413	 30.28524	  6.60529	 -0.36126	 45.41022	701.95001	 36.60	
  8.500	 90.000	 44.06589	 15.67695	 20.16144	 30.89611	  6.12874	 -0.31241	 45.42060	702.00000	 36.60	
  8.510	 78.780	 44.11680	 17.96608	 17.98630	 31.02870	  6.02741	 -0.10316	 45.40637	701.79999	 36.60	
  8.492	 67.425	 44.19616	 20.39694	 15.68737	 30.58481	  6.45482	 -0.17674	 45.41070	701.88000	 36.60	
  8.487	 56.277	 44.28645	 22.77351	 13.58125	 29.71838	  7.20436	 -0.10511	 45.41533	701.77002	 36.60	
  8.495	 44.961	 44.36132	 25.02525	 11.68412	 28.34104	  8.39028	 -0.02872	 45.42682	701.90002	 36.60	
  8.494	 33.806	 44.43275	 26.96653	 10.12979	 26.60910	  9.91487	  0.07096	 45.44398	701.87000	 36.70	
  8.502	 22.507	 44.48642	 28.48120	  8.89580	 24.50665	 11.77252	  0.08829	 45.41803	701.78003	 36.70	
  8.491	 11.296	 44.55424	 29.56749	  8.05961	 22.14230	 13.91174	  0.10829	 45.42556	701.90002	 36.70	
  8.500	  0.000	 44.57977	 30.15120	  7.63484	 19.57239	 16.26599	  0.07447	 45.42967	701.78003	 36.70	
  8.491	-11.296	 44.62932	 30.19448	  7.66352	 17.28766	 18.50297	  0.05080	 45.45141	701.90002	 36.70	
  8.502	-22.507	 44.59399	 29.71835	  8.00627	 14.95906	 20.96189	  0.15947	 45.40450	701.71997	 36.70	
  8.494	-33.806	 44.58918	 28.74104	  8.83410	 12.79786	 23.40062	  0.03816	 45.42501	701.85999	 36.70	
  8.495	-44.961	 44.56157	 27.28786	  9.98300	 10.84675	 25.59444	 -0.12670	 45.41762	701.88000	 36.70	
  8.487	-56.277	 44.52997	 25.46103	 11.55365	  9.26210	 27.44424	 -0.11565	 45.43071	701.77002	 36.70	
  8.492	-67.425	 44.46362	 23.32135	 13.33917	  8.01229	 28.95540	 -0.08311	 45.43719	701.94000	 36.70	
  8.510	-78.780	 44.39513	 20.92611	 15.41865	  7.18764	 29.96124	 -0.13291	 45.42660	701.90002	 36.70	
  8.500	-90.000	 44.35204	 18.51056	 17.66686	  6.81332	 30.46240	 -0.14375	 45.45533	701.89001	 36.70	
  8.510	-101.220	 44.26686	 16.15419	 19.77040	  6.73728	 30.46227	 -0.11065	 45.43366	701.90002	 36.80	
  8.492	-112.575	 44.16566	 13.77340	 22.26465	  7.01951	 29.95329	 -0.12617	 45.43031	701.82001	 36.80	
  8.487	-123.723	 44.08355	 11.67226	 24.63919	  7.73094	 29.01114	 -0.13611	 45.42883	701.89001	 36.80	
  8.495	-135.039	 44.00656	  9.82119	 26.78936	  8.84547	 27.58819	 -0.13566	 45.41176	701.87000	 36.80	
  8.494	-146.194	 43.97435	  8.26278	 28.61272	 10.30523	 25.83202	 -0.12224	 45.46239	701.90997	 36.80	
  8.502	-157.493	 43.88250	  7.00907	 30.03601	 12.09587	 23.62117	 -0.05471	 45.45169	701.81000	 36.80	
  8.491	-168.704	 43.82407	  6.16037	 31.04503	 14.16749	 21.20158	 -0.09101	 45.44351	701.83002	 36.80	
  8.500	180.000	 43.76287	  5.72215	 31.54829	 16.42786	 18.82047	 -0.27433	 45.43413	701.83002	 36.80	
 10.200	180.000	 42.94242	  3.00719	 33.54560	 15.48191	 18.51372	 -0.72063	 45.45846	701.83002	 36.80	
 10.191	-170.497	 42.96264	  3.40861	 32.96448	 13.18990	 20.79610	 -0.62169	 45.43301	701.87000	 36.90	
 10.210	-161.034	 43.01653	  4.11032	 32.05888	 11.03016	 23.34308	 -0.54079	 45.44789	701.75000	 36.90	
 10.194	-151.526	 43.10034	  5.16614	 30.78888	  9.16131	 25.66191	 -0.53484	 45.46050	701.83002	 36.90	
 10.190	-142.105	 43.14125	  6.53763	 29.13149	  7.53688	 27.66887	 -0.56426	 45.41479	701.90997	 36.90	
 10.215	-132.646	 43.20522	  8.13029	 27.21826	  6.14986	 29.39473	 -0.61916	 45.42547	701.94000	 36.90	
 10.203	-123.092	 43.33014	 10.10267	 24.99487	  5.18806	 30.76263	 -0.59320	 45.44233	701.87000	 36.90	
 10.192	-113.678	 43.41162	 12.21812	 22.57867	  4.50746	 31.71321	 -0.59040	 45.45321	701.96002	 36.90	
 10.208	-104.249	 43.48235	 14.55116	 20.07884	  4.07195	 32.31602	 -0.65033	 45.43658	701.89001	 37.00	
 10.210	-94.801	 43.58009	 16.95338	 17.91333	  3.99285	 32.52438	 -0.66878	 45.43799	701.90002	 37.00	
 10.210	-85.199	 43.64185	 19.34000	 15.56696	  4.27158	 32.24838	 -0.70450	 45.40784	701.89001	 37.00	
 10.208	-75.751	 43.73333	 21.80619	 13.33940	  4.81153	 31.51452	 -0.64290	 45.42128	701.87000	 37.00	
 10.192	-66.322	 43.81402	 24.20096	 11.33728	  5.64870	 30.42358	 -0.60527	 45.46423	701.83002	 37.00	
 10.203	-56.908	 43.84630	 26.37420	  9.50089	  6.80911	 28.97167	 -0.63670	 45.42431	701.79999	 37.00	
 10.215	-47.354	 43.91391	 28.34322	  7.87463	  8.36663	 27.16230	 -0.65915	 45.44621	701.84998	 37.00	
 10.190	-37.895	 43.94326	 29.88379	  6.63771	 10.21094	 24.96303	 -0.60295	 45.42989	701.94000	 37.00	
 10.194	-28.474	 43.98713	 31.07674	  5.71330	 12.29329	 22.55753	 -0.50418	 45.44915	701.89001	 37.00	
 10.210	-18.966	 43.98930	 31.87838	  5.05646	 14.54827	 19.93444	 -0.42794	 45.45319	701.84998	 37.00	
 10.191	 -9.503	 43.98196	 32.21297	  4.80335	 16.96369	 17.74568	 -0.43218	 45.43639	701.83002	 37.10	
 10.200	  0.000	 43.98038	 32.13761	  4.89211	 19.23905	 15.33848	 -0.42459	 45.46740	701.85999	 37.10	
 10.191	  9.503	 43.91516	 31.54770	  5.28354	 21.80185	 12.99609	 -0.40147	 45.43064	701.90002	 37.10	
 10.210	 18.966	 43.83510	 30.60502	  5.96908	 24.26388	 10.79995	 -0.33928	 45.43281	701.90997	 37.10	
 10.194	 28.474	 43.77868	 29.20766	  7.05410	 26.52420	  8.80612	 -0.33162	 45.42597	702.01001	 37.10	
 10.190	 37.895	 43.73295	 27.52011	  8.42083	 28.47260	  7.10025	 -0.40337	 45.46958	701.90002	 37.10	
 10.215	 47.354	 43.66108	 25.49273	 10.04795	 30.15236	  5.64573	 -0.47392	 45.45701	701.83002	 37.10	
 10.203	 56.908	 43.57357	 23.13373	 12.04759	 31.47273	  4.60236	 -0.52528	 45.44353	701.84998	 37.10	
 10.192	 66.322	 43.50957	 20.72056	 14.14905	 32.42879	  3.83999	 -0.60554	 45.45794	701.96997	 37.10	
 10.208	 75.751	 43.42154	 18.35311	 16.41658	 32.97421	  3.35358	 -0.66184	 45.43907	701.91998	 37.20	
 10.210	 85.199	 43.35828	 15.99942	 18.78019	 33.07476	  3.22175	 -0.72617	 45.45664	701.84003	 37.20	
 10.210	 94.801	 43.28854	 13.58739	 21.01372	 32.67210	  3.58661	 -0.79831	 45.46120	701.94000	 37.20	
 10.208	104.249	 43.22264	 11.28998	 23.57234	 31.84566	  4.20532	 -0.82200	 45.46310	701.84998	 37.20	
 10.192	113.678	 43.16827	  9.22545	 25.92374	 30.64180	  4.99188	 -0.85324	 45.48043	701.90002	 37.20	
 10.203	123.092	 43.09774	  7.38262	 28.03876	 29.09117	  6.16934	 -0.86648	 45.46899	701.95001	 37.20	
 10.215	132.646	 43.04002	  5.81719	 29.86897	 27.24131	  7.68373	 -0.84909	 45.47738	701.84003	 37.20	
 10.190	142.105	 43.02531	  4.69765	 31.33312	 25.10771	  9.52504	 -0.80691	 45.49511	701.90002	 37.20	
 10.194	151.526	 42.98224	  3.78557	 32.48412	 22.72640	 11.54193	 -0.79169	 45.49729	701.92999	 37.20	
 10.210	161.034	 42.95608	  3.15251	 33.33816	 20.16199	 13.79626	 -0.82135	 45.49458	701.89001	 37.20	
 10.191	170.497	 42.91742	  2.90321	 33.66735	 17.84286	 16.14952	 -0.80534	 45.45427	701.84998	 37.30	
 11.899	171.783	 41.98494	  0.21265	 35.57083	 16.85920	 15.66578	 -1.20888	 45.53321	701.88000	 37.30	
 11.890	163.610	 41.94152	  0.41478	 35.27395	 19.11829	 13.29025	 -1.23900	 45.47886	701.91998	 37.30	
 11.889	155.445	 41.95738	  0.88859	 34.61657	 21.54973	 11.02411	 -1.23598	 45.48393	701.90997	 37.30	
 11.909	147.299	 41.99272	  1.52840	 33.60601	 24.08311	  8.85816	 -1.20621	 45.49588	701.87000	 37.30	
 11.902	139.148	 42.03405	  2.51643	 32.21907	 26.37420	  6.91716	 -1.25752	 45.46899	701.98999	 37.30	
 11.894	130.867	 42.06473	  3.80522	 30.56806	 28.48510	  5.16855	 -1.29609	 45.43285	701.96002	 37.30	
 11.897	122.732	 42.15990	  5.36916	 28.74059	 30.33222	  3.75502	 -1.29842	 45.48775	701.81000	 37.30	
 11.903	114.597	 42.21478	  7.11432	 26.65380	 31.92943	  2.60040	 -1.29778	 45.48593	701.96997	 37.30	
 11.893	106.346	 42.29087	  9.20291	 24.25189	 33.22363	  1.78231	 -1.27519	 45.48063	701.84003	 37.30	
 11.892	 98.155	 42.35591	 11.43349	 21.74556	 34.21767	  1.07850	 -1.24550	 45.48446	701.81000	 37.30	
 11.900	 90.000	 42.39984	 13.71593	 19.45192	 34.78917	  0.58634	 -1.21686	 45.46748	701.87000	 37.30	
 11.892	 81.845	 42.48781	 16.16478	 17.10608	 34.98182	  0.48815	 -1.14353	 45.47884	701.78998	 37.30	
 11.893	 73.654	 42.55124	 18.54122	 14.74427	 34.78482	  0.72304	 -1.09421	 45.48256	701.76001	 37.30	
 11.903	 65.403	 42.63831	 20.91923	 12.51380	 34.14575	  1.22281	 -1.02992	 45.48096	701.83002	 37.40	
 11.897	 57.268	 42.72716	 23.37798	 10.38959	 33.17157	  1.98651	 -0.94984	 45.47715	701.84998	 37.40	
 11.894	 49.133	 42.79127	 25.74371	  8.43177	 31.82142	  2.97379	 -0.90680	 45.48232	701.84998	 37.40	
 11.902	 40.852	 42.87497	 27.89729	  6.69163	 30.21877	  4.24044	 -0.85925	 45.50029	701.83002	 37.40	
 11.909	 32.701	 42.96953	 29.74412	  5.22943	 28.39327	  5.80776	 -0.79818	 45.50338	701.81000	 37.40	
 11.889	 24.555	 43.02962	 31.32126	  4.05695	 26.25031	  7.72486	 -0.75109	 45.48916	701.78003	 37.40	
 11.890	 16.390	 43.10820	 32.58107	  3.20854	 23.91493	  9.80604	 -0.81001	 45.49136	701.76001	 37.40	
 11.899	  8.217	 43.16515	 33.51910	  2.44462	 21.43201	 11.96470	 -0.87751	 45.48442	701.82001	 37.40	
 11.900	  0.000	 43.19400	 34.08641	  2.07657	 18.88220	 14.33705	 -0.88245	 45.48482	701.84998	 37.40	
 11.899	 -8.217	 43.20190	 34.24086	  1.91889	 16.54222	 16.76088	 -0.85618	 45.47431	701.92999	 37.40	
 11.890	-16.390	 43.23096	 33.91662	  2.19549	 14.12942	 19.09349	 -0.87076	 45.46842	701.95001	 37.40	
 11.889	-24.555	 43.22196	 33.20665	  2.77228	 11.80894	 21.56301	 -0.91732	 45.46650	702.03003	 37.40	
 11.909	-32.701	 43.20558	 32.21942	  3.47966	  9.66163	 24.05575	 -1.00306	 45.49432	701.95001	 37.40	
 11.902	-40.852	 43.17310	 30.87110	  4.52161	  7.72697	 26.39363	 -1.12361	 45.47472	701.81000	 37.40	
 11.894	-49.133	 43.14431	 29.18366	  5.85330	  5.94026	 28.50786	 -1.20205	 45.49744	701.94000	 37.40	
 11.897	-57.268	 43.08945	 27.19957	  7.42094	  4.45355	 30.28190	 -1.18240	 45.48896	701.89001	 37.40	
 11.903	-65.403	 43.04085	 24.99938	  9.27205	  3.34562	 31.80134	 -1.16134	 45.49691	701.88000	 37.40	
 11.893	-73.654	 42.98325	 22.62144	 11.28501	  2.47129	 33.02351	 -1.17474	 45.51208	701.84003	 37.40	
 11.892	-81.845	 42.86266	 20.11283	 13.45811	  1.79052	 33.90857	 -1.25172	 45.47471	701.87000	 37.50	
 11.900	-90.000	 42.79010	 17.71389	 15.74389	  1.35865	 34.44467	 -1.24601	 45.49955	701.84998	 37.50	
 11.892	-98.155	 42.71928	 15.30346	 18.09344	  1.21334	 34.53786	 -1.18431	 45.49553	701.94000	 37.50	
 11.893	-106.346	 42.60727	 12.86123	 20.31392	  1.43260	 34.22766	 -1.12094	 45.48293	701.89001	 37.50	
 11.903	-114.597	 42.50145	 10.52107	 22.74976	  1.79678	 33.53210	 -1.07896	 45.49913	701.89001	 37.50	
 11.897	-122.732	 42.44057	  8.46078	 25.21513	  2.49401	 32.50135	 -1.08570	 45.52040	701.90997	 37.50	
 11.894	-130.867	 42.32246	  6.49218	 27.46649	  3.46510	 31.09079	 -1.09636	 45.46972	701.90002	 37.50	
 11.902	-139.148	 42.23634	  4.72519	 29.55148	  4.69820	 29.41450	 -1.04003	 45.48417	701.84998	 37.50	
 11.909	-147.299	 42.17947	  3.29997	 31.28052	  6.21545	 27.51060	 -0.98481	 45.49632	701.89001	 37.50	
 11.889	-155.445	 42.13382	  2.14540	 32.78168	  7.99730	 25.32072	 -0.95290	 45.50151	701.91998	 37.50	
 11.890	-163.610	 42.04255	  1.17118	 34.01024	  9.95602	 22.85315	 -0.99191	 45.48192	701.89001	 37.50	
 11.899	-171.783	 42.01252	  0.62084	 34.91542	 12.12238	 20.33380	 -1.08173	 45.49609	701.79999	 37.50	
 11.900	180.000	 41.98196	  0.26096	 35.44878	 14.43448	 18.08915	 -1.18223	 45.50829	701.88000	 37.60	
 13.600	180.000	 40.78886	 -2.49175	 37.10524	 13.21345	 17.49504	 -1.55895	 45.49681	701.87000	 37.60	
 13.608	-172.853	 40.80735	 -2.21179	 36.63512	 10.92491	 19.82165	 -1.47975	 45.47834	701.96002	 37.60	
 13.611	-165.583	 40.86310	 -1.77615	 35.85165	  8.73184	 22.20545	 -1.37291	 45.50933	701.90997	 37.60	
 13.601	-158.353	 40.92854	 -0.94574	 34.65616	  6.73065	 24.73148	 -1.32177	 45.49673	701.98999	 37.60	
 13.609	-151.210	 41.01072	  0.15251	 33.19372	  4.89815	 27.03876	 -1.33527	 45.49256	701.90002	 37.60	
 13.611	-143.999	 41.08017	  1.44272	 31.54983	  3.22815	 29.15606	 -1.39996	 45.51217	701.96997	 37.60	
 13.601	-136.825	 41.14557	  2.95963	 29.69356	  1.85541	 30.98886	 -1.45584	 45.49459	701.84003	 37.60	
 13.596	-129.640	 41.23418	  4.70909	 27.58917	  0.71652	 32.64339	 -1.51714	 45.51392	701.79999	 37.60	
 13.611	-122.431	 41.32025	  6.68061	 25.25766	 -0.20070	 34.04295	 -1.52320	 45.50407	701.84998	 37.60	
 13.604	-115.211	 41.41797	  8.79287	 22.77978	 -0.82967	 35.12120	 -1.52750	 45.50650	701.91998	 37.60	
 13.595	-108.042	 41.52740	 11.01762	 20.51560	 -1.28468	 35.86097	 -1.56660	 45.49947	701.89001	 37.60	
 13.607	-100.793	 41.58371	 13.43034	 18.18022	 -1.62068	 36.25650	 -1.63610	 45.47657	701.87000	 37.60	
 13.601	-93.617	 41.68796	 15.95701	 15.81594	 -1.56761	 36.32028	 -1.71389	 45.49707	701.91998	 37.60	
 13.601	-86.383	 41.76257	 18.34802	 13.47176	 -1.26348	 36.04008	 -1.76653	 45.48527	701.97998	 37.60	
 13.607	-79.207	 41.88880	 20.80297	 11.20281	 -0.79144	 35.40138	 -1.75341	 45.52028	701.96997	 37.60	
 13.595	-71.958	 41.93616	 23.25265	  9.06338	 -0.05183	 34.36341	 -1.69181	 45.49156	701.95001	 37.60	
 13.604	-64.789	 42.02755	 25.63166	  7.09143	  0.84824	 33.05054	 -1.67110	 45.49929	701.84998	 37.60	
 13.611	-57.569	 42.07650	 27.88671	  5.24510	  1.93696	 31.49941	 -1.69499	 45.49988	701.95001	 37.60	
 13.596	-50.360	 42.14146	 29.87947	  3.65374	  3.41333	 29.70646	 -1.70481	 45.49990	701.94000	 37.60	
 13.601	-43.175	 42.19390	 31.66183	  2.30776	  5.12665	 27.68864	 -1.64807	 45.50495	701.89001	 37.60	
 13.611	-36.001	 42.20436	 33.12091	  1.21427	  6.94997	 25.43325	 -1.51849	 45.46761	701.83002	 37.70	
 13.609	-28.790	 42.23190	 34.36637	  0.37326	  9.02776	 22.93594	 -1.37663	 45.48643	701.83002	 37.70	
 13.601	-21.647	 42.23208	 35.22393	 -0.16353	 11.21974	 20.36532	 -1.28965	 45.45694	701.91998	 37.70	
 13.611	-14.417	 42.23553	 35.80318	 -0.58317	 13.54079	 18.13147	 -1.22978	 45.46074	701.94000	 37.70	
 13.608	 -7.147	 42.24234	 36.02776	 -0.73503	 16.01173	 15.67819	 -1.22614	 45.50185	701.90997	 37.70	
 13.600	  0.000	 42.19592	 35.84925	 -0.58772	 18.40215	 13.23068	 -1.26796	 45.47765	701.89001	 37.70	
 13.608	  7.147	 42.15664	 35.33532	 -0.26926	 20.77104	 10.88011	 -1.30341	 45.47947	702.01001	 37.70	
 13.611	 14.417	 42.11031	 34.47598	  0.25284	 23.33273	  8.62142	 -1.26109	 45.49485	701.96002	 37.70	
 13.601	 21.647	 42.04287	 33.24350	  1.04544	 25.77466	  6.49710	 -1.20806	 45.48796	701.81000	 37.70	
 13.609	 28.790	 41.93789	 31.75956	  2.03271	 27.97597	  4.53068	 -1.20154	 45.47051	701.90997	 37.70	
 13.611	 36.001	 41.90956	 30.01322	  3.37469	 29.99506	  2.85427	 -1.23289	 45.50140	701.88000	 37.70	
 13.601	 43.175	 41.82208	 28.02490	  4.92895	 31.80430	  1.44445	 -1.30149	 45.48351	702.00000	 37.70	
 13.596	 50.360	 41.75518	 25.86805	  6.67725	 33.38995	  0.26259	 -1.34652	 45.48654	701.97998	 37.70	
 13.611	 57.569	 41.64557	 23.47676	  8.63040	 34.67573	 -0.61119	 -1.38263	 45.45407	701.96997	 37.80	
 13.604	 64.789	 41.57412	 20.99873	 10.74839	 35.70480	 -1.28082	 -1.43662	 45.47734	702.07001	 37.80	
 13.595	 71.958	 41.52466	 18.64298	 12.94930	 36.35780	 -1.70515	 -1.50292	 45.48632	701.91998	 37.80	
 13.607	 79.207	 41.41334	 16.19776	 15.22616	 36.69560	 -2.09840	 -1.55483	 45.46822	701.94000	 37.80	
 13.601	 86.383	 41.35174	 13.75334	 17.64405	 36.67448	 -2.12362	 -1.59758	 45.49794	701.90997	 37.80	
 13.601	 93.617	 41.28910	 11.33849	 20.03374	 36.27337	 -1.80055	 -1.67923	 45.48310	701.96002	 37.80	
 13.607	100.793	 41.24519	  9.10722	 22.36421	 35.58371	 -1.30421	 -1.69128	 45.50258	701.90002	 37.80	
 13.595	108.042	 41.15738	  6.90137	 24.88017	 34.48655	 -0.63688	 -1.70265	 45.48665	701.98999	 37.80	
 13.604	115.211	 41.08043	  5.01552	 27.17581	 33.11863	  0.15508	 -1.72629	 45.46658	702.00000	 37.80	
 13.611	122.431	 41.02815	  3.23317	 29.30272	 31.51234	  1.19523	 -1.73473	 45.49452	702.03003	 37.80	
 13.596	129.640	 40.96413	  1.62396	 31.20188	 29.59581	  2.60843	 -1.71372	 45.45774	702.01001	 37.80	
 13.601	136.825	 40.89569	  0.33683	 32.87223	 27.56824	  4.17753	 -1.71109	 45.45809	701.90997	 37.80	
 13.611	143.999	 40.84189	 -0.60688	 34.40245	 25.29588	  6.08511	 -1.65487	 45.46654	702.02002	 37.80	
 13.609	151.210	 40.81155	 -1.34240	 35.64069	 22.87844	  8.14941	 -1.63434	 45.47562	702.03998	 37.80	
 13.601	158.353	 40.76199	 -1.94860	 36.49916	 20.38474	 10.32696	 -1.63435	 45.47104	702.08002	 37.80	
 13.611	165.583	 40.75768	 -2.40223	 37.06649	 18.02239	 12.67946	 -1.64497	 45.49450	702.06000	 37.90	
 13.608	172.853	 40.71577	 -2.57676	 37.21459	 15.56450	 15.07127	 -1.63852	 45.45408	702.12000	 37.90	
 15.298	173.587	 39.41369	 -5.10260	 38.75051	 14.28366	 14.32184	 -1.91976	 45.46436	702.03003	 37.90	
 15.291	167.167	 39.39950	 -5.01216	 38.60290	 16.68875	 11.92557	 -1.92497	 45.45795	702.01001	 37.90	
 15.307	160.676	 39.40664	 -4.71823	 38.16940	 19.11265	  9.55249	 -1.96176	 45.45979	702.04999	 37.90	
 15.300	154.261	 39.45956	 -4.15638	 37.44476	 21.51214	  7.29063	 -1.97310	 45.46562	702.10999	 37.90	
 15.288	147.854	 39.52914	 -3.41046	 36.36751	 23.99367	  5.21184	 -1.95015	 45.44767	702.02002	 37.90	
 15.293	141.428	 39.60886	 -2.53294	 35.05394	 26.36534	  3.27732	 -2.00780	 45.46626	701.96997	 37.90	
 15.299	134.985	 39.65791	 -1.55433	 33.41181	 28.58786	  1.54749	 -2.04754	 45.46466	701.97998	 37.90	
 15.305	128.583	 39.71566	 -0.36350	 31.70360	 30.63562	  0.13007	 -2.08292	 45.47620	702.10999	 37.90	
 15.309	122.142	 39.74568	  1.10489	 29.72625	 32.48530	 -1.08666	 -2.08150	 45.46723	701.92999	 37.90	
 15.304	115.711	 39.78585	  2.82189	 27.57286	 34.14213	 -2.08989	 -2.05595	 45.43737	702.04999	 37.90	
 15.297	109.291	 39.87097	  4.65036	 25.30521	 35.57296	 -2.93962	 -2.04329	 45.46968	702.09003	 37.90	
 15.293	102.897	 39.96217	  6.68222	 22.89344	 36.66860	 -3.51920	 -2.03375	 45.47350	702.03003	 37.90	
 15.293	 96.458	 40.02186	  8.92684	 20.49109	 37.50426	 -4.09509	 -2.02538	 45.46869	702.06000	 37.90	
 15.300	 90.000	 40.05347	 11.24136	 18.11850	 38.02534	 -4.48583	 -1.96498	 45.45206	702.02002	 37.90	
 15.293	 83.542	 40.15343	 13.67866	 15.69718	 38.25779	 -4.63581	 -1.94246	 45.48040	702.01001	 37.90	
 15.293	 77.103	 40.19738	 16.16709	 13.27316	 38.17043	 -4.51012	 -1.91267	 45.48155	702.00000	 37.90	
 15.297	 70.709	 40.28246	 18.61103	 11.05223	 37.76378	 -4.12649	 -1.85858	 45.46514	701.97998	 37.90	
 15.304	 64.289	 40.35887	 20.96114	  8.87287	 37.07378	 -3.64023	 -1.83532	 45.46547	701.95001	 37.90	
 15.309	 57.858	 40.42984	 23.43124	  6.78584	 36.09470	 -3.04079	 -1.78617	 45.45715	701.96002	 37.90	
 15.305	 51.417	 40.51234	 25.79484	  4.82302	 34.82073	 -2.22609	 -1.75187	 45.45739	701.96002	 37.90	
 15.299	 45.015	 40.61030	 28.00038	  3.05377	 33.25889	 -1.18617	 -1.74733	 45.44967	701.96002	 37.90	
 15.293	 38.572	 40.66834	 30.07625	  1.54693	 31.47666	  0.08246	 -1.69121	 45.43953	702.03003	 38.00	
 15.288	 32.146	 40.78244	 31.95671	  0.31962	 29.52066	  1.50557	 -1.62133	 45.47494	702.02002	 38.00	
 15.300	 25.739	 40.82372	 33.58928	 -0.78070	 27.40917	  3.23273	 -1.59412	 45.46359	702.03998	 38.00	
 15.307	 19.324	 40.89587	 34.99745	 -1.64780	 25.10552	  5.20808	 -1.59308	 45.47681	702.07001	 38.00	
 15.291	 12.833	 40.98663	 36.12334	 -2.27918	 22.62123	  7.39703	 -1.60207	 45.48262	702.06000	 37.90	
 15.298	  6.413	 41.03590	 36.92257	 -2.76445	 20.13309	  9.64519	 -1.64360	 45.46075	701.29999	 37.90	
 15.300	  0.000	 41.06373	 37.42848	 -3.13947	 17.75636	 12.00794	 -1.60289	 45.46045	701.69000	 37.90	
 15.298	 -6.413	 41.10028	 37.62086	 -3.26046	 15.33144	 14.44403	 -1.57491	 45.47148	702.02002	 38.00	
 15.291	-12.833	 41.11448	 37.49295	 -3.21712	 12.91299	 16.91619	 -1.55813	 45.46201	702.01001	 38.00	
 15.307	-19.324	 41.12085	 37.04232	 -2.86171	 10.54509	 19.35848	 -1.61690	 45.46807	701.98999	 38.00	
 15.300	-25.739	 41.09813	 36.25327	 -2.29790	  8.31651	 21.65009	 -1.72973	 45.42171	702.06000	 38.00	
 15.288	-32.146	 41.08039	 35.20554	 -1.67916	  6.22360	 24.16996	 -1.84857	 45.45193	702.00000	 38.00	
 15.293	-38.572	 41.06808	 33.86109	 -0.80540	  4.26581	 26.58870	 -2.01971	 45.46892	702.07001	 38.00	
 15.299	-45.015	 41.01300	 32.21405	  0.27448	  2.44189	 28.78288	 -2.15153	 45.44259	702.06000	 38.00	
 15.305	-51.417	 40.97007	 30.39532	  1.56881	  0.86282	 30.73111	 -2.19751	 45.44403	702.04999	 38.00	
 15.309	-57.858	 40.93184	 28.36476	  3.05730	 -0.46374	 32.51041	 -2.15548	 45.46434	702.06000	 38.00	
 15.304	-64.289	 40.85786	 26.14052	  4.81785	 -1.53507	 34.13599	 -2.13105	 45.46391	702.06000	 38.00	
 15.297	-70.709	 40.78868	 23.76966	  6.76253	 -2.45640	 35.53294	 -2.12846	 45.47311	702.03998	 38.00	
 15.293	-77.103	 40.68746	 21.26770	  8.81721	 -3.27674	 36.60453	 -2.16601	 45.47668	701.95001	 38.00	
 15.293	-83.542	 40.55410	 18.76124	 11.06279	 -3.86928	 37.34193	 -2.23261	 45.44434	701.71002	 38.00	
 15.300	-90.000	 40.47750	 16.37572	 13.39093	 -4.23228	 37.80563	 -2.21605	 45.46986	702.10999	 38.00	
 15.293	-96.458	 40.37551	 13.95174	 15.71715	 -4.29771	 37.92139	 -2.13223	 45.45521	702.13000	 38.00	
 15.293	-102.897	 40.28618	 11.52899	 18.10859	 -4.21739	 37.73938	 -2.03309	 45.44836	702.17999	 38.00	
 15.297	-109.291	 40.20704	  9.20168	 20.40679	 -3.91179	 37.29501	 -1.96489	 45.45798	702.09003	 38.00	
 15.304	-115.711	 40.07915	  6.95014	 22.59724	 -3.46538	 36.50792	 -1.90976	 45.43053	702.03998	 38.10	
 15.309	-122.142	 39.99824	  4.85286	 25.06380	 -2.88164	 35.43145	 -1.91310	 45.45776	701.52002	 38.10	
 15.305	-128.583	 39.93444	  2.93333	 27.47558	 -1.95441	 34.01081	 -1.89529	 45.45062	702.08002	 38.10	
 15.299	-134.985	 39.85827	  1.24883	 29.61297	 -0.89130	 32.38488	 -1.85186	 45.44498	701.94000	 38.10	
 15.293	-141.428	 39.80330	 -0.26303	 31.56004	  0.41194	 30.60908	 -1.75396	 45.46579	702.21997	 38.10	
 15.288	-147.854	 39.74055	 -1.59635	 33.31096	  1.86035	 28.59416	 -1.67071	 45.47670	702.16998	 38.10	
 15.300	-154.261	 39.62827	 -2.75131	 34.95935	  3.47043	 26.38189	 -1.61620	 45.45859	702.15002	 38.00	
 15.307	-160.676	 39.56292	 -3.62084	 36.32803	  5.35001	 23.99715	 -1.62489	 45.46657	701.73999	 38.00	
 15.291	-167.167	 39.52033	 -4.15564	 37.37986	  7.44550	 21.45400	 -1.67074	 45.45882	701.29999	 38.00	
 15.298	-173.587	 39.49189	 -4.62297	 38.13578	  9.61540	 19.19290	 -1.77692	 45.48245	701.32001	 38.00	
 15.300	180.000	 39.43930	 -4.95499	 38.57468	 11.88969	 16.78413	 -1.87723	 45.46332	701.21002	 38.00	
 17.000	180.000	 37.98504	 -7.41881	 39.98146	 10.52206	 15.94788	 -2.05740	 45.48509	702.10999	 38.00	
 16.990	-174.179	 37.99133	 -7.06924	 39.51046	  8.22260	 18.36393	 -1.98970	 45.43899	701.34003	 38.00	
 17.009	-168.383	 38.04707	 -6.60112	 38.82678	  6.00175	 20.75394	 -1.87378	 45.47779	702.04999	 38.00	
 17.000	-162.596	 38.08707	 -6.05671	 37.81758	  3.94157	 23.08216	 -1.80978	 45.45655	701.37000	 38.10	
 16.990	-156.759	 38.18879	 -5.32910	 36.59982	  2.05630	 25.58292	 -1.79555	 45.49256	701.34003	 38.10	
 16.995	-150.919	 38.25251	 -4.41497	 35.05990	  0.44148	 27.85867	 -1.81977	 45.47371	701.41998	 38.10	
 16.988	-145.161	 38.31504	 -3.29773	 33.34980	 -0.93938	 29.96455	 -1.88745	 45.47442	702.13000	 38.10	
 17.014	-139.343	 38.38115	 -1.94313	 31.50892	 -2.22012	 31.93852	 -1.99966	 45.46644	702.08002	 38.10	
 17.007	-133.546	 38.46760	 -0.46932	 29.48150	 -3.47751	 33.68926	 -2.07200	 45.48444	702.04999	 38.10	
 17.001	-127.699	 38.52907	  1.19267	 27.24385	 -4.59816	 35.33616	 -2.11928	 45.46606	702.15002	 38.10	
 17.006	-121.937	 38.57544	  3.01034	 24.85956	 -5.42591	 36.70511	 -2.12495	 45.45825	701.37000	 38.10	
 17.002	-116.134	 38.66675	  5.11795	 22.37556	 -6.02377	 37.78815	 -2.17497	 45.44127	702.07001	 38.10	
 17.001	-110.310	 38.79567	  7.32162	 20.17547	 -6.58018	 38.63379	 -2.22246	 45.48093	701.96002	 38.10	
 16.988	-104.517	 38.87700	  9.61413	 17.82026	 -6.89896	 39.14456	 -2.28947	 45.46935	702.04999	 38.10	
 17.008	-98.662	 38.95030	 11.99213	 15.42275	 -7.02598	 39.42166	 -2.40236	 45.46930	701.71002	 38.10	
 16.996	-92.909	 39.06183	 14.25424	 13.23375	 -7.07361	 39.39846	 -2.54870	 45.47702	702.08002	 38.10	
 16.996	-87.091	 39.16966	 16.74671	 10.87796	 -6.82357	 39.11639	 -2.56176	 45.49849	702.17999	 38.10	
 17.012	-81.253	 39.23705	 19.18816	  8.51014	 -6.38254	 38.53693	 -2.54036	 45.46920	702.19000	 38.10	
 16.988	-75.483	 39.35570	 21.67378	  6.39656	 -5.66379	 37.65518	 -2.50252	 45.46609	702.15997	 38.10	
 17.001	-69.690	 39.45995	 24.10268	  4.40375	 -4.91590	 36.60660	 -2.49901	 45.47552	702.10999	 38.10	
 17.002	-63.866	 39.53936	 26.53907	  2.59350	 -3.92807	 35.17640	 -2.47795	 45.48989	701.69000	 38.10	
 17.006	-58.063	 39.62117	 28.77924	  1.00732	 -2.79082	 33.51882	 -2.49574	 45.46661	702.07001	 38.10	
 17.001	-52.301	 39.68383	 30.79197	 -0.39257	 -1.56044	 31.73603	 -2.51154	 45.45730	701.42999	 38.20	
 17.007	-46.454	 39.73735	 32.73188	 -1.69692	 -0.07893	 29.76319	 -2.47178	 45.47766	701.34003	 38.10	
 17.014	-40.657	 39.76392	 34.44058	 -2.82536	  1.49414	 27.63389	 -2.39749	 45.47296	701.38000	 38.10	
 16.988	-34.839	 39.81118	 35.88782	 -3.76798	  3.36806	 25.29868	 -2.24554	 45.47552	701.38000	 38.10	
 16.995	-29.081	 39.85770	 37.08131	 -4.45738	  5.34840	 22.85772	 -2.11002	 45.50621	701.37000	 38.10	
 16.990	-23.241	 39.85707	 38.01111	 -5.02381	  7.47778	 20.40389	 -2.01443	 45.48500	701.34998	 38.10	
 17.000	-17.404	 39.80702	 38.67712	 -5.59031	  9.72394	 18.07203	 -1.90998	 45.45902	701.28998	 38.10	
 17.009	-11.617	 39.80928	 39.07748	 -5.90433	 12.09376	 15.59494	 -1.86174	 45.46988	701.39001	 38.20	
 16.990	 -5.821	 39.80315	 39.15547	 -5.89619	 14.48934	 13.14347	 -1.86524	 45.49140	701.38000	 38.10	
 17.000	  0.000	 39.77302	 38.95603	 -5.74331	 16.95362	 10.69143	 -1.84849	 45.48935	701.37000	 38.20	
 16.990	  5.821	 39.72234	 38.45303	 -5.42161	 19.36047	  8.26134	 -1.87475	 45.47676	701.28003	 38.20	
 17.009	 11.617	 39.65948	 37.68380	 -4.93116	 21.75124	  5.99900	 -1.84263	 45.47387	701.29999	 38.20	
 17.000	 17.404	 39.61415	 36.64326	 -4.35030	 24.23858	  3.90255	 -1.79940	 45.47801	701.33002	 38.20	
 16.990	 23.241	 39.56705	 35.32976	 -3.55929	 26.66133	  1.96442	 -1.82283	 45.49743	701.34998	 38.20	
 16.995	 29.081	 39.49429	 33.75983	 -2.62602	 28.89990	  0.23234	 -1.86774	 45.47926	701.37000	 38.20	
 16.988	 34.839	 39.41020	 31.99188	 -1.48651	 30.87344	 -1.25889	 -1.94369	 45.45929	701.45001	 38.20	
 17.014	 40.657	 39.36036	 30.10998	 -0.16898	 32.84050	 -2.57964	 -2.05586	 45.51575	701.28998	 38.20	
 17.007	 46.454	 39.26132	 27.97070	  1.33919	 34.56549	 -3.70821	 -2.11404	 45.48174	701.28998	 38.20	
 17.001	 52.301	 39.18932	 25.66866	  3.06436	 36.11941	 -4.62249	 -2.12844	 45.49398	701.35999	 38.20	
 17.006	 58.063	 39.10242	 23.27676	  4.82156	 37.36813	 -5.37945	 -2.15504	 45.47064	701.40997	 38.20	
 17.002	 63.866	 39.01994	 20.88995	  6.87407	 38.33682	 -5.98476	 -2.15866	 45.47773	701.31000	 38.20	
 17.001	 69.690	 38.94246	 18.49436	  9.04189	 39.09658	 -6.53008	 -2.16229	 45.48920	701.42999	 38.20	
 16.988	 75.483	 38.86253	 16.03588	 11.28437	 39.54209	 -6.87708	 -2.17561	 45.47763	701.40002	 38.20	
 17.012	 81.253	 38.74156	 13.59353	 13.52830	 39.74098	 -7.18326	 -2.22229	 45.47874	701.41998	 38.20	
 16.996	 87.091	 38.68285	 11.13558	 15.93301	 39.65508	 -7.31008	 -2.25535	 45.48123	701.45001	 38.20	
 16.996	 92.909	 38.61355	  8.75397	 18.38028	 39.28034	 -7.10832	 -2.25526	 45.46321	701.48999	 38.20	
 17.008	 98.662	 38.56654	  6.49494	 20.74479	 38.66374	 -6.74007	 -2.26259	 45.49712	701.39001	 38.20	
 16.988	104.517	 38.51137	  4.34601	 23.12818	 37.68499	 -6.06765	 -2.25884	 45.47609	701.39001	 38.20	
 17.001	110.310	 38.42330	  2.42162	 25.54633	 36.54116	 -5.41124	 -2.27048	 45.47696	701.46997	 38.20	
 17.002	116.134	 38.38007	  0.71581	 27.88746	 35.04274	 -4.39784	 -2.29071	 45.47102	701.48999	 38.20	
 17.006	121.937	 38.31290	 -0.93185	 30.02976	 33.33998	 -3.40428	 -2.31130	 45.46535	701.38000	 38.20	
 17.001	127.699	 38.30358	 -2.28313	 32.00294	 31.52921	 -2.21526	 -2.33997	 45.46322	701.51001	 38.20	
 17.007	133.546	 38.22141	 -3.46279	 33.81157	 29.48985	 -0.90258	 -2.31196	 45.44938	701.44000	 38.20	
 17.014	139.343	 38.16613	 -4.52165	 35.49861	 27.35979	  0.62091	 -2.25317	 45.47000	701.46002	 38.20	
 16.988	145.161	 38.11507	 -5.43190	 36.96836	 24.99421	  2.37602	 -2.22328	 45.47235	701.42999	 38.20	
 16.995	150.919	 38.05170	 -6.19129	 38.10603	 22.44020	  4.29800	 -2.21350	 45.45335	701.40997	 38.20	
 16.990	156.759	 37.97983	 -6.90896	 38.99480	 20.08501	  6.36893	 -2.18102	 45.46259	701.48999	 38.20	
 17.000	162.596	 37.93634	 -7.45186	 39.67740	 17.67437	  8.70559	 -2.16432	 45.45479	701.46002	 38.20	
 17.009	168.383	 37.90903	 -7.71547	 40.05556	 15.25742	 11.04173	 -2.15861	 45.46027	701.47998	 38.20	
 16.990	174.179	 37.95314	 -7.64749	 40.15736	 12.88622	 13.47527	 -2.10466	 45.47692	701.53003	 38.20	
 18.709	174.675	 36.29796	-10.15688	 41.41125	 11.35166	 12.52581	 -2.15886	 45.47511	701.47998	 38.20	
 18.703	169.441	 36.26667	-10.40952	 41.34529	 13.61872	 10.15596	 -2.23450	 45.45490	701.46997	 38.20	
 18.691	164.085	 36.31141	-10.22446	 41.04207	 16.09679	  7.78518	 -2.23191	 45.45937	701.37000	 38.20	
 18.706	158.818	 36.35451	 -9.71851	 40.46750	 18.55345	  5.54422	 -2.24651	 45.45463	701.38000	 38.20	
 18.695	153.537	 36.40510	 -9.00254	 39.64341	 20.87038	  3.41142	 -2.24187	 45.44339	701.42999	 38.20	
 18.704	148.255	 36.46520	 -8.30779	 38.59537	 23.32724	  1.50147	 -2.25609	 45.46017	701.50000	 38.20	
 18.698	142.952	 36.53473	 -7.46688	 37.31381	 25.78484	 -0.23622	 -2.29061	 45.46360	701.44000	 38.30	
 18.699	137.625	 36.62949	 -6.46644	 35.79440	 28.10423	 -1.82130	 -2.34660	 45.44905	701.42999	 38.30	
 18.705	132.343	 36.68555	 -5.37441	 34.05798	 30.24614	 -3.27711	 -2.39121	 45.44617	701.45001	 38.30	
 18.713	127.067	 36.71799	 -4.26629	 32.19842	 32.27222	 -4.58665	 -2.39492	 45.45114	701.48999	 38.20	
 18.700	121.794	 36.72778	 -3.05458	 30.22394	 34.15398	 -5.79540	 -2.40535	 45.45919	701.40002	 38.30	
 18.698	116.504	 36.81122	 -1.49437	 28.07247	 35.84997	 -6.75393	 -2.36614	 45.48481	701.35999	 38.20	
 18.707	111.165	 36.85229	  0.11804	 25.77754	 37.23629	 -7.73684	 -2.35320	 45.47525	701.46002	 38.20	
 18.690	105.863	 36.91606	  2.03596	 23.15004	 38.51165	 -8.45362	 -2.33490	 45.47098	701.37000	 38.30	
 18.696	100.583	 36.95541	  4.03978	 20.92847	 39.51055	 -9.11159	 -2.32663	 45.43998	701.41998	 38.30	
 18.700	 95.309	 36.99535	  6.24573	 18.52411	 40.25125	 -9.65271	 -2.30709	 45.43101	701.45001	 38.30	
 18.700	 90.000	 37.09001	  8.55397	 16.08704	 40.80464	 -9.97351	 -2.34474	 45.47974	701.47998	 38.30	
 18.700	 84.691	 37.13121	 10.95284	 13.63094	 41.03370	-10.04840	 -2.35105	 45.46439	701.25000	 38.30	
 18.696	 79.417	 37.24073	 13.34159	 11.43342	 41.00377	 -9.58909	 -2.39541	 45.46820	701.40997	 38.30	
 18.690	 74.137	 37.34691	 15.73782	  9.27694	 40.74613	 -9.27132	 -2.37544	 45.47577	701.33002	 38.30	
 18.707	 68.835	 37.39432	 18.11089	  7.05958	 40.24357	 -9.05167	 -2.38195	 45.46289	701.27002	 38.30	
 18.698	 63.496	 37.48268	 20.55847	  4.95128	 39.46803	 -8.51510	 -2.41838	 45.45374	701.38000	 38.30	
 18.700	 58.206	 37.54382	 22.96053	  3.08913	 38.44336	 -7.85328	 -2.37659	 45.43391	701.31000	 38.30	
 18.713	 52.933	 37.66970	 25.42800	  1.32692	 37.23289	 -7.07024	 -2.36717	 45.47424	701.33002	 38.30	
 18.705	 47.657	 37.74903	 27.74011	 -0.33667	 35.73346	 -6.18812	 -2.23719	 45.44113	701.29999	 38.30	
 18.699	 42.375	 37.81441	 29.91529	 -1.85738	 34.01509	 -5.18027	 -2.21429	 45.44907	701.34003	 38.20	
 18.698	 37.048	 37.90850	 31.87051	 -3.20782	 32.15304	 -3.97042	 -2.09736	 45.45205	701.42999	 38.20	
 18.704	 31.745	 37.96174	 33.73591	 -4.51789	 30.13235	 -2.63827	 -1.98314	 45.44435	701.35999	 38.20	
 18.695	 26.463	 38.04072	 35.41967	 -5.55279	 28.01790	 -1.06733	 -1.89271	 45.46481	701.34003	 38.20	
 18.706	 21.182	 38.06931	 36.88089	 -6.43698	 25.70818	  0.64788	 -1.87353	 45.43995	701.34003	 38.20	
 18.691	 15.915	 38.15343	 38.08612	 -7.04702	 23.24512	  2.53169	 -1.86971	 45.42875	701.38000	 38.20	
 18.703	 10.559	 38.24764	 39.10449	 -7.49455	 20.80350	  4.57365	 -1.87275	 45.44244	701.39001	 38.30	
 18.709	  5.325	 38.24648	 39.83434	 -8.03564	 18.49631	  6.79320	 -1.90847	 45.43959	701.28998	 38.30	
 18.700	  0.000	 38.31181	 40.30934	 -8.29928	 16.05323	  9.21304	 -1.92538	 45.44859	701.40002	 38.30	
 18.709	 -5.325	 38.32235	 40.53170	 -8.48694	 13.60040	 11.61095	 -1.94727	 45.42339	701.27002	 38.30	
 18.703	-10.559	 38.32709	 40.48096	 -8.50771	 11.25031	 14.01375	 -1.97213	 45.42049	701.34998	 38.30	
 18.691	-15.915	 38.34341	 40.16435	 -8.27222	  8.83263	 16.55894	 -2.01051	 45.42537	701.25000	 38.30	
 18.706	-21.182	 38.33432	 39.59801	 -7.91356	  6.54503	 18.96123	 -2.07509	 45.39853	701.28998	 38.30	
 18.695	-26.463	 38.35827	 38.78127	 -7.35506	  4.39364	 21.17043	 -2.17809	 45.41577	701.33002	 38.30	
 18.704	-31.745	 38.34155	 37.72665	 -6.80041	  2.42747	 23.61381	 -2.28707	 45.41669	701.33002	 38.30	
 18.698	-37.048	 38.33503	 36.40078	 -5.89577	  0.63733	 26.11944	 -2.39763	 45.42040	701.28998	 38.30	
 18.699	-42.375	 38.30956	 34.84835	 -4.86941	 -1.02171	 28.43128	 -2.50228	 45.44431	701.31000	 38.30	
 18.705	-47.657	 38.25640	 33.10050	 -3.71173	 -2.53076	 30.46820	 -2.54333	 45.43066	701.35999	 38.30	
 18.713	-52.933	 38.20113	 31.13956	 -2.44714	 -3.90212	 32.44323	 -2.55472	 45.40785	701.35999	 38.30	
 18.700	-58.206	 38.14574	 29.08371	 -1.06118	 -5.12152	 34.26610	 -2.56348	 45.42285	701.40997	 38.30	
 18.698	-63.496	 38.09754	 26.87223	  0.48576	 -6.22940	 35.94095	 -2.55370	 45.45771	701.39001	 38.30	
 18.707	-68.835	 37.96510	 24.42382	  2.22722	 -7.30291	 37.37169	 -2.57226	 45.44067	701.35999	 38.30	
 18.690	-74.137	 37.88770	 21.95062	  4.13105	 -8.03334	 38.51505	 -2.61369	 45.41620	701.28003	 38.30	
 18.696	-79.417	 37.78915	 19.42365	  5.99694	 -8.70088	 39.47230	 -2.65928	 45.43184	701.35999	 38.30	
 18.700	-84.691	 37.65693	 17.02288	  8.24097	 -9.26680	 40.15745	 -2.66089	 45.44744	701.34003	 38.30	
 18.700	-90.000	 37.53130	 14.48015	 10.54433	 -9.63365	 40.55832	 -2.66735	 45.41519	701.32001	 38.30	
 18.700	-95.309	 37.43836	 12.04065	 12.85938	 -9.75376	 40.74208	 -2.58897	 45.43035	701.35999	 38.30	
 18.696	-100.583	 37.37934	  9.94334	 15.01326	 -9.66413	 40.65229	 -2.38943	 45.43234	701.40002	 38.30	
 18.690	-105.863	 37.28743	  7.64740	 17.42351	 -9.43629	 40.29969	 -2.30142	 45.41806	701.34003	 38.30	
 18.707	-111.165	 37.18196	  5.37492	 19.81253	 -9.13046	 39.71431	 -2.25888	 45.40079	701.39001	 38.30	
 18.698	-116.504	 37.11497	  3.25564	 22.11645	 -8.52472	 38.85240	 -2.20427	 45.42875	701.34998	 38.30	
 18.700	-121.794	 37.02686	  1.27454	 24.55171	 -7.92497	 37.75860	 -2.13025	 45.44107	701.31000	 38.30	
 18.713	-127.067	 36.92319	 -0.58558	 26.90236	 -7.21508	 36.42854	 -2.10038	 45.42561	701.22998	 38.30	
 18.705	-132.343	 36.84034	 -2.22553	 29.16018	 -6.09834	 34.83125	 -2.06101	 45.39378	701.34003	 38.30	
 18.699	-137.625	 36.81598	 -3.56776	 31.25531	 -4.80737	 33.05592	 -1.99125	 45.41175	701.38000	 38.30	
 18.698	-142.952	 36.72890	 -4.83831	 33.17871	 -3.65247	 31.19972	 -1.89597	 45.41524	701.45001	 38.30	
 18.704	-148.255	 36.66886	 -5.88665	 34.91054	 -2.43230	 29.16582	 -1.82473	 45.41534	701.40002	 38.30	
 18.695	-153.537	 36.59832	 -6.91703	 36.51496	 -0.96113	 26.94436	 -1.80428	 45.39700	701.45001	 38.30	
 18.706	-158.818	 36.53173	 -7.79226	 37.94601	  0.66107	 24.59451	 -1.82605	 45.40517	701.41998	 38.40	
 18.691	-164.085	 36.49824	 -8.37194	 39.11349	  2.46433	 22.08870	 -1.83590	 45.41858	701.46002	 38.40	
 18.703	-169.441	 36.41162	 -9.03005	 40.08180	  4.50115	 19.80801	 -1.90649	 45.42010	701.37000	 38.40	
 18.709	-174.675	 36.36076	 -9.51824	 40.79356	  6.68656	 17.42072	 -1.93662	 45.41329	701.41998	 38.40	
 18.700	180.000	 36.33113	 -9.85328	 41.21497	  9.03171	 14.94333	 -1.98434	 45.42417	701.39001	 38.40	
 20.400	180.000	 34.61090	-12.26160	 42.29852	  7.40360	 13.91760	 -1.90822	 45.41854	701.45001	 38.40	
 20.401	-175.153	 34.62978	-11.97784	 41.88770	  5.16254	 16.33001	 -1.82521	 45.42904	701.34003	 38.40	
 20.407	-170.264	 34.65569	-11.56936	 41.20836	  3.02633	 18.76907	 -1.80993	 45.40820	701.29999	 38.40	
 20.410	-165.423	 34.70454	-11.01328	 40.32253	  1.10531	 21.14790	 -1.80002	 45.41949	701.29999	 38.40	
 20.392	-160.496	 34.79708	-10.24300	 39.17546	 -0.74624	 23.46907	 -1.79177	 45.42558	701.33002	 38.40	
 20.401	-155.705	 34.83101	 -9.55670	 37.90072	 -2.37182	 25.90105	 -1.76977	 45.40797	701.22998	 38.40	
 20.405	-150.835	 34.90938	 -8.67816	 36.41354	 -3.94141	 28.18170	 -1.81521	 45.42944	701.26001	 38.40	
 20.397	-145.903	 35.00194	 -7.50107	 34.62818	 -5.34027	 30.40100	 -1.82519	 45.43762	701.29999	 38.40	
 20.392	-141.062	 35.06865	 -6.45837	 32.78083	 -6.42783	 32.29995	 -1.86342	 45.41757	701.37000	 38.40	
 20.396	-136.227	 35.10378	 -5.24795	 30.85840	 -7.58233	 34.18986	 -1.93645	 45.42510	701.39001	 38.40	
 20.408	-131.372	 35.14312	 -3.90432	 28.70160	 -8.76342	 35.90357	 -1.96830	 45.42096	701.42999	 38.40	
 20.410	-126.511	 35.18142	 -2.37919	 26.40926	 -9.76751	 37.39553	 -2.00895	 45.39266	701.31000	 38.40	
 20.400	-121.604	 35.25944	 -0.57808	 23.88410	-10.36034	 38.69117	 -2.07430	 45.37406	701.38000	 38.40	
 20.403	-116.741	 35.36435	  1.34442	 21.71869	-11.11247	 39.81990	 -2.11835	 45.42034	701.32001	 38.40	
 20.413	-111.900	 35.44854	  3.40441	 19.34210	-11.65836	 40.72165	 -2.19136	 45.40281	701.46002	 38.40	
 20.398	-107.004	 35.54754	  5.62815	 16.90009	-11.94966	 41.35598	 -2.24715	 45.40886	701.40997	 38.40	
 20.394	-102.132	 35.65368	  7.90829	 14.42298	-12.21806	 41.77478	 -2.30417	 45.44019	701.35999	 38.40	
 20.403	-97.332	 35.68759	 10.01746	 12.18583	-12.26745	 41.88364	 -2.47164	 45.38200	701.34003	 38.40	
 20.392	-92.440	 35.81200	 12.05879	 10.18140	-12.26533	 41.86694	 -2.64970	 45.41737	701.27002	 38.40	
 20.392	-87.560	 35.92243	 14.59981	  7.84558	-12.05383	 41.57593	 -2.69688	 45.43152	701.33002	 38.40	
 20.403	-82.668	 35.99732	 17.08378	  5.69026	-11.70712	 41.03614	 -2.68648	 45.40320	701.25000	 38.40	
 20.394	-77.868	 36.14924	 19.60853	  3.70647	-11.08261	 40.31808	 -2.67019	 45.43342	701.38000	 38.40	
 20.398	-72.996	 36.24410	 22.04700	  1.81804	-10.47423	 39.32578	 -2.65072	 45.44023	701.38000	 38.40	
 20.413	-68.100	 36.31243	 24.50612	  0.02504	 -9.58566	 38.07587	 -2.62138	 45.40691	701.45001	 38.40	
 20.403	-63.259	 36.42611	 26.93969	 -1.61040	 -8.49582	 36.62575	 -2.59577	 45.41240	701.40997	 38.40	
 20.400	-58.396	 36.51861	 29.18950	 -3.07914	 -7.45833	 34.99796	 -2.56668	 45.39248	701.41998	 38.40	
 20.410	-53.489	 36.59084	 31.28450	 -4.48969	 -6.28845	 33.15488	 -2.53229	 45.40170	701.42999	 38.40	
 20.408	-48.628	 36.66020	 33.26428	 -5.75003	 -5.02086	 31.22525	 -2.51326	 45.43401	701.29999	 38.40	
 20.396	-43.773	 36.70241	 35.05682	 -6.82638	 -3.48336	 29.10711	 -2.47568	 45.40534	701.38000	 38.40	
 20.392	-38.938	 36.75017	 36.69119	 -7.94473	 -1.93848	 26.89947	 -2.40936	 45.43118	701.40997	 38.40	
 20.397	-34.097	 36.72399	 38.11224	 -8.95534	 -0.28023	 24.40383	 -2.31027	 45.42025	701.37000	 38.40	
 20.405	-29.165	 36.75532	 39.33333	 -9.65665	  1.50144	 21.93094	 -2.25165	 45.43480	701.38000	 38.50	
 20.401	-24.295	 36.75047	 40.26244	-10.25674	  3.46581	 19.72081	 -2.21881	 45.40091	701.34998	 38.50	
 20.392	-19.504	 36.76318	 40.96173	-10.68367	  5.59310	 17.37185	 -2.16191	 45.42897	701.28003	 38.50	
 20.410	-14.577	 36.71609	 41.45129	-11.06064	  7.89318	 14.82481	 -2.08210	 45.40178	701.37000	 38.50	
 20.407	 -9.736	 36.73024	 41.72436	-11.22944	 10.24432	 12.37389	 -2.02411	 45.43313	701.37000	 38.50	
 20.401	 -4.847	 36.71812	 41.70956	-11.03957	 12.59538	 10.03835	 -2.01988	 45.42507	701.37000	 38.50	
 20.400	  0.000	 36.67222	 41.47415	-10.88989	 14.94122	  7.73012	 -1.97450	 45.40328	701.38000	 38.50	
 20.401	  4.847	 36.62844	 41.02146	-10.68410	 17.36008	  5.36506	 -1.88911	 45.40534	701.25000	 38.50	
 20.407	  9.736	 36.58987	 40.33766	-10.29404	 19.79531	  3.20741	 -1.85669	 45.41464	701.29999	 38.50	
 20.410	 14.577	 36.52322	 39.39159	 -9.76999	 22.04301	  1.23814	 -1.86556	 45.40268	701.28003	 38.50	
 20.392	 19.504	 36.46479	 38.21883	 -9.16135	 24.53690	 -0.62641	 -1.85082	 45.39838	701.33002	 38.50	
 20.401	 24.295	 36.37598	 36.87442	 -8.44324	 26.86077	 -2.35545	 -1.90379	 45.39910	701.31000	 38.50	
 20.405	 29.165	 36.33479	 35.30490	 -7.49965	 29.13244	 -3.91439	 -1.99078	 45.41922	701.34003	 38.50	
 20.397	 34.097	 36.24387	 33.48678	 -6.33961	 31.28428	 -5.35522	 -2.13165	 45.38037	701.34003	 38.50	
 20.392	 38.938	 36.24256	 31.54092	 -4.96074	 33.31318	 -6.52049	 -2.28280	 45.41426	701.52002	 38.50	
 20.396	 43.773	 36.17482	 29.52004	 -3.53683	 35.08924	 -7.68025	 -2.39901	 45.41790	701.29999	 38.50	
 20.408	 48.628	 36.08893	 27.33360	 -2.04056	 36.74977	 -8.75674	 -2.37630	 45.43318	701.38000	 38.50	
 20.410	 53.489	 35.97275	 24.97770	 -0.51566	 38.22352	 -9.73843	 -2.36641	 45.44562	701.38000	 38.50	
 20.400	 58.396	 35.87152	 22.49392	  1.24693	 39.46434	-10.49064	 -2.38908	 45.41401	701.34998	 38.50	
 20.403	 63.259	 35.79545	 20.12906	  3.10493	 40.48222	-11.16519	 -2.42523	 45.43523	701.35999	 38.50	
 20.413	 68.100	 35.72256	 17.67723	  5.10005	 41.28247	-11.70566	 -2.43382	 45.44235	701.28998	 38.50	
 20.398	 72.996	 35.62103	 15.17201	  7.20210	 41.77658	-11.98182	 -2.44088	 45.40222	701.32001	 38.50	
 20.394	 77.868	 35.55558	 12.94813	  9.17777	 42.07872	-12.10437	 -2.38464	 45.40773	701.33002	 38.50	
 20.403	 82.668	 35.40196	 10.71321	 11.10319	 42.19284	-12.66773	 -2.32078	 45.39604	701.32001	 38.50	
 20.392	 87.560	 35.34382	  8.31631	 13.57405	 42.05370	-12.64610	 -2.24555	 45.39454	701.27002	 38.40	
 20.392	 92.440	 35.33124	  5.98342	 16.10737	 41.69289	-12.41633	 -2.21000	 45.38512	701.26001	 38.40	
 20.403	 97.332	 35.26123	  3.75612	 18.56021	 41.11284	-12.10159	 -2.17586	 45.39811	701.21997	 38.40	
 20.394	102.132	 35.20962	  1.72692	 20.94502	 40.25628	-11.53993	 -2.17973	 45.38216	701.28998	 38.40	
 20.398	107.004	 35.14724	 -0.22316	 23.16903	 39.15982	-10.73689	 -2.16886	 45.37438	701.26001	 38.50	
 20.413	111.900	 35.03217	 -2.04721	 25.61905	 37.91563	-10.05156	 -2.20428	 45.32630	701.35999	 38.50	
 20.403	116.741	 35.02842	 -3.57123	 27.97281	 36.48005	 -9.18026	 -2.22264	 45.39702	701.37000	 38.50	
 20.400	121.604	 35.01747	 -4.84136	 30.12767	 34.78408	 -8.25693	 -2.20367	 45.40928	701.31000	 38.50	
 20.410	126.511	 34.99174	 -6.06070	 32.13985	 32.85698	 -7.05058	 -2.18737	 45.37257	701.34003	 38.50	
 20.408	131.372	 34.93757	 -7.29661	 34.07605	 30.83326	 -5.79426	 -2.18466	 45.36373	701.21997	 38.50	
 20.396	136.227	 34.89355	 -8.42738	 35.87705	 28.66518	 -4.35438	 -2.18785	 45.36167	701.31000	 38.50	
 20.392	141.062	 34.81019	 -9.44112	 37.45363	 26.36172	 -2.78356	 -2.17609	 45.34566	701.28998	 38.50	
 20.397	145.903	 34.71184	-10.34377	 38.82214	 24.04307	 -1.28231	 -2.13036	 45.34252	701.28003	 38.50	
 20.405	150.835	 34.62693	-11.12848	 40.00941	 21.56176	  0.51760	 -2.07932	 45.35928	701.26001	 38.50	
 20.401	155.705	 34.53053	-11.95982	 40.95116	 19.23240	  2.49222	 -2.04766	 45.34793	701.35999	 38.50	
 20.392	160.496	 34.49359	-12.51536	 41.66998	 16.81151	  4.55439	 -2.05288	 45.34925	701.41998	 38.50	
 20.410	165.423	 34.46464	-12.81502	 42.17792	 14.19762	  6.79557	 -2.10693	 45.35070	701.29999	 38.50	
 20.407	170.264	 34.41547	-13.04296	 42.40973	 11.81427	  9.12131	 -2.03596	 45.34931	701.31000	 38.50	
 20.401	175.153	 34.49581	-12.55316	 42.43383	  9.65931	 11.45620	 -1.92971	 45.35495	701.27002	 38.50	
  0.141	 45.000	 45.50715	 18.73729	 20.28782	 19.67303	 18.70439	  1.02674	 45.39820	701.25000	 38.50	
  4.001	128.691	 45.19613	 14.21152	 24.37379	 23.31957	 14.72696	  0.69397	 45.37375	701.15002	 38.50	
  4.002	 76.995	 45.28268	 18.78931	 19.37996	 25.21828	 13.12164	  0.82723	 45.34464	701.28998	 38.50	
  4.002	 25.892	 45.38591	 23.36226	 15.45169	 22.54674	 15.64813	  0.90971	 45.34572	701.22998	 38.50	
  4.002	-25.892	 45.42999	 24.01457	 14.96096	 17.31095	 20.62404	  0.91397	 45.36891	701.22998	 38.50	
  4.002	-76.995	 45.36442	 20.28202	 18.10291	 13.92351	 24.36362	  0.82753	 45.34732	701.27002	 38.50	
  4.001	-128.691	 45.24958	 15.23326	 23.26338	 14.31996	 23.72157	  0.76971	 45.36010	701.29999	 38.50	
  4.000	180.000	 45.15054	 12.69693	 26.08636	 18.28678	 19.15329	  0.70462	 45.36345	701.27002	 38.50	
  8.000	180.000	 43.92736	  6.51802	 30.95685	 16.66866	 18.81389	 -0.11441	 45.35922	701.25000	 38.50	
  7.991	-152.370	 44.05701	  8.22059	 28.95269	 11.79474	 24.31728	  0.03091	 45.36726	701.27002	 38.50	
  7.997	-124.550	 44.21703	 11.96904	 24.60791	  8.46480	 28.36822	  0.00651	 45.36492	701.21002	 38.50	
  8.006	-96.837	 44.43315	 17.18677	 19.06789	  7.44282	 29.87793	  0.11464	 45.39314	701.28998	 38.50	
  7.988	-69.228	 44.60997	 22.77524	 14.14255	  8.57873	 28.59289	  0.13980	 45.38668	701.23999	 38.50	
  7.997	-41.563	 44.71582	 27.31849	 10.29340	 11.89713	 24.68849	  0.07060	 45.40672	701.31000	 38.50	
  8.008	-13.821	 44.75344	 29.53740	  8.48436	 16.99209	 18.96768	  0.23242	 45.40699	701.32001	 38.50	
  8.008	 13.821	 44.70812	 28.81230	  8.98145	 22.63252	 13.77023	  0.31791	 45.42805	701.40997	 38.50	
  7.997	 41.563	 44.53547	 25.30692	 11.76418	 27.40587	  9.45846	  0.13825	 45.38464	701.34998	 38.50	
  7.988	 69.228	 44.38226	 20.02784	 16.37424	 30.08770	  7.14143	 -0.02470	 45.41735	701.27002	 38.50	
  8.006	 96.837	 44.21581	 14.63331	 21.65890	 29.99997	  7.11521	 -0.19976	 45.40083	701.26001	 38.50	
  7.997	124.550	 44.05867	  9.90813	 26.93524	 27.15310	  9.30578	 -0.25056	 45.39295	701.37000	 38.50	
  7.991	152.370	 43.95864	  7.07184	 30.26307	 22.14807	 13.61792	 -0.15923	 45.39769	701.23999	 38.50	
 12.009	161.059	 41.80743	  0.36411	 35.17697	 19.78237	 12.41418	 -1.22741	 45.39212	701.33002	 38.50	
 12.013	142.081	 41.91133	  1.95681	 32.80462	 25.56374	  7.43206	 -1.21422	 45.43118	701.38000	 38.50	
 12.006	123.113	 42.06909	  5.15225	 28.86708	 30.29441	  3.62696	 -1.28319	 45.43764	701.33002	 38.50	
 12.007	104.200	 42.18333	  9.64660	 23.57662	 33.57646	  1.38499	 -1.24890	 45.40493	701.21002	 38.50	
 11.989	 85.301	 42.33794	 15.03809	 18.06112	 34.99272	  0.28715	 -1.14795	 45.38818	701.31000	 38.50	
 12.013	 66.294	 42.50392	 20.60705	 12.63006	 34.29160	  0.94037	 -1.00057	 45.38300	701.38000	 38.50	
 12.012	 47.388	 42.67394	 26.22974	  7.86921	 31.54193	  2.99083	 -0.87340	 45.39653	701.32001	 38.50	
 11.990	 28.440	 42.86753	 30.61900	  4.43880	 27.26192	  6.62329	 -0.74146	 45.39438	701.21002	 38.60	
 11.991	  9.464	 43.00615	 33.44788	  2.42433	 21.71256	 11.50073	 -0.84037	 45.37860	701.23999	 38.60	
 11.991	 -9.464	 43.10233	 34.27269	  1.78322	 16.08838	 17.06988	 -0.81825	 45.39278	701.21002	 38.60	
 11.990	-28.440	 43.07958	 32.84075	  2.88837	 10.61564	 22.68630	 -0.90831	 45.38785	701.34003	 38.60	
 12.012	-47.388	 43.00372	 29.60183	  5.37182	  6.13068	 28.06328	 -1.16559	 45.39394	701.21002	 38.60	
 12.013	-66.294	 42.86800	 24.76146	  9.30252	  3.06341	 31.92688	 -1.10174	 45.39075	701.25000	 38.60	
 11.989	-85.301	 42.71807	 19.04679	 14.33205	  1.44295	 34.19881	 -1.22891	 45.38859	701.15997	 38.60	
 12.007	-104.200	 42.49805	 13.39418	 19.70023	  1.13160	 34.38432	 -1.12900	 45.39270	701.27002	 38.60	
 12.006	-123.113	 42.30148	  8.22982	 25.28666	  2.36719	 32.42727	 -1.06782	 45.41302	701.16998	 38.60	
 12.013	-142.081	 42.09240	  4.03129	 30.22142	  5.04959	 28.75831	 -0.99957	 45.41489	701.13000	 38.60	
 12.009	-161.059	 41.95402	  1.25293	 33.71754	  9.19326	 23.59723	 -0.93679	 45.41029	701.13000	 38.60	
 16.000	180.000	 38.82954	 -5.91832	 39.12400	 11.36381	 16.38505	 -1.85536	 45.39894	701.19000	 38.60	
 15.990	-165.604	 38.93763	 -4.92850	 37.64426	  6.19551	 21.85420	 -1.63537	 45.41088	701.20001	 38.60	
 16.002	-151.165	 39.06585	 -3.16264	 34.59319	  1.74006	 27.51728	 -1.61898	 45.41337	701.26001	 38.60	
 16.002	-136.836	 39.22279	 -0.05167	 30.34577	 -1.44762	 32.14270	 -1.83262	 45.37780	701.25000	 38.60	
 15.995	-122.439	 39.39831	  3.98939	 25.11385	 -3.88400	 35.81260	 -1.91557	 45.37658	701.21002	 38.60	
 15.993	-107.966	 39.62244	  9.10391	 19.66341	 -5.12846	 37.94056	 -2.00592	 45.40050	701.27002	 38.60	
 16.005	-93.629	 39.79067	 14.57271	 14.19054	 -5.49084	 38.46177	 -2.25587	 45.37794	701.29999	 38.60	
 15.992	-79.234	 40.06293	 20.28686	  8.78129	 -4.62644	 37.39340	 -2.24434	 45.40453	701.26001	 38.60	
 16.009	-64.774	 40.27722	 26.06462	  3.99017	 -2.61436	 34.66831	 -2.17868	 45.39755	701.20001	 38.60	
 15.997	-50.364	 40.42693	 31.00646	  0.45214	  0.17263	 30.62593	 -2.23697	 45.37603	701.15002	 38.60	
 15.997	-36.045	 40.50946	 34.92021	 -2.20342	  4.16415	 25.65531	 -1.97844	 45.39090	701.21997	 38.60	
 16.000	-21.597	 40.56111	 37.39523	 -3.72874	  9.04693	 19.91788	 -1.68272	 45.39514	701.15997	 38.60	
 16.003	 -7.169	 40.52913	 38.23216	 -4.34632	 14.59055	 14.23676	 -1.60398	 45.36465	701.15002	 38.60	
 16.003	  7.169	 40.44312	 37.41745	 -3.78266	 20.17333	  8.64504	 -1.66811	 45.38387	701.25000	 38.60	
 16.000	 21.597	 40.29588	 35.01797	 -2.36642	 25.94019	  3.58645	 -1.59995	 45.38984	701.25000	 38.60	
 15.997	 36.045	 40.12574	 31.18108	  0.06858	 30.94630	 -0.32326	 -1.69685	 45.37777	701.25000	 38.60	
 15.997	 50.364	 39.95486	 26.27422	  3.61676	 34.97971	 -3.07085	 -1.82276	 45.38432	701.28998	 38.60	
 16.009	 64.774	 39.77018	 20.68415	  8.27411	 37.65763	 -4.71284	 -1.88689	 45.40152	701.34003	 38.60	
 15.992	 79.234	 39.61526	 14.98143	 13.51657	 38.83529	 -5.67323	 -1.94203	 45.43363	701.34003	 38.60	
 16.005	 93.629	 39.41510	  9.32854	 19.12619	 38.34901	 -5.49212	 -2.02552	 45.39308	701.25000	 38.60	
 15.993	107.966	 39.27350	  4.30461	 24.70722	 36.30665	 -4.22554	 -2.04813	 45.38361	701.29999	 38.60	
 15.995	122.439	 39.14542	  0.21727	 29.94893	 32.68838	 -2.01131	 -2.10153	 45.39021	701.23999	 38.60	
 16.002	136.836	 39.02147	 -2.73082	 34.23383	 28.09598	  1.07482	 -2.05444	 45.37981	701.40002	 38.60	
 16.002	151.165	 38.84806	 -4.83663	 37.42908	 22.58461	  5.40570	 -1.96312	 45.36951	701.28998	 38.60	
 15.990	165.604	 38.79922	 -6.00266	 39.06823	 16.93571	 10.72249	 -1.94063	 45.38179	701.28003	 38.60	
 20.003	168.362	 34.89098	-12.40810	 42.13942	 13.09067	  8.55142	 -2.09789	 45.38453	701.19000	 38.60	
 20.008	156.764	 34.99684	-11.52281	 40.95960	 18.90862	  3.36652	 -2.08366	 45.39791	701.32001	 38.60	
 20.000	145.147	 35.14886	 -9.70381	 38.48648	 24.47668	 -1.08792	 -2.14930	 45.37374	701.28998	 38.70	
 19.995	133.545	 35.35406	 -7.28977	 34.80612	 29.88778	 -4.66496	 -2.20867	 45.38007	701.15002	 38.70	
 20.009	121.926	 35.41327	 -4.49200	 30.27990	 34.55726	 -7.65721	 -2.24087	 45.39413	701.23999	 38.70	
 20.005	110.327	 35.52210	 -1.02687	 24.97639	 38.13443	 -9.75603	 -2.21110	 45.39940	701.33002	 38.70	
 19.989	 98.733	 35.67894	  3.54640	 19.51736	 40.60903	-11.32566	 -2.21973	 45.40104	701.31000	 38.70	
 19.999	 87.075	 35.78456	  8.85777	 13.71034	 41.80222	-12.04778	 -2.27132	 45.39555	701.28003	 38.70	
 19.992	 75.457	 35.99350	 14.27030	  8.63218	 41.67485	-11.38464	 -2.38213	 45.38543	701.27002	 38.70	
 20.009	 63.844	 36.15261	 19.96887	  3.75965	 40.30164	-10.62384	 -2.39413	 45.38447	701.22998	 38.70	
 19.989	 52.269	 36.39424	 25.61479	 -0.40875	 37.63432	 -8.87249	 -2.35170	 45.39851	701.16998	 38.70	
 19.999	 40.602	 36.59361	 30.78845	 -3.97043	 33.79346	 -6.42893	 -2.24547	 45.39352	701.27002	 38.70	
 20.004	 29.051	 36.71219	 35.13734	 -6.94344	 29.03928	 -3.40711	 -2.00022	 45.38270	701.28998	 38.70	
 20.005	 17.433	 36.84430	 38.49001	 -8.85933	 23.59319	  0.52766	 -1.85474	 45.37737	701.19000	 38.70	
 20.006	  5.780	 37.00941	 40.64161	 -9.96897	 18.05535	  5.29995	 -1.86377	 45.38437	701.27002	 38.70	
 20.006	 -5.780	 37.09034	 41.43322	-10.45790	 12.45088	 10.78160	 -1.98773	 45.38758	701.28998	 38.70	
 20.005	-17.433	 37.13117	 40.92862	-10.19710	  6.93932	 16.52787	 -2.10517	 45.38559	701.20001	 38.70	
 20.004	-29.051	 37.12744	 39.10032	 -9.06749	  1.98581	 21.93553	 -2.27360	 45.39976	701.25000	 38.70	
 19.999	-40.602	 37.08518	 35.97830	 -7.01552	 -1.98371	 27.63272	 -2.45675	 45.38007	701.28998	 38.70	
 19.989	-52.269	 37.00911	 31.71761	 -4.29051	 -5.42248	 32.54802	 -2.55638	 45.40488	701.31000	 38.70	
 20.009	-63.844	 36.80175	 26.69060	 -0.94022	 -8.07653	 36.61821	 -2.59067	 45.39454	701.22998	 38.70	
 19.992	-75.457	 36.56042	 20.93600	  3.20292	-10.18140	 39.55911	 -2.65488	 45.37206	701.28003	 38.70	
 19.999	-87.075	 36.29702	 15.09707	  8.01378	-11.43553	 41.23544	 -2.68579	 45.38337	701.20001	 38.70	
 19.989	-98.733	 36.07209	  9.76739	 13.08054	-11.70076	 41.59007	 -2.42084	 45.39614	701.25000	 38.70	
 20.005	-110.327	 35.89974	  4.51815	 18.73049	-11.16045	 40.69299	 -2.20441	 45.40794	701.21002	 38.70	
 20.009	-121.926	 35.68595	 -0.21789	 24.14300	 -9.75995	 38.40644	 -2.07705	 45.40232	701.16998	 38.70	
 19.995	-133.545	 35.50453	 -4.06535	 29.65150	 -7.65685	 34.94477	 -1.97377	 45.36068	701.19000	 38.60	
 20.000	-145.147	 35.39820	 -6.80090	 34.23752	 -4.94935	 30.60141	 -1.83557	 45.36987	701.21002	 38.60	
 20.008	-156.764	 35.21610	 -9.14527	 37.94805	 -1.56111	 25.44924	 -1.79855	 45.36747	701.25000	 38.60	
 20.003	-168.362	 35.08737	-10.72763	 40.63180	  2.66232	 19.88075	 -1.83493	 45.38654	701.16998	 38.60	
 20.000	180.000	 34.96338	-11.67459	 41.99637	  7.79683	 14.13301	 -1.88698	 45.36594	701.21997	 38.60	
