FileType=PCF
NHL=14
Date=05/31/19	12:10:15
Facility=APL
Serial=16071-14
Customer=NASA
NP=6
Mach=0.230000
Calibration=1:1
CalPts=490
TstPts=95
PortNumbering=AP Standard
Units=Torr C m/s kg/m^3 deg mm 
Theta[deg]	Phi[deg]	P1[Torr]	P2[Torr]	P3[Torr]	P4[Torr]	P5[Torr]	P6[Torr]	Pt[Torr]	Ps[Abs,Torr]	Ts[C]	
  0.000	  0.000	 26.14805	 10.52622	 11.53916	 11.01760	 10.69147	  0.58255	 26.08653	702.10999	 32.70	
  1.691	128.401	 26.13649	  9.50669	 12.52590	 12.00918	  9.65634	  0.53312	 26.09711	702.20001	 32.70	
  1.692	 77.194	 26.14430	 10.63255	 11.37112	 12.45241	  9.28963	  0.57056	 26.08923	702.15002	 32.70	
  1.699	 26.182	 26.15764	 11.73375	 10.33356	 11.82027	  9.88331	  0.60257	 26.10565	702.15002	 32.70	
  1.699	-26.182	 26.16443	 11.87445	 10.19905	 10.53585	 11.15535	  0.60265	 26.10321	702.19000	 32.70	
  1.692	-77.194	 26.15828	 10.98913	 11.05521	  9.68392	 12.03356	  0.57626	 26.09463	702.22998	 32.70	
  1.691	-128.401	 26.14769	  9.77207	 12.26818	  9.78135	 11.89517	  0.54809	 26.10199	702.19000	 32.70	
  1.700	180.000	 26.12720	  9.11314	 12.94815	 10.79936	 10.81677	  0.52992	 26.09649	702.16998	 32.70	
  3.400	180.000	 26.04222	  7.68277	 14.31405	 10.49884	 10.88647	  0.44634	 26.10515	702.15997	 32.70	
  3.388	-152.325	 26.04905	  8.12720	 13.80761	  9.31449	 12.16689	  0.46992	 26.10050	702.12000	 32.70	
  3.397	-124.529	 26.10466	  9.12648	 12.74260	  8.52371	 13.14096	  0.47998	 26.11001	702.21002	 32.70	
  3.399	-96.763	 26.10991	 10.43672	 11.40200	  8.25349	 13.47343	  0.49344	 26.09971	702.10999	 32.70	
  3.394	-69.283	 26.14568	 11.76333	 10.13211	  8.54820	 13.18499	  0.51489	 26.11159	702.27002	 32.70	
  3.400	-41.398	 26.15884	 12.85627	  9.20814	  9.36744	 12.24230	  0.54302	 26.11537	702.35999	 32.70	
  3.401	-14.021	 26.17168	 13.37962	  8.78360	 10.58490	 10.95236	  0.56288	 26.12903	702.22998	 32.70	
  3.401	 14.021	 26.15323	 13.19420	  8.88832	 11.97678	  9.58364	  0.55949	 26.11123	702.21997	 32.70	
  3.400	 41.398	 26.14929	 12.36319	  9.58481	 13.13231	  8.58373	  0.53503	 26.12074	702.23999	 32.70	
  3.394	 69.283	 26.11692	 11.07683	 10.74024	 13.77655	  8.02299	  0.51542	 26.11908	702.19000	 32.70	
  3.399	 96.763	 26.09239	  9.72832	 12.06789	 13.77004	  7.99068	  0.46938	 26.12352	702.21997	 32.70	
  3.397	124.529	 26.07666	  8.58371	 13.30972	 13.07597	  8.55035	  0.44121	 26.13112	702.25000	 32.70	
  3.388	152.325	 26.05658	  7.86239	 14.12947	 11.89617	  9.54590	  0.43435	 26.13191	702.32001	 32.70	
  5.099	161.165	 25.84884	  6.32688	 15.55080	 11.54437	  9.49625	  0.24875	 26.12161	702.25000	 32.70	
  5.109	142.013	 25.85905	  6.77035	 15.00476	 12.90281	  8.30230	  0.25636	 26.12999	702.28003	 32.70	
  5.095	123.033	 25.89064	  7.59875	 14.01266	 14.05784	  7.31268	  0.24709	 26.12105	702.26001	 32.70	
  5.105	104.191	 25.91006	  8.71831	 12.72563	 14.88717	  6.67316	  0.28437	 26.12318	702.25000	 32.70	
  5.093	 85.207	 25.94737	 10.03674	 11.36646	 15.20750	  6.49040	  0.29756	 26.11173	702.19000	 32.70	
  5.104	 66.290	 26.00169	 11.49372	 10.01301	 15.07595	  6.65297	  0.39060	 26.12722	702.31000	 32.70	
  5.094	 47.331	 26.04054	 12.79605	  8.92288	 14.37994	  7.26236	  0.39337	 26.13298	702.26001	 32.70	
  5.089	 28.397	 26.07076	 13.88301	  8.02653	 13.30490	  8.17219	  0.43704	 26.12679	702.39001	 32.70	
  5.096	  9.576	 26.09398	 14.55572	  7.47276	 12.02104	  9.28608	  0.47608	 26.13392	702.19000	 32.80	
  5.096	 -9.576	 26.11665	 14.75588	  7.34395	 10.58256	 10.65627	  0.47185	 26.14318	702.34003	 32.80	
  5.089	-28.397	 26.11363	 14.42942	  7.62674	  9.29677	 12.04241	  0.45977	 26.14468	702.21002	 32.80	
  5.094	-47.331	 26.10196	 13.63978	  8.27387	  8.19466	 13.30965	  0.41521	 26.14336	702.25000	 32.80	
  5.104	-66.290	 26.07389	 12.50603	  9.20922	  7.35579	 14.27674	  0.39876	 26.13374	702.27002	 32.80	
  5.093	-85.207	 26.03291	 11.13698	 10.40366	  6.92338	 14.78651	  0.38140	 26.12408	702.17999	 32.80	
  5.105	-104.191	 26.01401	  9.72498	 11.80672	  6.90046	 14.82551	  0.36802	 26.14875	702.31000	 32.80	
  5.095	-123.033	 25.97216	  8.43741	 13.15017	  7.23421	 14.36560	  0.35051	 26.13314	702.29999	 32.80	
  5.109	-142.013	 25.93361	  7.32785	 14.35879	  7.90034	 13.45958	  0.32680	 26.13530	702.28003	 32.80	
  5.099	-161.165	 25.88061	  6.57214	 15.23408	  8.93570	 12.23470	  0.33457	 26.12738	702.27002	 32.80	
  5.100	180.000	 25.87361	  6.28195	 15.61542	 10.15369	 10.87196	  0.27054	 26.12638	702.26001	 32.80	
  6.800	180.000	 25.57328	  4.76068	 16.88554	  9.72197	 10.77390	  0.08178	 26.13405	702.27002	 32.80	
  6.796	-166.229	 25.60990	  5.02684	 16.54782	  8.50214	 12.14439	  0.13302	 26.15613	702.35999	 32.80	
  6.808	-152.311	 25.63886	  5.53733	 15.89953	  7.39334	 13.43242	  0.14618	 26.15170	702.27002	 32.90	
  6.795	-138.383	 25.67629	  6.37772	 14.90094	  6.52046	 14.55954	  0.13997	 26.14950	702.21997	 32.90	
  6.792	-124.591	 25.72172	  7.41240	 13.72581	  5.90187	 15.42698	  0.16203	 26.14508	702.25000	 32.90	
  6.787	-110.754	 25.78706	  8.68675	 12.38330	  5.53397	 15.99494	  0.17025	 26.16419	702.19000	 32.90	
  6.800	-96.985	 25.81072	  9.99607	 11.03027	  5.42052	 16.18779	  0.16229	 26.14380	702.27002	 32.90	
  6.800	-83.015	 25.86257	 11.39301	  9.76075	  5.55043	 16.03836	  0.17914	 26.16333	702.19000	 32.90	
  6.787	-69.246	 25.88875	 12.72728	  8.57397	  5.91792	 15.54429	  0.21233	 26.15069	702.34003	 32.90	
  6.792	-55.409	 25.92459	 13.93829	  7.55434	  6.57354	 14.71303	  0.19513	 26.16663	702.21997	 32.90	
  6.795	-41.617	 25.95146	 14.96116	  6.73749	  7.50402	 13.60372	  0.19462	 26.16724	702.23999	 32.90	
  6.808	-27.689	 25.96031	 15.67725	  6.20921	  8.64983	 12.29417	  0.26574	 26.16402	702.35999	 32.90	
  6.796	-13.771	 25.95050	 16.03439	  5.90594	  9.86788	 10.91943	  0.28113	 26.14984	702.31000	 32.90	
  6.800	  0.000	 25.95522	 16.02651	  5.88551	 11.25890	  9.55889	  0.25916	 26.14023	702.22998	 32.90	
  6.796	 13.771	 25.94123	 15.66756	  6.12837	 12.62745	  8.34627	  0.29270	 26.16979	702.29999	 32.90	
  6.808	 27.689	 25.90751	 14.94607	  6.70242	 13.91503	  7.21422	  0.27295	 26.15705	702.28998	 32.90	
  6.795	 41.617	 25.87970	 13.92825	  7.49586	 15.03526	  6.27136	  0.23545	 26.16094	702.21997	 32.90	
  6.792	 55.409	 25.84846	 12.70595	  8.51152	 15.89257	  5.58285	  0.20541	 26.16930	702.09003	 32.90	
  6.787	 69.246	 25.80523	 11.37764	  9.67396	 16.37704	  5.15126	  0.17147	 26.16680	702.21002	 32.90	
  6.800	 83.015	 25.76830	  9.96335	 10.95779	 16.54442	  4.98312	  0.11540	 26.16533	702.25000	 32.90	
  6.800	 96.985	 25.72406	  8.63933	 12.32537	 16.34386	  5.08996	  0.07696	 26.17016	702.17999	 32.90	
  6.787	110.754	 25.70288	  7.44254	 13.67354	 15.77968	  5.47302	  0.05445	 26.18120	702.22998	 32.90	
  6.792	124.591	 25.65593	  6.39052	 14.87768	 14.89459	  6.13966	  0.02853	 26.17229	702.25000	 32.90	
  6.795	138.383	 25.62862	  5.58475	 15.85947	 13.77350	  7.07954	  0.01558	 26.17562	702.26001	 32.90	
  6.808	152.311	 25.61277	  5.04932	 16.56602	 12.47532	  8.19255	  0.03571	 26.17526	702.28998	 32.90	
  6.796	166.229	 25.61929	  4.80342	 16.92803	 11.09402	  9.44616	  0.05034	 26.18365	702.21002	 33.00	
  8.491	168.704	 25.22694	  3.19447	 18.17392	 10.61835	  9.26052	 -0.18491	 26.19645	702.19000	 33.00	
  8.502	157.493	 25.22321	  3.39231	 17.90301	 12.01209	  7.96032	 -0.19195	 26.19241	702.21997	 33.00	
  8.494	146.194	 25.24673	  3.79908	 17.33540	 13.40898	  6.74475	 -0.18188	 26.19212	702.29999	 33.00	
  8.495	135.039	 25.27184	  4.39875	 16.54089	 14.68204	  5.67020	 -0.20705	 26.19220	702.14001	 33.00	
  8.487	123.723	 25.30233	  5.25307	 15.46399	 15.82914	  4.75822	 -0.20750	 26.18723	702.21997	 33.00	
  8.492	112.575	 25.33197	  6.30269	 14.24753	 16.72366	  4.09536	 -0.19529	 26.18587	702.20001	 33.00	
  8.510	101.220	 25.35550	  7.50850	 12.87777	 17.38950	  3.65844	 -0.18311	 26.18289	702.14001	 33.00	
  8.500	 90.000	 25.42503	  8.80883	 11.49811	 17.74902	  3.47141	 -0.15470	 26.20760	702.20001	 33.00	
  8.510	 78.780	 25.46358	 10.18078	 10.15161	 17.81818	  3.43224	 -0.10278	 26.20036	702.21997	 33.00	
  8.492	 67.425	 25.50605	 11.63155	  8.84455	 17.54254	  3.68489	 -0.06226	 26.19378	702.20001	 33.00	
  8.487	 56.277	 25.56210	 13.00422	  7.65523	 17.01362	  4.12283	 -0.02637	 26.19779	702.15002	 33.00	
  8.495	 44.961	 25.59085	 14.29052	  6.57691	 16.20971	  4.72823	  0.01240	 26.19536	702.09003	 33.00	
  8.494	 33.806	 25.61514	 15.40104	  5.68090	 15.16571	  5.58270	  0.04274	 26.17343	702.14001	 33.00	
  8.502	 22.507	 25.66710	 16.32591	  5.01325	 13.93121	  6.62782	  0.06976	 26.19513	702.20001	 33.00	
  8.491	 11.296	 25.70238	 16.93924	  4.55059	 12.57823	  7.82032	  0.04437	 26.19968	702.06000	 33.00	
  8.500	  0.000	 25.72349	 17.29348	  4.33099	 11.15176	  9.11956	  0.02217	 26.19570	702.19000	 33.10	
  8.491	-11.296	 25.75065	 17.35340	  4.33312	  9.75786	 10.47256	  0.02204	 26.20543	702.19000	 33.10	
  8.502	-22.507	 25.72036	 17.07711	  4.51466	  8.44673	 11.87254	  0.01139	 26.18839	702.15002	 33.10	
  8.494	-33.806	 25.72704	 16.50488	  4.95712	  7.20947	 13.27294	 -0.02256	 26.20728	702.22998	 33.10	
  8.495	-44.961	 25.71269	 15.65276	  5.57952	  6.13693	 14.55304	 -0.04761	 26.20064	702.19000	 33.10	
  8.487	-56.277	 25.67538	 14.55836	  6.41466	  5.26132	 15.63872	 -0.05692	 26.18677	702.19000	 33.10	
  8.492	-67.425	 25.65346	 13.32815	  7.44737	  4.58444	 16.52287	 -0.05658	 26.20558	702.16998	 33.10	
  8.510	-78.780	 25.60927	 11.95505	  8.67941	  4.16713	 17.13264	 -0.06459	 26.19438	702.15997	 33.10	
  8.500	-90.000	 25.57247	 10.53885	  9.96367	  3.92070	 17.45744	 -0.09701	 26.20512	702.21997	 33.10	
  8.510	-101.220	 25.52636	  9.17068	 11.26304	  3.89659	 17.46014	 -0.08448	 26.20288	702.17999	 33.10	
  8.492	-112.575	 25.48205	  7.81471	 12.68379	  4.08518	 17.16564	 -0.05897	 26.20080	702.14001	 33.10	
  8.487	-123.723	 25.42631	  6.57993	 14.02377	  4.41602	 16.59411	 -0.06906	 26.20098	702.16998	 33.10	
  8.495	-135.039	 25.37652	  5.49735	 15.26236	  4.96469	 15.75244	 -0.07947	 26.20267	702.12000	 33.10	
  8.494	-146.194	 25.31421	  4.58843	 16.33077	  5.78219	 14.64907	 -0.07489	 26.16510	702.22998	 33.10	
  8.502	-157.493	 25.28901	  3.89868	 17.20953	  6.80189	 13.39431	 -0.07252	 26.18365	702.22998	 33.10	
  8.491	-168.704	 25.26332	  3.42395	 17.81608	  7.96950	 12.03885	 -0.09054	 26.18793	702.25000	 33.10	
  8.500	180.000	 25.23517	  3.20471	 18.13418	  9.27613	 10.61265	 -0.14062	 26.19000	702.23999	 33.20	
 10.200	180.000	 24.73292	  1.56930	 19.27913	  8.69381	 10.41729	 -0.40665	 26.17792	702.13000	 33.20	
 10.191	-170.497	 24.77852	  1.78897	 18.98169	  7.37845	 11.83746	 -0.35395	 26.19896	702.10999	 33.20	
 10.210	-161.034	 24.79706	  2.20075	 18.44497	  6.16166	 13.23181	 -0.32501	 26.19676	702.13000	 33.20	
 10.194	-151.526	 24.83733	  2.81589	 17.65417	  5.07184	 14.56805	 -0.30452	 26.19313	702.19000	 33.20	
 10.190	-142.105	 24.86279	  3.59471	 16.65763	  4.16167	 15.75248	 -0.31406	 26.17539	702.10999	 33.20	
 10.215	-132.646	 24.89896	  4.54333	 15.48618	  3.41647	 16.80470	 -0.34528	 26.17519	702.13000	 33.20	
 10.203	-123.092	 24.95449	  5.66587	 14.19467	  2.90261	 17.62867	 -0.33396	 26.18568	702.15997	 33.20	
 10.192	-113.678	 25.02670	  6.88678	 12.83942	  2.56723	 18.24579	 -0.33651	 26.20300	702.20001	 33.20	
 10.208	-104.249	 25.06576	  8.19426	 11.44545	  2.36061	 18.57231	 -0.35414	 26.17295	702.08002	 33.20	
 10.210	-94.801	 25.09579	  9.57225	 10.10877	  2.30556	 18.67566	 -0.36727	 26.17142	702.19000	 33.20	
 10.210	-85.199	 25.16234	 11.03579	  8.75985	  2.43424	 18.50591	 -0.37511	 26.17993	702.17999	 33.20	
 10.208	-75.751	 25.22149	 12.47136	  7.47792	  2.73127	 18.09185	 -0.34335	 26.18187	702.15997	 33.20	
 10.192	-66.322	 25.24286	 13.81345	  6.30774	  3.20188	 17.40532	 -0.33238	 26.17320	702.15997	 33.20	
 10.203	-56.908	 25.27430	 15.09381	  5.24599	  3.83253	 16.52203	 -0.35784	 26.17920	702.16998	 33.20	
 10.215	-47.354	 25.29582	 16.24852	  4.34126	  4.69488	 15.41585	 -0.34738	 26.19033	702.14001	 33.30	
 10.190	-37.895	 25.32140	 17.17076	  3.67183	  5.70895	 14.16104	 -0.29909	 26.19108	702.21997	 33.30	
 10.194	-28.474	 25.33644	 17.87888	  3.19579	  6.89572	 12.80012	 -0.25238	 26.18846	702.09998	 33.30	
 10.210	-18.966	 25.34380	 18.35238	  2.82670	  8.17725	 11.36063	 -0.22471	 26.18149	702.09003	 33.30	
 10.191	 -9.503	 25.32405	 18.53019	  2.69028	  9.53465	  9.93827	 -0.22019	 26.16600	701.95001	 33.30	
 10.200	  0.000	 25.33064	 18.48611	  2.73689	 10.94586	  8.58680	 -0.21784	 26.16873	702.09003	 33.30	
 10.191	  9.503	 25.30152	 18.14067	  2.97384	 12.39258	  7.25125	 -0.20537	 26.17085	702.02002	 33.30	
 10.210	 18.966	 25.26730	 17.57530	  3.35702	 13.79916	  6.00423	 -0.17533	 26.17557	702.12000	 33.30	
 10.194	 28.474	 25.25562	 16.76253	  3.94157	 15.12371	  4.89979	 -0.15486	 26.19379	702.08002	 33.30	
 10.190	 37.895	 25.20647	 15.73287	  4.69060	 16.27750	  3.95788	 -0.19159	 26.18509	702.12000	 33.30	
 10.215	 47.354	 25.15771	 14.55345	  5.61535	 17.29285	  3.14957	 -0.22488	 26.18320	702.16998	 33.30	
 10.203	 56.908	 25.11193	 13.20899	  6.71618	 18.08527	  2.56152	 -0.25564	 26.17379	702.20001	 33.30	
 10.192	 66.322	 25.08952	 11.82076	  7.94598	 18.62336	  2.17024	 -0.28478	 26.18710	702.08002	 33.30	
 10.208	 75.751	 25.01929	 10.37346	  9.23648	 18.93736	  1.91870	 -0.31646	 26.17622	702.03003	 33.30	
 10.210	 85.199	 24.98557	  8.95014	 10.58950	 19.00033	  1.80718	 -0.36199	 26.19190	702.10999	 33.30	
 10.210	 94.801	 24.93425	  7.59259	 11.97542	 18.76270	  1.94189	 -0.39994	 26.16861	702.07001	 33.30	
 10.208	104.249	 24.89254	  6.30193	 13.37131	 18.30158	  2.22455	 -0.42550	 26.16870	702.03003	 33.30	
 10.192	113.678	 24.86402	  5.14583	 14.73379	 17.58017	  2.70832	 -0.42839	 26.18627	702.16998	 33.30	
 10.203	123.092	 24.82452	  4.10798	 15.94909	 16.65621	  3.37822	 -0.44904	 26.17167	702.16998	 33.30	
 10.215	132.646	 24.78983	  3.20110	 17.08125	 15.53182	  4.20830	 -0.44091	 26.17290	702.10999	 33.30	
 10.190	142.105	 24.78204	  2.53411	 17.98104	 14.27473	  5.25016	 -0.40789	 26.19626	702.10999	 33.30	
 10.194	151.526	 24.75627	  2.03388	 18.68629	 12.90095	  6.40692	 -0.39981	 26.19081	702.09998	 33.40	
 10.210	161.034	 24.73542	  1.69915	 19.15376	 11.49148	  7.66393	 -0.41585	 26.19844	702.03998	 33.30	
 10.191	170.497	 24.73107	  1.56647	 19.32964	 10.07016	  9.01121	 -0.42519	 26.17860	702.14001	 33.30	
 11.899	171.783	 24.16807	 -0.00988	 20.44045	  9.48783	  8.70659	 -0.66294	 26.20286	702.09003	 33.30	
 11.890	163.610	 24.16479	  0.16051	 20.24689	 10.87901	  7.35458	 -0.65682	 26.19560	702.06000	 33.40	
 11.889	155.445	 24.16407	  0.37293	 19.89964	 12.30424	  6.02392	 -0.64996	 26.20691	702.01001	 33.40	
 11.909	147.299	 24.17416	  0.72716	 19.31932	 13.68913	  4.82710	 -0.64039	 26.19236	702.03003	 33.40	
 11.902	139.148	 24.18533	  1.23568	 18.52878	 15.02040	  3.74096	 -0.66070	 26.17980	702.03003	 33.40	
 11.894	130.867	 24.22810	  2.01221	 17.51781	 16.29045	  2.79635	 -0.68548	 26.17587	702.03998	 33.40	
 11.897	122.732	 24.26244	  2.90654	 16.40405	 17.41707	  1.98287	 -0.70038	 26.18741	702.14001	 33.40	
 11.903	114.597	 24.30836	  3.93281	 15.16525	 18.35640	  1.37068	 -0.69156	 26.18630	702.13000	 33.40	
 11.893	106.346	 24.35271	  5.09934	 13.79275	 19.12470	  0.84528	 -0.67031	 26.18875	702.09003	 33.40	
 11.892	 98.155	 24.39847	  6.34261	 12.39767	 19.68952	  0.45457	 -0.65925	 26.18977	702.03998	 33.40	
 11.900	 90.000	 24.42847	  7.66928	 10.98131	 20.00222	  0.22399	 -0.63976	 26.19253	702.01001	 33.40	
 11.892	 81.845	 24.47562	  9.05733	  9.62733	 20.10482	  0.17174	 -0.59675	 26.17963	701.87000	 33.40	
 11.893	 73.654	 24.52872	 10.50191	  8.27409	 19.98092	  0.34278	 -0.55900	 26.18948	702.06000	 33.40	
 11.903	 65.403	 24.55950	 11.94914	  6.94298	 19.65543	  0.58264	 -0.52915	 26.19126	702.06000	 33.40	
 11.897	 57.268	 24.61045	 13.36814	  5.75259	 19.06804	  1.02555	 -0.49689	 26.20146	702.01001	 33.40	
 11.894	 49.133	 24.66404	 14.72060	  4.66985	 18.29841	  1.59168	 -0.46674	 26.19362	701.92999	 33.50	
 11.902	 40.852	 24.70003	 15.96474	  3.70772	 17.32537	  2.33095	 -0.42964	 26.18625	701.95001	 33.50	
 11.909	 32.701	 24.74519	 17.08953	  2.88235	 16.22239	  3.20541	 -0.40191	 26.20510	701.94000	 33.50	
 11.889	 24.555	 24.78842	 17.99154	  2.28110	 14.95073	  4.24503	 -0.38308	 26.18633	701.98999	 33.50	
 11.890	 16.390	 24.82877	 18.74335	  1.75596	 13.59061	  5.38592	 -0.42340	 26.18871	702.07001	 33.50	
 11.899	  8.217	 24.85795	 19.29760	  1.37081	 12.16970	  6.64844	 -0.44557	 26.20330	702.01001	 33.50	
 11.900	  0.000	 24.87169	 19.60588	  1.18930	 10.70662	  7.99768	 -0.44056	 26.18843	702.15002	 33.50	
 11.899	 -8.217	 24.88621	 19.69120	  1.10727	  9.31690	  9.38065	 -0.43128	 26.18556	702.14001	 33.50	
 11.890	-16.390	 24.89148	 19.54245	  1.23099	  7.91250	 10.77800	 -0.43024	 26.19060	702.10999	 33.50	
 11.889	-24.555	 24.89115	 19.15648	  1.47911	  6.57670	 12.23528	 -0.47043	 26.18154	702.04999	 33.50	
 11.909	-32.701	 24.86957	 18.56582	  1.89601	  5.34722	 13.62526	 -0.53690	 26.18539	702.08002	 33.50	
 11.902	-40.852	 24.86374	 17.76217	  2.47481	  4.27297	 14.95803	 -0.60912	 26.20255	702.03003	 33.50	
 11.894	-49.133	 24.84287	 16.74324	  3.19686	  3.32510	 16.19565	 -0.64592	 26.18018	702.10999	 33.50	
 11.897	-57.268	 24.81419	 15.59194	  4.08498	  2.47962	 17.30150	 -0.63325	 26.19734	702.02002	 33.50	
 11.903	-65.403	 24.77479	 14.29793	  5.12640	  1.80048	 18.22846	 -0.61205	 26.19079	702.08002	 33.50	
 11.893	-73.654	 24.73856	 12.92282	  6.29262	  1.32654	 18.94929	 -0.61489	 26.18860	702.10999	 33.50	
 11.892	-81.845	 24.69839	 11.51617	  7.50311	  1.00125	 19.44639	 -0.64841	 26.19893	702.03998	 33.50	
 11.900	-90.000	 24.63592	 10.04750	  8.81808	  0.80167	 19.73744	 -0.65641	 26.18373	702.03003	 33.50	
 11.892	-98.155	 24.59577	  8.62463	 10.18504	  0.74666	 19.80263	 -0.62891	 26.19488	702.07001	 33.50	
 11.893	-106.346	 24.53773	  7.26188	 11.54329	  0.86131	 19.60472	 -0.59588	 26.18549	702.17999	 33.50	
 11.903	-114.597	 24.47194	  5.92613	 12.95812	  1.06930	 19.22700	 -0.56513	 26.18090	702.06000	 33.50	
 11.897	-122.732	 24.43931	  4.75233	 14.30531	  1.42391	 18.62060	 -0.56924	 26.19935	702.21997	 33.50	
 11.894	-130.867	 24.39920	  3.62577	 15.62989	  1.93443	 17.80039	 -0.56366	 26.20571	702.15997	 33.50	
 11.902	-139.148	 24.32611	  2.61570	 16.86448	  2.57874	 16.77463	 -0.55194	 26.17363	702.02002	 33.50	
 11.909	-147.299	 24.29019	  1.80135	 17.93785	  3.39147	 15.63496	 -0.51808	 26.18070	702.17999	 33.50	
 11.889	-155.445	 24.27772	  1.16060	 18.85196	  4.40585	 14.36457	 -0.49927	 26.21081	702.15997	 33.50	
 11.890	-163.610	 24.24539	  0.62687	 19.57182	  5.54086	 12.97961	 -0.53361	 26.21291	702.14001	 33.50	
 11.899	-171.783	 24.21811	  0.25570	 20.08107	  6.75620	 11.56624	 -0.56803	 26.21940	702.09003	 33.60	
 11.900	180.000	 24.18557	  0.03373	 20.36662	  8.08560	 10.13701	 -0.63072	 26.19485	702.15002	 33.60	
 13.600	180.000	 23.49933	 -1.49955	 21.36519	  7.37667	  9.79432	 -0.84942	 26.19619	702.03998	 33.60	
 13.608	-172.853	 23.52247	 -1.28162	 21.09543	  6.06372	 11.16875	 -0.79306	 26.20331	702.00000	 33.60	
 13.611	-165.583	 23.53210	 -0.97110	 20.60703	  4.81695	 12.60375	 -0.76051	 26.18598	702.02002	 33.60	
 13.601	-158.353	 23.58305	 -0.50180	 19.93416	  3.69335	 14.03057	 -0.72278	 26.19364	702.00000	 33.60	
 13.609	-151.210	 23.61042	  0.10906	 19.07613	  2.66205	 15.35373	 -0.73561	 26.19125	702.07001	 33.60	
 13.611	-143.999	 23.64655	  0.79883	 18.08091	  1.75925	 16.59887	 -0.75253	 26.19468	701.88000	 33.60	
 13.601	-136.825	 23.69979	  1.64003	 16.95180	  0.99952	 17.71843	 -0.78589	 26.19244	702.04999	 33.60	
 13.596	-129.640	 23.75382	  2.62149	 15.71119	  0.37068	 18.71271	 -0.81486	 26.20826	702.01001	 33.60	
 13.611	-122.431	 23.79509	  3.70535	 14.37702	 -0.09945	 19.51846	 -0.82168	 26.19512	702.14001	 33.60	
 13.604	-115.211	 23.85983	  4.93241	 12.99799	 -0.44030	 20.13644	 -0.81535	 26.20031	702.07001	 33.60	
 13.595	-108.042	 23.93231	  6.20060	 11.62106	 -0.66246	 20.56629	 -0.85197	 26.20831	702.03998	 33.60	
 13.607	-100.793	 23.97547	  7.58611	 10.23092	 -0.79903	 20.80280	 -0.89003	 26.20373	701.97998	 33.60	
 13.601	-93.617	 24.01229	  8.99811	  8.83853	 -0.82199	 20.83137	 -0.93786	 26.20120	701.98999	 33.60	
 13.601	-86.383	 24.07650	 10.45139	  7.49007	 -0.68605	 20.66076	 -0.94881	 26.19809	701.91998	 33.60	
 13.607	-79.207	 24.12068	 11.91195	  6.18892	 -0.45995	 20.27521	 -0.93645	 26.19793	702.03998	 33.60	
 13.595	-71.958	 24.16692	 13.34172	  4.99683	 -0.06872	 19.70543	 -0.89701	 26.19849	701.95001	 33.60	
 13.604	-64.789	 24.20800	 14.70267	  3.89668	  0.41738	 18.96250	 -0.90671	 26.19065	702.01001	 33.60	
 13.611	-57.569	 24.24572	 16.02499	  2.90006	  1.07803	 18.03804	 -0.92248	 26.21372	701.90997	 33.60	
 13.596	-50.360	 24.28509	 17.19024	  2.05682	  1.89934	 16.94543	 -0.92427	 26.20465	701.87000	 33.60	
 13.601	-43.175	 24.31108	 18.24439	  1.26297	  2.81699	 15.72226	 -0.88553	 26.20200	702.00000	 33.60	
 13.611	-36.001	 24.32038	 19.11996	  0.63024	  3.82963	 14.42347	 -0.79924	 26.19799	701.87000	 33.60	
 13.609	-28.790	 24.32925	 19.83194	  0.12428	  4.97193	 13.01554	 -0.73720	 26.20164	701.98999	 33.70	
 13.601	-21.647	 24.34009	 20.32245	 -0.17281	  6.23882	 11.60716	 -0.66490	 26.18751	702.09003	 33.70	
 13.611	-14.417	 24.34239	 20.67303	 -0.51450	  7.57940	 10.15619	 -0.63292	 26.20880	702.01001	 33.70	
 13.608	 -7.147	 24.32684	 20.76994	 -0.62313	  9.00235	  8.72384	 -0.63276	 26.19775	702.06000	 33.70	
 13.600	  0.000	 24.33082	 20.66469	 -0.45824	 10.39734	  7.35123	 -0.64402	 26.20328	701.98999	 33.70	
 13.608	  7.147	 24.30446	 20.36030	 -0.31335	 11.85122	  5.99462	 -0.66216	 26.19646	702.06000	 33.70	
 13.611	 14.417	 24.26745	 19.86374	  0.01230	 13.28843	  4.70419	 -0.63475	 26.19427	701.98999	 33.70	
 13.601	 21.647	 24.22174	 19.16671	  0.52432	 14.69214	  3.54284	 -0.61556	 26.20269	702.00000	 33.70	
 13.609	 28.790	 24.16302	 18.29549	  1.15357	 16.00078	  2.46855	 -0.61916	 26.18870	701.97998	 33.70	
 13.611	 36.001	 24.13255	 17.26291	  1.86803	 17.22291	  1.45217	 -0.63251	 26.19030	701.98999	 33.70	
 13.601	 43.175	 24.09406	 16.10719	  2.67601	 18.28258	  0.60112	 -0.68219	 26.19987	701.90997	 33.70	
 13.596	 50.360	 24.04562	 14.82748	  3.65572	 19.20902	 -0.08363	 -0.69654	 26.19891	701.98999	 33.70	
 13.611	 57.569	 24.00216	 13.44359	  4.74552	 19.99509	 -0.61435	 -0.71678	 26.19040	701.90002	 33.70	
 13.604	 64.789	 23.95423	 12.01961	  5.93901	 20.56143	 -0.98370	 -0.74211	 26.19082	701.78003	 33.70	
 13.595	 71.958	 23.91267	 10.59662	  7.19396	 20.93884	 -1.26755	 -0.76804	 26.19014	701.91998	 33.70	
 13.607	 79.207	 23.86192	  9.13431	  8.55974	 21.12740	 -1.44766	 -0.80879	 26.19140	701.91998	 33.70	
 13.601	 86.383	 23.83981	  7.72485	  9.97789	 21.12857	 -1.44918	 -0.83249	 26.21087	701.90002	 33.70	
 13.601	 93.617	 23.78084	  6.33383	 11.34450	 20.87900	 -1.27538	 -0.86162	 26.18113	701.83002	 33.70	
 13.607	100.793	 23.74435	  5.03246	 12.75513	 20.49257	 -1.04303	 -0.88640	 26.19679	701.90997	 33.70	
 13.595	108.042	 23.70409	  3.81733	 14.16599	 19.85526	 -0.64287	 -0.88985	 26.19129	701.85999	 33.70	
 13.604	115.211	 23.65582	  2.70088	 15.49397	 19.05757	 -0.13637	 -0.93082	 26.19333	701.88000	 33.70	
 13.611	122.431	 23.62861	  1.69460	 16.74803	 18.10203	  0.55067	 -0.90399	 26.19177	701.96002	 33.70	
 13.596	129.640	 23.59787	  0.81818	 17.91569	 16.97903	  1.35264	 -0.90786	 26.18970	701.88000	 33.70	
 13.601	136.825	 23.55618	  0.13888	 18.92682	 15.74892	  2.23986	 -0.87662	 26.17824	701.95001	 33.70	
 13.611	143.999	 23.54380	 -0.44704	 19.80991	 14.44516	  3.24214	 -0.84695	 26.19939	701.85999	 33.70	
 13.609	151.210	 23.49946	 -0.90449	 20.48243	 13.05702	  4.33313	 -0.84038	 26.17930	701.87000	 33.70	
 13.601	158.353	 23.49201	 -1.23461	 20.99900	 11.63810	  5.58061	 -0.86360	 26.19823	701.91998	 33.70	
 13.611	165.583	 23.48258	 -1.44841	 21.31303	 10.17896	  6.94552	 -0.87924	 26.18877	701.84998	 33.70	
 13.608	172.853	 23.50364	 -1.53516	 21.43163	  8.78592	  8.36716	 -0.85277	 26.19703	701.88000	 33.70	
 15.298	173.587	 22.72233	 -3.04105	 22.33610	  8.04311	  7.94251	 -1.03959	 26.19188	701.84003	 33.70	
 15.291	167.167	 22.70618	 -2.96752	 22.25268	  9.44321	  6.53096	 -1.05519	 26.17511	701.78003	 33.80	
 15.307	160.676	 22.70465	 -2.79089	 21.98459	 10.88100	  5.17667	 -1.04816	 26.17142	701.82001	 33.80	
 15.300	154.261	 22.73181	 -2.51139	 21.55446	 12.34904	  3.90910	 -1.03572	 26.19156	701.88000	 33.80	
 15.288	147.854	 22.76945	 -2.10607	 20.91277	 13.76022	  2.76607	 -1.04397	 26.18682	701.84003	 33.80	
 15.293	141.428	 22.80647	 -1.60288	 20.15077	 15.10848	  1.67876	 -1.05340	 26.19142	701.78998	 33.80	
 15.299	134.985	 22.83341	 -1.00044	 19.23922	 16.38518	  0.68736	 -1.09422	 26.18904	701.77002	 33.80	
 15.305	128.583	 22.87013	 -0.28559	 18.19202	 17.60305	 -0.15819	 -1.11849	 26.18737	701.81000	 33.80	
 15.309	122.142	 22.90347	  0.55441	 17.03030	 18.69974	 -0.82308	 -1.13170	 26.18473	701.78003	 33.80	
 15.304	115.711	 22.92649	  1.47267	 15.79381	 19.64878	 -1.41656	 -1.11865	 26.17693	701.83002	 33.80	
 15.297	109.291	 22.96834	  2.50353	 14.46424	 20.45979	 -1.92859	 -1.10104	 26.18809	701.85999	 33.80	
 15.293	102.897	 23.01212	  3.71364	 13.06000	 21.11955	 -2.31578	 -1.09413	 26.18587	701.82001	 33.80	
 15.293	 96.458	 23.05181	  4.97184	 11.62860	 21.61969	 -2.61064	 -1.07753	 26.18066	701.82001	 33.80	
 15.300	 90.000	 23.07761	  6.29841	 10.25321	 21.93694	 -2.85906	 -1.06126	 26.17783	701.81000	 33.80	
 15.293	 83.542	 23.12957	  7.71808	  8.83690	 22.07220	 -2.94065	 -1.03120	 26.19888	701.82001	 33.80	
 15.293	 77.103	 23.15886	  9.12624	  7.44569	 22.00465	 -2.87052	 -1.00883	 26.16336	701.79999	 33.80	
 15.297	 70.709	 23.21433	 10.59192	  6.14147	 21.77370	 -2.65184	 -0.97527	 26.18217	701.78003	 33.80	
 15.304	 64.289	 23.23889	 12.01722	  4.89495	 21.35616	 -2.38775	 -0.96885	 26.16384	701.84998	 33.80	
 15.309	 57.858	 23.28842	 13.45332	  3.71248	 20.77131	 -2.00169	 -0.95993	 26.16855	701.87000	 33.80	
 15.305	 51.417	 23.34142	 14.81765	  2.67457	 20.04046	 -1.49881	 -0.96502	 26.16847	701.89001	 33.80	
 15.299	 45.015	 23.41082	 16.12327	  1.70001	 19.14628	 -0.91655	 -0.92780	 26.18961	701.87000	 33.80	
 15.293	 38.572	 23.43354	 17.34054	  0.75547	 18.08883	 -0.24426	 -0.89057	 26.18825	701.95001	 33.80	
 15.288	 32.146	 23.47965	 18.42280	 -0.04069	 16.93863	  0.63954	 -0.84313	 26.18313	701.91998	 33.80	
 15.300	 25.739	 23.53760	 19.39657	 -0.66959	 15.68303	  1.66385	 -0.82630	 26.19710	701.88000	 33.80	
 15.307	 19.324	 23.55256	 20.19044	 -1.16282	 14.32613	  2.77968	 -0.82743	 26.18370	701.89001	 33.80	
 15.291	 12.833	 23.61633	 20.84373	 -1.55269	 12.91784	  4.00737	 -0.84015	 26.20135	701.89001	 33.80	
 15.298	  6.413	 23.64409	 21.31621	 -1.85280	 11.47363	  5.26865	 -0.84893	 26.18684	701.87000	 33.80	
 15.300	  0.000	 23.64856	 21.61144	 -2.02515	  9.99049	  6.61435	 -0.85355	 26.18489	701.91998	 33.80	
 15.298	 -6.413	 23.66753	 21.73070	 -2.14120	  8.62339	  8.01864	 -0.83577	 26.18889	701.81000	 33.80	
 15.291	-12.833	 23.68275	 21.64227	 -2.07106	  7.21236	  9.46161	 -0.82719	 26.18076	701.90997	 33.80	
 15.307	-19.324	 23.67789	 21.37336	 -1.88678	  5.81663	 10.90283	 -0.85094	 26.17342	701.82001	 33.80	
 15.300	-25.739	 23.67223	 20.92948	 -1.59637	  4.54590	 12.32800	 -0.91078	 26.17214	701.88000	 33.80	
 15.288	-32.146	 23.66508	 20.33955	 -1.21125	  3.37332	 13.72623	 -0.98874	 26.19832	701.84003	 33.80	
 15.293	-38.572	 23.65563	 19.54593	 -0.69580	  2.28860	 15.10463	 -1.08505	 26.18695	701.87000	 33.80	
 15.299	-45.015	 23.63350	 18.59580	 -0.06257	  1.28652	 16.39971	 -1.15719	 26.19047	701.76001	 33.90	
 15.305	-51.417	 23.59917	 17.53317	  0.73732	  0.42558	 17.57303	 -1.18780	 26.17832	701.73999	 33.90	
 15.309	-57.858	 23.57326	 16.32029	  1.68232	 -0.33798	 18.65833	 -1.17761	 26.18846	701.84998	 33.90	
 15.304	-64.289	 23.53672	 15.01896	  2.65863	 -0.97663	 19.61437	 -1.15782	 26.19767	701.78003	 33.90	
 15.297	-70.709	 23.49388	 13.64961	  3.71631	 -1.48231	 20.39156	 -1.15074	 26.19918	701.72998	 33.90	
 15.293	-77.103	 23.44608	 12.25213	  4.84596	 -1.83473	 20.97841	 -1.16809	 26.17814	701.73999	 33.90	
 15.293	-83.542	 23.39501	 10.81422	  6.07527	 -2.13673	 21.42514	 -1.20255	 26.18227	701.76001	 33.90	
 15.300	-90.000	 23.33668	  9.34975	  7.40095	 -2.33447	 21.70394	 -1.19674	 26.18381	701.76001	 33.90	
 15.293	-96.458	 23.30069	  7.91565	  8.77534	 -2.39113	 21.79214	 -1.17282	 26.20417	701.75000	 33.90	
 15.293	-102.897	 23.23502	  6.50299	 10.16529	 -2.35535	 21.69047	 -1.12341	 26.18899	701.84998	 33.90	
 15.297	-109.291	 23.19454	  5.19131	 11.53074	 -2.16934	 21.41608	 -1.07187	 26.19136	701.83002	 33.90	
 15.304	-115.711	 23.13170	  3.92850	 12.94402	 -1.91542	 20.95993	 -1.04817	 26.18891	701.81000	 33.90	
 15.309	-122.142	 23.07640	  2.72474	 14.34208	 -1.58178	 20.31225	 -1.02341	 26.18598	701.78998	 33.90	
 15.305	-128.583	 23.01192	  1.64541	 15.67249	 -1.20643	 19.53570	 -1.00496	 26.19212	701.89001	 33.90	
 15.299	-134.985	 22.94996	  0.67230	 16.91413	 -0.65565	 18.57768	 -0.99280	 26.16182	701.84003	 33.90	
 15.293	-141.428	 22.92969	 -0.15062	 18.10029	  0.09205	 17.49644	 -0.95944	 26.19066	701.83002	 33.90	
 15.288	-147.854	 22.89547	 -0.88535	 19.17394	  0.93812	 16.29412	 -0.91796	 26.18822	701.78003	 33.90	
 15.300	-154.261	 22.85041	 -1.53970	 20.11776	  1.88249	 15.00704	 -0.89748	 26.19273	701.76001	 33.90	
 15.307	-160.676	 22.79144	 -2.07427	 20.89070	  2.91636	 13.63415	 -0.90453	 26.18212	701.85999	 33.90	
 15.291	-167.167	 22.76844	 -2.44520	 21.51713	  4.12560	 12.17351	 -0.91259	 26.18219	701.78998	 33.90	
 15.298	-173.587	 22.73874	 -2.76560	 21.97795	  5.31953	 10.75095	 -0.95678	 26.17340	701.84998	 33.90	
 15.300	180.000	 22.71346	 -2.99637	 22.24695	  6.63360	  9.36776	 -1.00795	 26.17547	701.75000	 33.90	
 17.000	180.000	 21.89011	 -4.39646	 23.05549	  5.86492	  8.91366	 -1.12027	 26.18905	701.71002	 33.90	
 16.990	-174.179	 21.89369	 -4.22553	 22.79047	  4.56257	 10.30770	 -1.07708	 26.18250	701.71997	 33.90	
 17.009	-168.383	 21.91631	 -3.93013	 22.37226	  3.33875	 11.73873	 -1.04065	 26.18771	701.84003	 33.90	
 17.000	-162.596	 21.96192	 -3.55491	 21.78400	  2.17505	 13.17773	 -1.01800	 26.19382	701.75000	 33.90	
 16.990	-156.759	 21.98668	 -3.11459	 21.04152	  1.13751	 14.56558	 -1.01173	 26.17561	701.77002	 33.90	
 16.995	-150.919	 22.03337	 -2.54909	 20.17507	  0.13581	 15.90196	 -1.03233	 26.17570	701.83002	 33.90	
 16.988	-145.161	 22.08191	 -1.88837	 19.18436	 -0.73965	 17.14537	 -1.06606	 26.18107	701.78003	 33.90	
 17.014	-139.343	 22.11441	 -1.15990	 18.07314	 -1.50488	 18.29691	 -1.10938	 26.17367	701.73999	 33.90	
 17.007	-133.546	 22.16899	 -0.31606	 16.88477	 -2.12962	 19.32466	 -1.14122	 26.19400	701.75000	 33.90	
 17.001	-127.699	 22.21740	  0.65858	 15.59546	 -2.64685	 20.25873	 -1.17290	 26.18036	701.78998	 34.00	
 17.006	-121.937	 22.23690	  1.69203	 14.24119	 -3.11939	 21.05124	 -1.19335	 26.17728	701.65002	 33.90	
 17.002	-116.134	 22.29616	  2.84967	 12.86299	 -3.45924	 21.68398	 -1.22194	 26.18064	701.84998	 33.90	
 17.001	-110.310	 22.36661	  4.08435	 11.46509	 -3.73821	 22.16727	 -1.26346	 26.19053	701.65997	 33.90	
 16.988	-104.517	 22.43144	  5.37726	 10.11941	 -3.90503	 22.48707	 -1.29089	 26.19345	701.69000	 34.00	
 17.008	-98.662	 22.45588	  6.77290	  8.64777	 -4.00052	 22.64919	 -1.35875	 26.17955	701.78003	 34.00	
 16.996	-92.909	 22.51815	  8.15129	  7.30030	 -3.96774	 22.61440	 -1.38942	 26.17255	701.71997	 34.00	
 16.996	-87.091	 22.58232	  9.60054	  5.98570	 -3.81856	 22.44530	 -1.41129	 26.18411	701.78998	 34.00	
 17.012	-81.253	 22.62714	 11.05363	  4.71559	 -3.61862	 22.11794	 -1.41530	 26.17310	701.76001	 34.00	
 16.988	-75.483	 22.70137	 12.50085	  3.55777	 -3.27869	 21.61297	 -1.39261	 26.18691	701.83002	 34.00	
 17.001	-69.690	 22.73016	 13.89944	  2.41448	 -2.88326	 20.97221	 -1.37004	 26.17135	701.77002	 34.00	
 17.002	-63.866	 22.77414	 15.27469	  1.32989	 -2.36429	 20.15577	 -1.38380	 26.17695	701.83002	 34.00	
 17.006	-58.063	 22.81736	 16.55553	  0.36127	 -1.74981	 19.21702	 -1.40791	 26.17417	701.84998	 34.00	
 17.001	-52.301	 22.86652	 17.76503	 -0.44632	 -1.00736	 18.17201	 -1.41341	 26.19962	701.95001	 34.00	
 17.007	-46.454	 22.86604	 18.87382	 -1.21102	 -0.22189	 16.99533	 -1.39013	 26.18024	701.84998	 34.00	
 17.014	-40.657	 22.89873	 19.88643	 -1.87037	  0.68398	 15.73950	 -1.32031	 26.20740	701.79999	 34.00	
 16.988	-34.839	 22.89965	 20.68726	 -2.37004	  1.76323	 14.36002	 -1.23622	 26.15390	701.84003	 34.00	
 16.995	-29.081	 22.93724	 21.38967	 -2.80225	  2.89459	 12.98091	 -1.15883	 26.18171	701.78003	 34.00	
 16.990	-23.241	 22.95814	 21.94930	 -3.14692	  4.09620	 11.56371	 -1.07594	 26.19166	701.64001	 34.00	
 17.000	-17.404	 22.94734	 22.34240	 -3.42526	  5.41429	 10.08240	 -1.03527	 26.19613	701.73999	 34.00	
 17.009	-11.617	 22.90919	 22.57076	 -3.61865	  6.74278	  8.66921	 -1.00992	 26.17372	701.72998	 34.00	
 16.990	 -5.821	 22.90477	 22.60422	 -3.62233	  8.16294	  7.23805	 -1.00948	 26.17133	701.75000	 34.10	
 17.000	  0.000	 22.90636	 22.49800	 -3.49792	  9.55592	  5.86196	 -1.01456	 26.18722	701.79999	 34.00	
 16.990	  5.821	 22.89350	 22.19747	 -3.31752	 11.02575	  4.52706	 -1.00294	 26.19343	701.66998	 34.10	
 17.009	 11.617	 22.84960	 21.75032	 -3.04460	 12.44674	  3.27007	 -0.98482	 26.17131	701.67999	 34.00	
 17.000	 17.404	 22.81706	 21.14031	 -2.66562	 13.86662	  2.02980	 -0.98010	 26.17259	701.78003	 34.00	
 16.990	 23.241	 22.79632	 20.36868	 -2.18691	 15.26197	  0.89976	 -0.98747	 26.18466	701.72998	 34.00	
 16.995	 29.081	 22.75009	 19.48882	 -1.63861	 16.57530	 -0.06825	 -1.02754	 26.19286	701.71997	 34.00	
 16.988	 34.839	 22.71016	 18.45500	 -0.98274	 17.77675	 -0.91789	 -1.08922	 26.17347	701.65002	 34.00	
 17.014	 40.657	 22.66957	 17.32147	 -0.26028	 18.90375	 -1.69682	 -1.14104	 26.19754	701.72998	 34.00	
 17.007	 46.454	 22.61001	 16.08804	  0.56219	 19.90330	 -2.35637	 -1.15467	 26.19188	701.89001	 34.00	
 17.001	 52.301	 22.57486	 14.77257	  1.58220	 20.78493	 -2.92920	 -1.17330	 26.19302	701.72998	 34.00	
 17.006	 58.063	 22.51582	 13.40303	  2.66950	 21.52431	 -3.40126	 -1.16853	 26.18044	701.72998	 34.00	
 17.002	 63.866	 22.48283	 11.98341	  3.82754	 22.11761	 -3.75614	 -1.16906	 26.20296	701.73999	 34.00	
 17.001	 69.690	 22.44554	 10.54263	  5.02181	 22.54677	 -4.03137	 -1.17067	 26.19174	701.71002	 34.10	
 16.988	 75.483	 22.38494	  9.08024	  6.31223	 22.80713	 -4.23941	 -1.17899	 26.17951	701.64001	 34.10	
 17.012	 81.253	 22.32263	  7.64412	  7.65027	 22.91290	 -4.37517	 -1.18549	 26.17233	701.77002	 34.10	
 16.996	 87.091	 22.31048	  6.23716	  9.07088	 22.86893	 -4.32532	 -1.20824	 26.17831	701.70001	 34.10	
 16.996	 92.909	 22.27110	  4.88829	 10.46262	 22.66518	 -4.20580	 -1.21818	 26.19584	701.84003	 34.10	
 17.008	 98.662	 22.22989	  3.57892	 11.84982	 22.29007	 -3.96901	 -1.23186	 26.19488	701.85999	 34.10	
 16.988	104.517	 22.19175	  2.40518	 13.26092	 21.72966	 -3.63796	 -1.24036	 26.19361	701.84998	 34.10	
 17.001	110.310	 22.14794	  1.28991	 14.64620	 21.03210	 -3.25423	 -1.24723	 26.19029	701.89001	 34.10	
 17.002	116.134	 22.10171	  0.27544	 15.97388	 20.19346	 -2.75832	 -1.27422	 26.17710	701.84998	 34.10	
 17.006	121.937	 22.06953	 -0.64085	 17.25905	 19.19881	 -2.14639	 -1.26388	 26.18307	701.79999	 34.10	
 17.001	127.699	 22.06067	 -1.44898	 18.43099	 18.14104	 -1.46160	 -1.27096	 26.18370	701.82001	 34.10	
 17.007	133.546	 22.02764	 -2.16296	 19.49857	 16.97720	 -0.68147	 -1.25195	 26.18110	701.78003	 34.10	
 17.014	139.343	 21.98214	 -2.77274	 20.45621	 15.70008	  0.15141	 -1.21995	 26.19263	701.73999	 34.10	
 16.988	145.161	 21.96527	 -3.26810	 21.27290	 14.36810	  1.12589	 -1.17730	 26.20622	701.67999	 34.10	
 16.995	150.919	 21.92448	 -3.69174	 21.96255	 12.96734	  2.25521	 -1.16588	 26.19890	701.71002	 34.10	
 16.990	156.759	 21.90946	 -4.00936	 22.49557	 11.53691	  3.46773	 -1.17710	 26.19112	701.71002	 34.10	
 17.000	162.596	 21.86752	 -4.25318	 22.87668	 10.05972	  4.74043	 -1.18160	 26.18794	701.72998	 34.10	
 17.009	168.383	 21.85593	 -4.42543	 23.09141	  8.67586	  6.07458	 -1.17251	 26.18307	701.71997	 34.10	
 16.990	174.179	 21.87723	 -4.48848	 23.16665	  7.24538	  7.46340	 -1.14653	 26.19143	701.78003	 34.10	
 18.709	174.675	 20.94312	 -5.85080	 23.89744	  6.41866	  6.93730	 -1.18880	 26.19966	701.78003	 34.10	
 18.703	169.441	 20.93337	 -5.81222	 23.84483	  7.78486	  5.60350	 -1.19722	 26.18571	701.84998	 34.10	
 18.691	164.085	 20.96584	 -5.64221	 23.64947	  9.17649	  4.25470	 -1.20971	 26.18860	701.79999	 34.10	
 18.706	158.818	 20.95531	 -5.44813	 23.32803	 10.59211	  2.91866	 -1.22667	 26.18976	701.72998	 34.10	
 18.695	153.537	 20.98969	 -5.16523	 22.85810	 12.00631	  1.74984	 -1.24519	 26.18497	701.81000	 34.10	
 18.704	148.255	 21.01924	 -4.84896	 22.25600	 13.44884	  0.68440	 -1.27806	 26.18325	701.90002	 34.10	
 18.698	142.952	 21.05080	 -4.42832	 21.51911	 14.81482	 -0.31437	 -1.29325	 26.18186	701.91998	 34.10	
 18.699	137.625	 21.09798	 -3.88565	 20.64381	 16.17104	 -1.24337	 -1.32542	 26.18880	701.84998	 34.10	
 18.705	132.343	 21.12434	 -3.28123	 19.64794	 17.44329	 -2.07818	 -1.34785	 26.18753	701.85999	 34.10	
 18.713	127.067	 21.15324	 -2.59736	 18.56078	 18.62889	 -2.82820	 -1.34482	 26.20431	701.82001	 34.10	
 18.700	121.794	 21.18958	 -1.80125	 17.35801	 19.70538	 -3.45196	 -1.36598	 26.19821	701.78003	 34.10	
 18.698	116.504	 21.21474	 -0.90535	 16.08172	 20.63721	 -4.03222	 -1.36229	 26.18547	701.73999	 34.10	
 18.707	111.165	 21.25032	  0.06606	 14.75203	 21.50801	 -4.51299	 -1.34132	 26.20112	701.69000	 34.10	
 18.690	105.863	 21.30286	  1.13376	 13.39242	 22.21725	 -4.89406	 -1.32449	 26.20323	701.71002	 34.10	
 18.696	100.583	 21.32462	  2.28489	 11.98096	 22.79416	 -5.20461	 -1.32534	 26.19172	701.64001	 34.10	
 18.700	 95.309	 21.36411	  3.49661	 10.56232	 23.23328	 -5.46521	 -1.32393	 26.17732	701.72998	 34.10	
 18.700	 90.000	 21.40175	  4.81462	  9.20023	 23.52864	 -5.63395	 -1.33713	 26.18627	701.69000	 34.10	
 18.700	 84.691	 21.43834	  6.15677	  7.79980	 23.67237	 -5.72392	 -1.31849	 26.18778	701.76001	 34.10	
 18.696	 79.417	 21.48849	  7.55424	  6.46993	 23.67424	 -5.67438	 -1.33279	 26.20317	701.82001	 34.10	
 18.690	 74.137	 21.50887	  8.94768	  5.17444	 23.50164	 -5.53607	 -1.33732	 26.17257	701.82001	 34.10	
 18.707	 68.835	 21.55181	 10.40844	  3.92182	 23.21281	 -5.35387	 -1.33080	 26.17704	701.85999	 34.10	
 18.698	 63.496	 21.60636	 11.84950	  2.68288	 22.75856	 -5.05349	 -1.33571	 26.17686	701.79999	 34.10	
 18.700	 58.206	 21.64887	 13.24619	  1.56263	 22.17014	 -4.71954	 -1.36164	 26.17231	701.77002	 34.20	
 18.713	 52.933	 21.71538	 14.61910	  0.55378	 21.46726	 -4.29040	 -1.35381	 26.18995	701.83002	 34.20	
 18.705	 47.657	 21.73919	 15.93349	 -0.39902	 20.59002	 -3.75299	 -1.39571	 26.18121	701.64001	 34.20	
 18.699	 42.375	 21.80115	 17.21760	 -1.27524	 19.61153	 -3.14654	 -1.36382	 26.21312	701.65002	 34.20	
 18.698	 37.048	 21.83433	 18.36810	 -2.01852	 18.52540	 -2.45664	 -1.32809	 26.19297	701.70001	 34.20	
 18.704	 31.745	 21.87669	 19.45593	 -2.67345	 17.33407	 -1.64720	 -1.27798	 26.20007	701.72998	 34.20	
 18.695	 26.463	 21.91262	 20.41724	 -3.24502	 16.06794	 -0.73887	 -1.23067	 26.18862	701.71997	 34.20	
 18.706	 21.182	 21.95506	 21.27200	 -3.75257	 14.73944	  0.25261	 -1.18295	 26.19667	701.76001	 34.20	
 18.691	 15.915	 22.00404	 21.99114	 -4.16171	 13.36028	  1.33020	 -1.16582	 26.20253	701.67999	 34.20	
 18.703	 10.559	 22.02633	 22.55377	 -4.48696	 11.91932	  2.51511	 -1.15680	 26.19215	701.73999	 34.20	
 18.709	  5.325	 22.06873	 22.98023	 -4.71782	 10.52464	  3.78304	 -1.16017	 26.19508	701.79999	 34.20	
 18.700	  0.000	 22.08415	 23.25970	 -4.88988	  9.07106	  5.11305	 -1.17401	 26.20047	701.79999	 34.20	
 18.709	 -5.325	 22.08914	 23.39634	 -5.03855	  7.69026	  6.48159	 -1.17399	 26.19824	701.76001	 34.20	
 18.703	-10.559	 22.10404	 23.35293	 -4.99725	  6.32243	  7.87408	 -1.19587	 26.19619	701.83002	 34.20	
 18.691	-15.915	 22.12066	 23.16745	 -4.85164	  4.95371	  9.32817	 -1.24928	 26.18998	701.72998	 34.20	
 18.706	-21.182	 22.11105	 22.84651	 -4.64900	  3.66716	 10.69745	 -1.29689	 26.18028	701.73999	 34.20	
 18.695	-26.463	 22.11557	 22.37411	 -4.34939	  2.46799	 12.12117	 -1.35546	 26.19391	701.78003	 34.20	
 18.704	-31.745	 22.10805	 21.74810	 -3.98214	  1.31248	 13.56702	 -1.43309	 26.19163	701.77002	 34.20	
 18.698	-37.048	 22.08872	 20.99080	 -3.54408	  0.24375	 14.92213	 -1.49397	 26.18585	701.81000	 34.20	
 18.699	-42.375	 22.09457	 20.10464	 -2.99764	 -0.69387	 16.26055	 -1.55107	 26.20157	701.76001	 34.20	
 18.705	-47.657	 22.07213	 19.09095	 -2.36331	 -1.54801	 17.50572	 -1.59944	 26.20478	701.83002	 34.20	
 18.713	-52.933	 22.02127	 17.96486	 -1.65197	 -2.35648	 18.67111	 -1.59162	 26.18672	701.77002	 34.20	
 18.700	-58.206	 21.99279	 16.73896	 -0.81648	 -3.02560	 19.74429	 -1.60345	 26.19127	701.84003	 34.20	
 18.698	-63.496	 21.95873	 15.45786	  0.08881	 -3.61073	 20.68367	 -1.58274	 26.19066	701.82001	 34.20	
 18.707	-68.835	 21.89927	 14.08999	  1.06857	 -4.13035	 21.50346	 -1.58716	 26.18759	701.81000	 34.20	
 18.690	-74.137	 21.85403	 12.65942	  2.18492	 -4.52588	 22.16899	 -1.60024	 26.18287	701.88000	 34.20	
 18.696	-79.417	 21.80794	 11.23444	  3.38928	 -4.85301	 22.71613	 -1.59977	 26.19764	701.84003	 34.20	
 18.700	-84.691	 21.73870	  9.81013	  4.61478	 -5.09455	 23.10342	 -1.58835	 26.17949	701.73999	 34.20	
 18.700	-90.000	 21.68285	  8.37854	  5.86439	 -5.26300	 23.34592	 -1.58134	 26.17658	701.71002	 34.20	
 18.700	-95.309	 21.61543	  6.94650	  7.19264	 -5.35790	 23.45344	 -1.53769	 26.18175	701.76001	 34.20	
 18.696	-100.583	 21.56355	  5.56666	  8.56197	 -5.35492	 23.40336	 -1.50562	 26.17295	701.83002	 34.20	
 18.690	-105.863	 21.52216	  4.24669	  9.96116	 -5.25217	 23.20394	 -1.45721	 26.18225	701.76001	 34.20	
 18.707	-111.165	 21.46695	  3.00293	 11.29377	 -5.09064	 22.87444	 -1.43075	 26.19081	701.79999	 34.20	
 18.698	-116.504	 21.40267	  1.78062	 12.72535	 -4.79987	 22.36156	 -1.38522	 26.19188	701.78003	 34.20	
 18.700	-121.794	 21.35545	  0.64639	 14.11143	 -4.48764	 21.73132	 -1.34842	 26.20004	701.71997	 34.20	
 18.713	-127.067	 21.30767	 -0.35374	 15.42411	 -4.07464	 20.96127	 -1.31271	 26.19054	701.76001	 34.20	
 18.705	-132.343	 21.25998	 -1.31786	 16.75256	 -3.54567	 20.05591	 -1.28335	 26.19214	701.76001	 34.20	
 18.699	-137.625	 21.21229	 -2.15793	 17.97250	 -2.98069	 19.05520	 -1.24174	 26.20096	701.78003	 34.20	
 18.698	-142.952	 21.17610	 -2.89178	 19.11379	 -2.28890	 17.92532	 -1.19876	 26.18989	701.71997	 34.20	
 18.704	-148.255	 21.13224	 -3.57429	 20.13053	 -1.51640	 16.71567	 -1.16845	 26.19550	701.79999	 34.20	
 18.695	-153.537	 21.09488	 -4.12198	 21.04464	 -0.61999	 15.40836	 -1.14331	 26.16373	701.96997	 34.20	
 18.706	-158.818	 21.06408	 -4.59220	 21.86571	  0.31453	 14.06810	 -1.13727	 26.18578	701.89001	 34.20	
 18.691	-164.085	 21.02958	 -4.97980	 22.54744	  1.37970	 12.69461	 -1.12405	 26.18725	701.82001	 34.20	
 18.703	-169.441	 20.98066	 -5.30992	 23.09354	  2.55357	 11.23193	 -1.16943	 26.17513	701.81000	 34.20	
 18.709	-174.675	 20.94539	 -5.60318	 23.48599	  3.78827	  9.81538	 -1.19189	 26.16723	701.90002	 34.20	
 18.700	180.000	 20.95000	 -5.77144	 23.74831	  5.07456	  8.39962	 -1.22279	 26.18069	701.82001	 34.20	
 20.400	180.000	 19.94581	 -7.05638	 24.37796	  4.22364	  7.83941	 -1.17584	 26.18908	701.78003	 34.20	
 20.401	-175.153	 19.95533	 -6.92040	 24.15297	  2.92348	  9.22606	 -1.14279	 26.18535	701.88000	 34.20	
 20.407	-170.264	 19.97759	 -6.68190	 23.75489	  1.70084	 10.60228	 -1.15473	 26.17870	701.78003	 34.20	
 20.410	-165.423	 19.99826	 -6.38745	 23.24286	  0.56191	 12.02417	 -1.12941	 26.18419	701.90997	 34.20	
 20.392	-160.496	 20.03724	 -6.02742	 22.59675	 -0.47160	 13.42920	 -1.11973	 26.18722	701.85999	 34.20	
 20.401	-155.705	 20.08942	 -5.62060	 21.85211	 -1.38859	 14.77335	 -1.10159	 26.18901	701.79999	 34.20	
 20.405	-150.835	 20.11554	 -5.14382	 20.98455	 -2.28213	 16.10437	 -1.14776	 26.18133	701.79999	 34.30	
 20.397	-145.903	 20.15244	 -4.55281	 19.98805	 -3.09275	 17.39842	 -1.17357	 26.18936	701.79999	 34.30	
 20.392	-141.062	 20.20966	 -3.86065	 18.93151	 -3.78097	 18.57583	 -1.20143	 26.19106	701.83002	 34.30	
 20.396	-136.227	 20.24782	 -3.11671	 17.74745	 -4.38251	 19.66591	 -1.23458	 26.19030	701.78003	 34.30	
 20.408	-131.372	 20.28641	 -2.30858	 16.51301	 -4.94387	 20.67197	 -1.27636	 26.19027	701.81000	 34.30	
 20.410	-126.511	 20.32041	 -1.39605	 15.19586	 -5.41590	 21.53885	 -1.32226	 26.18383	701.79999	 34.30	
 20.400	-121.604	 20.35699	 -0.38746	 13.82898	 -5.80176	 22.28404	 -1.36294	 26.18196	701.82001	 34.30	
 20.403	-116.741	 20.40994	  0.68060	 12.46369	 -6.10841	 22.91915	 -1.42107	 26.16929	701.84998	 34.30	
 20.413	-111.900	 20.48322	  1.84593	 11.13146	 -6.36635	 23.44079	 -1.44068	 26.17358	701.90002	 34.30	
 20.398	-107.004	 20.55312	  3.10759	  9.74053	 -6.55596	 23.81903	 -1.48337	 26.18960	701.82001	 34.30	
 20.394	-102.132	 20.58653	  4.38537	  8.36324	 -6.65463	 24.03028	 -1.53012	 26.16110	701.69000	 34.30	
 20.403	-97.332	 20.64323	  5.73129	  7.01993	 -6.69868	 24.14625	 -1.54622	 26.19848	701.69000	 34.30	
 20.392	-92.440	 20.72009	  7.09376	  5.74267	 -6.63891	 24.12049	 -1.58339	 26.20272	701.69000	 34.30	
 20.392	-87.560	 20.77578	  8.51871	  4.44793	 -6.50261	 23.94223	 -1.62514	 26.19804	701.72998	 34.30	
 20.403	-82.668	 20.82015	  9.95911	  3.13388	 -6.33131	 23.62767	 -1.65359	 26.18912	701.67999	 34.30	
 20.394	-77.868	 20.86643	 11.33122	  1.98542	 -6.11364	 23.19808	 -1.65297	 26.18066	701.71002	 34.30	
 20.398	-72.996	 20.91493	 12.75155	  0.86554	 -5.79998	 22.62411	 -1.66542	 26.18772	701.88000	 34.30	
 20.413	-68.100	 20.97047	 14.18216	 -0.18881	 -5.38725	 21.92423	 -1.67345	 26.17993	701.83002	 34.30	
 20.403	-63.259	 21.02766	 15.53171	 -1.13422	 -4.90583	 21.11703	 -1.64369	 26.20565	701.81000	 34.30	
 20.400	-58.396	 21.06628	 16.82811	 -2.02256	 -4.32484	 20.15623	 -1.63308	 26.19570	701.73999	 34.30	
 20.410	-53.489	 21.09145	 18.07785	 -2.83654	 -3.66174	 19.08588	 -1.60115	 26.18591	701.84003	 34.30	
 20.408	-48.628	 21.13194	 19.21294	 -3.49640	 -2.91234	 17.93258	 -1.61120	 26.18796	701.78003	 34.30	
 20.396	-43.773	 21.17100	 20.25676	 -4.07468	 -2.09636	 16.70322	 -1.59592	 26.21121	701.72998	 34.30	
 20.392	-38.938	 21.18133	 21.17477	 -4.63304	 -1.20768	 15.39719	 -1.55165	 26.19648	701.78003	 34.30	
 20.397	-34.097	 21.20643	 21.98867	 -5.05638	 -0.23331	 14.06361	 -1.52520	 26.20607	701.84998	 34.30	
 20.405	-29.165	 21.22023	 22.68603	 -5.43193	  0.83709	 12.65111	 -1.50644	 26.19781	701.77002	 34.30	
 20.401	-24.295	 21.23837	 23.22216	 -5.70596	  1.98812	 11.23452	 -1.46434	 26.20810	701.78998	 34.30	
 20.392	-19.504	 21.22893	 23.61293	 -5.96174	  3.19655	  9.84088	 -1.42011	 26.19147	701.85999	 34.30	
 20.410	-14.577	 21.20151	 23.90815	 -6.16930	  4.47835	  8.44175	 -1.36295	 26.17810	701.84998	 34.30	
 20.407	 -9.736	 21.20078	 24.06953	 -6.27105	  5.79667	  7.04436	 -1.29646	 26.20234	701.81000	 34.30	
 20.401	 -4.847	 21.18559	 24.05118	 -6.26327	  7.16999	  5.67239	 -1.26902	 26.17590	701.79999	 34.30	
 20.400	  0.000	 21.16358	 23.91170	 -6.14977	  8.50577	  4.31164	 -1.25534	 26.18230	701.84998	 34.30	
 20.401	  4.847	 21.14752	 23.67801	 -6.00274	  9.91481	  2.99574	 -1.24879	 26.20940	701.88000	 34.30	
 20.407	  9.736	 21.12619	 23.26195	 -5.78329	 11.32636	  1.77529	 -1.23837	 26.18739	701.78003	 34.30	
 20.410	 14.577	 21.08515	 22.71603	 -5.50784	 12.75524	  0.59876	 -1.24137	 26.18736	701.82001	 34.30	
 20.392	 19.504	 21.04616	 22.03715	 -5.13271	 14.17149	 -0.48658	 -1.28197	 26.18575	701.84998	 34.30	
 20.401	 24.295	 21.02306	 21.29667	 -4.72130	 15.54538	 -1.47775	 -1.30381	 26.22238	701.72998	 34.30	
 20.405	 29.165	 20.97224	 20.37048	 -4.23323	 16.81080	 -2.36789	 -1.33829	 26.19047	701.75000	 34.30	
 20.397	 34.097	 20.92311	 19.31816	 -3.65640	 18.06680	 -3.20438	 -1.40553	 26.19229	701.83002	 34.30	
 20.392	 38.938	 20.88323	 18.20796	 -2.97961	 19.19947	 -3.91208	 -1.43694	 26.18932	701.79999	 34.30	
 20.396	 43.773	 20.84930	 17.01473	 -2.23906	 20.23687	 -4.55530	 -1.48014	 26.20298	701.82001	 34.30	
 20.408	 48.628	 20.78599	 15.73852	 -1.40918	 21.17476	 -5.11976	 -1.51409	 26.18907	701.76001	 34.30	
 20.410	 53.489	 20.72122	 14.37282	 -0.49576	 22.02807	 -5.61081	 -1.52991	 26.18257	701.75000	 34.30	
 20.400	 58.396	 20.70929	 12.98928	  0.54995	 22.75309	 -5.96945	 -1.52515	 26.19438	701.85999	 34.30	
 20.403	 63.259	 20.66221	 11.58838	  1.59413	 23.34433	 -6.30537	 -1.54825	 26.20287	701.81000	 34.30	
 20.413	 68.100	 20.61658	 10.19071	  2.71560	 23.78329	 -6.53719	 -1.51068	 26.19824	701.78003	 34.30	
 20.398	 72.996	 20.57657	  8.76481	  4.00480	 24.10194	 -6.72187	 -1.49981	 26.19445	701.81000	 34.30	
 20.394	 77.868	 20.53546	  7.37234	  5.23973	 24.29800	 -6.89202	 -1.48431	 26.20389	701.90997	 34.40	
 20.403	 82.668	 20.49711	  6.03326	  6.52317	 24.34649	 -6.94942	 -1.46693	 26.21157	701.90997	 34.40	
 20.392	 87.560	 20.45159	  4.66228	  7.89608	 24.27033	 -6.94031	 -1.43393	 26.19991	701.92999	 34.40	
 20.392	 92.440	 20.40240	  3.35458	  9.28302	 24.04850	 -6.84116	 -1.43256	 26.18366	701.88000	 34.40	
 20.403	 97.332	 20.36439	  2.09058	 10.60627	 23.70972	 -6.66075	 -1.44920	 26.19896	701.79999	 34.40	
 20.394	102.132	 20.33875	  0.93771	 11.99157	 23.22362	 -6.41023	 -1.43292	 26.19280	701.88000	 34.40	
 20.398	107.004	 20.29323	 -0.17759	 13.40869	 22.59497	 -6.06174	 -1.42675	 26.18616	701.84003	 34.40	
 20.413	111.900	 20.27785	 -1.18562	 14.79243	 21.87392	 -5.64900	 -1.43866	 26.22149	701.84003	 34.40	
 20.403	116.741	 20.22746	 -2.12459	 16.09532	 21.06093	 -5.20674	 -1.42050	 26.20660	701.92999	 34.40	
 20.400	121.604	 20.20231	 -2.92964	 17.35248	 20.08962	 -4.67827	 -1.42538	 26.20080	701.87000	 34.40	
 20.410	126.511	 20.18067	 -3.70667	 18.54993	 18.96024	 -4.08851	 -1.41079	 26.18916	701.88000	 34.40	
 20.408	131.372	 20.16118	 -4.39862	 19.69955	 17.78885	 -3.41444	 -1.38770	 26.21359	701.76001	 34.40	
 20.396	136.227	 20.11945	 -4.99133	 20.70580	 16.51227	 -2.61495	 -1.39367	 26.19916	701.77002	 34.40	
 20.392	141.062	 20.09444	 -5.53909	 21.63155	 15.22793	 -1.76193	 -1.37478	 26.21775	701.72998	 34.40	
 20.397	145.903	 20.04849	 -5.96199	 22.42094	 13.86427	 -0.82048	 -1.35560	 26.21789	701.82001	 34.40	
 20.405	150.835	 20.00442	 -6.34420	 23.11183	 12.43599	  0.22598	 -1.34930	 26.21790	701.81000	 34.40	
 20.401	155.705	 19.98751	 -6.63445	 23.64303	 10.99917	  1.35641	 -1.34039	 26.20932	701.76001	 34.40	
 20.392	160.496	 19.96055	 -6.84272	 24.04793	  9.62508	  2.49140	 -1.30697	 26.19906	701.84003	 34.40	
 20.410	165.423	 19.94555	 -7.03480	 24.34764	  8.22968	  3.71567	 -1.27907	 26.21189	701.78003	 34.40	
 20.407	170.264	 19.94077	 -7.11558	 24.48563	  6.85562	  5.07068	 -1.23007	 26.20837	701.77002	 34.40	
 20.401	175.153	 19.93921	 -7.11097	 24.49316	  5.53115	  6.44877	 -1.19824	 26.19950	701.77002	 34.40	
  0.141	 45.000	 26.28370	 10.68807	 11.50940	 11.17630	 10.66649	  0.56932	 26.20408	701.64001	 34.40	
  4.001	128.691	 26.12590	  8.08717	 13.84028	 13.26363	  8.35505	  0.37652	 26.22466	701.77002	 34.40	
  4.002	 76.995	 26.17556	 10.72334	 11.06976	 14.36996	  7.50568	  0.43296	 26.21493	701.87000	 34.40	
  4.002	 25.892	 26.24393	 13.35892	  8.75585	 12.81152	  8.86990	  0.51335	 26.22844	701.79999	 34.40	
  4.002	-25.892	 26.26302	 13.74448	  8.48216	  9.85920	 11.73177	  0.51439	 26.23421	701.81000	 34.40	
  4.002	-76.995	 26.23483	 11.58164	 10.30405	  7.98626	 13.87984	  0.46855	 26.21653	701.84003	 34.40	
  4.001	-128.691	 26.16109	  8.71358	 13.19603	  8.24630	 13.48579	  0.42220	 26.21612	701.82001	 34.40	
  4.000	180.000	 26.09727	  7.22479	 14.82166	 10.43682	 10.95609	  0.37512	 26.22248	701.84003	 34.40	
  8.000	180.000	 25.39546	  3.65177	 17.80274	  9.42809	 10.70175	 -0.09357	 26.21357	701.72998	 34.40	
  7.991	-152.370	 25.45316	  4.60413	 16.58549	  6.67448	 13.84697	 -0.01939	 26.21460	701.69000	 34.40	
  7.997	-124.550	 25.55942	  6.78626	 14.00686	  4.88609	 16.25050	 -0.02656	 26.21714	701.72998	 34.40	
  8.006	-96.837	 25.66587	  9.79378	 10.83913	  4.34513	 17.14415	 -0.03791	 26.21345	701.69000	 34.40	
  7.988	-69.228	 25.76983	 13.02179	  7.92085	  4.91674	 16.37563	  0.00300	 26.22745	701.70001	 34.40	
  7.997	-41.563	 25.82762	 15.66928	  5.77608	  6.76229	 14.05893	  0.00169	 26.22440	701.69000	 34.40	
  8.008	-13.821	 25.83451	 16.96512	  4.81544	  9.58264	 10.84592	  0.06004	 26.21675	701.65997	 34.40	
  8.008	 13.821	 25.80021	 16.52638	  5.03634	 12.82992	  7.78113	  0.07571	 26.22813	701.70001	 34.40	
  7.997	 41.563	 25.73004	 14.47935	  6.63703	 15.66119	  5.38423	  0.06403	 26.22609	701.78003	 34.40	
  7.988	 69.228	 25.64538	 11.42969	  9.24567	 17.28864	  4.10296	 -0.01918	 26.23435	701.72998	 34.40	
  8.006	 96.837	 25.52475	  8.21441	 12.33378	 17.23751	  4.01972	 -0.12915	 26.21783	701.77002	 34.40	
  7.997	124.550	 25.45817	  5.55404	 15.37360	 15.54545	  5.21592	 -0.16703	 26.23041	701.77002	 34.50	
  7.991	152.370	 25.42241	  4.03944	 17.36282	 12.62961	  7.68149	 -0.13474	 26.23951	701.72998	 34.40	
 12.009	161.059	 24.15567	  0.08701	 20.25252	 11.31362	  6.90465	 -0.72872	 26.23072	701.69000	 34.50	
 12.013	142.081	 24.19028	  0.95994	 18.89044	 14.58702	  4.08452	 -0.70678	 26.22581	701.67999	 34.50	
 12.006	123.113	 24.27588	  2.79983	 16.48547	 17.42697	  1.96993	 -0.75476	 26.22949	701.81000	 34.50	
 12.007	104.200	 24.34639	  5.37079	 13.42229	 19.36927	  0.64369	 -0.73810	 26.22760	701.78998	 34.50	
 11.989	 85.301	 24.43139	  8.42653	 10.19176	 20.16732	  0.07084	 -0.67135	 26.21891	701.78998	 34.50	
 12.013	 66.294	 24.54201	 11.82516	  7.01735	 19.76090	  0.48997	 -0.58892	 26.22409	701.67999	 34.50	
 12.012	 47.388	 24.66150	 15.04087	  4.36054	 18.17581	  1.66037	 -0.52889	 26.23244	701.82001	 34.50	
 11.990	 28.440	 24.75423	 17.64861	  2.45459	 15.60052	  3.69243	 -0.46256	 26.23137	701.78998	 34.50	
 11.991	  9.464	 24.83902	 19.29701	  1.31607	 12.38357	  6.43815	 -0.51313	 26.22413	701.84998	 34.50	
 11.991	 -9.464	 24.88983	 19.76043	  1.02480	  9.06403	  9.60978	 -0.49121	 26.22604	701.84998	 34.50	
 11.990	-28.440	 24.88906	 18.99101	  1.57116	  5.93460	 12.95701	 -0.55353	 26.23862	701.76001	 34.50	
 12.012	-47.388	 24.83349	 17.03586	  2.94355	  3.42449	 16.03410	 -0.71768	 26.22279	701.88000	 34.50	
 12.013	-66.294	 24.76820	 14.18703	  5.16180	  1.65147	 18.41526	 -0.69387	 26.22404	701.88000	 34.50	
 11.989	-85.301	 24.66996	 10.87372	  8.02577	  0.79633	 19.72103	 -0.73104	 26.22531	701.90002	 34.50	
 12.007	-104.200	 24.55374	  7.56619	 11.16983	  0.70618	 19.82062	 -0.68799	 26.24132	701.79999	 34.50	
 12.006	-123.113	 24.42069	  4.61794	 14.39023	  1.35291	 18.68677	 -0.65285	 26.22693	701.85999	 34.50	
 12.013	-142.081	 24.29083	  2.22552	 17.29621	  2.76356	 16.46691	 -0.63023	 26.21342	701.71997	 34.50	
 12.009	-161.059	 24.22759	  0.68370	 19.42049	  5.11314	 13.46730	 -0.59322	 26.23544	701.75000	 34.50	
 16.000	180.000	 22.41216	 -3.59104	 22.60593	  6.32003	  9.24356	 -1.14538	 26.23188	701.81000	 34.50	
 15.990	-165.604	 22.45366	 -2.96486	 21.70247	  3.40292	 12.55065	 -1.04161	 26.21524	701.78003	 34.50	
 16.002	-151.165	 22.53616	 -1.84087	 19.92594	  0.87472	 15.79389	 -1.04638	 26.22503	701.70001	 34.50	
 16.002	-136.836	 22.65693	 -0.07173	 17.41192	 -0.98862	 18.53993	 -1.11718	 26.22433	701.76001	 34.50	
 15.995	-122.439	 22.76612	  2.21983	 14.40431	 -2.24004	 20.64246	 -1.19601	 26.22741	701.72998	 34.50	
 15.993	-107.966	 22.89975	  5.09542	 11.13537	 -2.96046	 21.91144	 -1.24854	 26.23852	701.75000	 34.50	
 16.005	-93.629	 23.03142	  8.30483	  7.90017	 -3.15200	 22.23631	 -1.36065	 26.25178	701.72998	 34.50	
 15.992	-79.234	 23.15043	 11.69829	  4.85160	 -2.67463	 21.58025	 -1.36291	 26.23749	701.84003	 34.50	
 16.009	-64.774	 23.25086	 14.96923	  2.22727	 -1.60735	 20.01101	 -1.34450	 26.23246	701.71997	 34.50	
 15.997	-50.364	 23.34460	 17.89834	  0.01463	 -0.02200	 17.64651	 -1.37069	 26.23635	701.85999	 34.50	
 15.997	-36.045	 23.39830	 20.16867	 -1.46580	  2.21537	 14.68967	 -1.22766	 26.24353	701.76001	 34.50	
 16.000	-21.597	 23.42498	 21.61379	 -2.40885	  4.98200	 11.37572	 -1.03202	 26.24894	701.76001	 34.50	
 16.003	 -7.169	 23.42212	 22.10567	 -2.73657	  8.20896	  8.02576	 -1.00911	 26.24772	701.75000	 34.50	
 16.003	  7.169	 23.36061	 21.64150	 -2.44310	 11.53227	  4.79039	 -1.01285	 26.24356	701.75000	 34.50	
 16.000	 21.597	 23.26145	 20.21098	 -1.55920	 14.85244	  1.92937	 -0.97703	 26.23048	701.73999	 34.50	
 15.997	 36.045	 23.18399	 17.99889	 -0.18134	 17.81747	 -0.33824	 -1.05766	 26.23331	701.77002	 34.50	
 15.997	 50.364	 23.08615	 15.12867	  2.00961	 20.19122	 -1.91260	 -1.12653	 26.24158	701.78003	 34.50	
 16.009	 64.774	 22.96449	 11.87347	  4.55646	 21.74891	 -2.95564	 -1.13154	 26.23055	701.81000	 34.50	
 15.992	 79.234	 22.86001	  8.46295	  7.59690	 22.44250	 -3.47315	 -1.17268	 26.24282	701.87000	 34.50	
 16.005	 93.629	 22.77475	  5.19502	 10.85376	 22.17311	 -3.29669	 -1.22318	 26.25040	701.87000	 34.50	
 15.993	107.966	 22.67447	  2.30292	 14.14857	 20.94777	 -2.55957	 -1.25460	 26.23174	701.83002	 34.50	
 15.995	122.439	 22.61213	  0.00962	 17.21887	 18.87816	 -1.26592	 -1.27721	 26.24807	701.81000	 34.50	
 16.002	136.836	 22.50907	 -1.75366	 19.75106	 16.17416	  0.44491	 -1.24720	 26.22338	701.85999	 34.50	
 16.002	151.165	 22.43888	 -2.93513	 21.60392	 13.00123	  2.94232	 -1.19060	 26.24722	701.84998	 34.50	
 15.990	165.604	 22.41946	 -3.51315	 22.56350	  9.61970	  5.94691	 -1.19499	 26.24981	701.83002	 34.50	
 20.003	168.362	 20.22075	 -6.79135	 24.33939	  7.56407	  4.76184	 -1.26732	 26.25756	701.71997	 34.50	
 20.008	156.764	 20.26381	 -6.37503	 23.64861	 10.84367	  1.82681	 -1.34559	 26.24987	701.78003	 34.50	
 20.000	145.147	 20.33286	 -5.60967	 22.23639	 14.14295	 -0.69847	 -1.39367	 26.25528	701.71002	 34.50	
 19.995	133.545	 20.42485	 -4.39701	 20.15097	 17.23468	 -2.75819	 -1.40843	 26.25680	701.83002	 34.50	
 20.009	121.926	 20.47695	 -2.74161	 17.47752	 19.99691	 -4.38135	 -1.42356	 26.26934	701.72998	 34.50	
 20.005	110.327	 20.55318	 -0.61743	 14.42568	 22.04706	 -5.49735	 -1.43267	 26.25489	701.70001	 34.50	
 19.989	 98.733	 20.64548	  1.97611	 11.16229	 23.48358	 -6.26556	 -1.43730	 26.25419	701.79999	 34.50	
 19.999	 87.075	 20.74461	  4.98744	  7.94543	 24.19131	 -6.64926	 -1.45355	 26.27632	701.81000	 34.50	
 19.992	 75.457	 20.83483	  8.20742	  4.85188	 24.11076	 -6.51604	 -1.49729	 26.25496	701.76001	 34.50	
 20.009	 63.844	 20.93539	 11.51514	  1.98126	 23.31916	 -6.04755	 -1.53669	 26.26681	701.78003	 34.50	
 19.989	 52.269	 21.04760	 14.76860	 -0.42246	 21.76158	 -5.17108	 -1.53732	 26.25304	701.73999	 34.50	
 19.999	 40.602	 21.15027	 17.80097	 -2.45486	 19.53662	 -3.86407	 -1.47972	 26.26367	701.78003	 34.50	
 20.004	 29.051	 21.23930	 20.33403	 -3.96243	 16.80992	 -2.06195	 -1.35346	 26.25340	701.84998	 34.50	
 20.005	 17.433	 21.33042	 22.26604	 -5.03367	 13.64963	  0.21551	 -1.27526	 26.25695	701.83002	 34.50	
 20.006	  5.780	 21.43099	 23.50781	 -5.66411	 10.34628	  2.97905	 -1.26552	 26.27651	701.78998	 34.50	
 20.006	 -5.780	 21.45695	 23.97326	 -6.00338	  7.07601	  6.11228	 -1.28955	 26.25902	701.77002	 34.50	
 20.005	-17.433	 21.48716	 23.66367	 -5.77473	  3.93153	  9.43156	 -1.40089	 26.26376	701.79999	 34.50	
 20.004	-29.051	 21.49102	 22.61395	 -5.16119	  1.11023	 12.71190	 -1.53286	 26.26394	701.72998	 34.50	
 19.999	-40.602	 21.44473	 20.82294	 -4.18295	 -1.25473	 15.89235	 -1.59914	 26.25290	701.76001	 34.50	
 19.989	-52.269	 21.39279	 18.35151	 -2.71571	 -3.16947	 18.80158	 -1.62576	 26.25209	701.76001	 34.40	
 20.009	-63.844	 21.29240	 15.41715	 -0.74303	 -4.66633	 21.15947	 -1.65910	 26.26141	701.72998	 34.40	
 19.992	-75.457	 21.18464	 12.15547	  1.66719	 -5.65754	 22.84880	 -1.68748	 26.25100	701.71002	 34.50	
 19.999	-87.075	 21.04324	  8.79539	  4.52084	 -6.20570	 23.82093	 -1.66047	 26.24876	701.78003	 34.50	
 19.989	-98.733	 20.91879	  5.50954	  7.57284	 -6.41195	 24.05212	 -1.57818	 26.25911	701.83002	 34.40	
 20.005	-110.327	 20.78354	  2.47396	 10.80244	 -6.17157	 23.51613	 -1.48861	 26.25703	701.81000	 34.40	
 20.009	-121.926	 20.63726	 -0.20767	 13.99668	 -5.50370	 22.17609	 -1.40967	 26.24758	701.78998	 34.40	
 19.995	-133.545	 20.56216	 -2.41813	 17.10671	 -4.40773	 20.20777	 -1.31128	 26.24907	701.78998	 34.40	
 20.000	-145.147	 20.45962	 -4.15035	 19.79539	 -2.94465	 17.64547	 -1.22405	 26.25622	701.77002	 34.40	
 20.008	-156.764	 20.35860	 -5.44321	 21.97507	 -0.93738	 14.56500	 -1.17653	 26.25579	701.78998	 34.50	
 20.003	-168.362	 20.27896	 -6.28997	 23.50484	  1.48689	 11.28881	 -1.17560	 26.26308	701.79999	 34.40	
 20.000	180.000	 20.24274	 -6.75861	 24.28228	  4.46700	  8.01408	 -1.23949	 26.25834	701.73999	 34.40	
