FileType=PCF
NHL=14
Date=05/31/19	13:52:32
Facility=APL
Serial=16071-14
Customer=NASA
NP=6
Mach=0.450000
Calibration=1:1
CalPts=490
TstPts=95
PortNumbering=AP Standard
Units=Torr C m/s kg/m^3 deg mm 
Theta[deg]	Phi[deg]	P1[Torr]	P2[Torr]	P3[Torr]	P4[Torr]	P5[Torr]	P6[Torr]	Pt[Torr]	Ps[Abs,Torr]	Ts[C]	
  0.000	  0.000	104.95930	 43.91593	 48.87745	 46.46083	 45.12349	  2.21281	104.74887	700.96997	 47.50	
  1.691	128.401	104.86356	 39.78568	 52.63308	 50.06568	 41.09300	  2.01507	104.74734	701.01001	 47.60	
  1.692	 77.194	104.98660	 44.31889	 48.23019	 51.93328	 39.28927	  2.14535	104.81862	700.98999	 47.70	
  1.699	 26.182	105.01176	 48.46412	 44.20259	 49.51221	 41.99877	  2.27042	104.78373	701.07001	 47.70	
  1.699	-26.182	104.98399	 49.04797	 43.66832	 44.67594	 46.89612	  2.27363	104.76424	701.10999	 47.80	
  1.692	-77.194	105.02171	 45.62550	 47.01702	 41.27538	 50.29806	  2.17526	104.80941	701.09998	 47.90	
  1.691	-128.401	104.94456	 40.80186	 51.67543	 41.63519	 49.72418	  2.10495	104.76470	700.97998	 47.90	
  1.700	180.000	104.90834	 38.47417	 54.22346	 45.46338	 45.68575	  2.01292	104.82216	701.15002	 48.00	
  3.400	180.000	104.41432	 32.28649	 59.39129	 44.17699	 45.86088	  1.67366	104.74139	701.03998	 48.00	
  3.388	-152.325	104.60453	 34.10579	 57.55050	 39.52725	 50.95509	  1.75744	104.82677	701.10999	 48.00	
  3.397	-124.529	104.66808	 38.36347	 53.50335	 36.22789	 54.51839	  1.83467	104.77718	700.95001	 48.10	
  3.399	-96.763	104.86301	 43.46290	 48.46214	 35.17880	 55.94133	  1.90700	104.83785	701.03998	 48.10	
  3.394	-69.283	104.96189	 48.55774	 43.47522	 36.51754	 54.67323	  2.00722	104.83244	701.15997	 48.20	
  3.400	-41.398	105.03457	 52.76386	 39.30454	 40.02595	 51.08623	  2.06624	104.85806	701.13000	 48.20	
  3.401	-14.021	105.05826	 54.77118	 37.50180	 44.88426	 46.16719	  2.14051	104.88560	701.17999	 48.20	
  3.401	 14.021	105.00906	 53.99776	 38.08783	 50.20793	 40.63902	  2.14075	104.83896	701.08002	 48.30	
  3.400	 41.398	104.92288	 50.88241	 40.90022	 54.48123	 36.23866	  2.06269	104.84039	701.08002	 48.30	
  3.394	 69.283	104.88139	 46.07588	 45.74566	 56.95790	 33.85466	  1.96487	104.88851	701.03998	 48.40	
  3.399	 96.763	104.69478	 40.74561	 50.89985	 56.74146	 33.86901	  1.80173	104.82143	701.01001	 48.40	
  3.397	124.529	104.62142	 35.94644	 55.66390	 54.12440	 36.23037	  1.69565	104.87368	701.16998	 48.50	
  3.388	152.325	104.58893	 33.02673	 58.78309	 49.58308	 40.60863	  1.65101	104.91911	701.15997	 48.50	
  5.099	161.165	103.76982	 26.68034	 64.55834	 48.24847	 40.28116	  1.13934	104.91128	701.10999	 48.50	
  5.109	142.013	103.84052	 28.57184	 62.16558	 53.61943	 35.26843	  1.11830	104.93438	701.15997	 48.60	
  5.095	123.033	103.97802	 32.12246	 58.41181	 58.03450	 31.38824	  1.17867	104.92823	701.09998	 48.60	
  5.105	104.191	104.06001	 36.67035	 53.62802	 61.19406	 28.77703	  1.25730	104.87431	701.17999	 48.70	
  5.093	 85.207	104.18646	 42.14529	 48.23104	 62.53422	 27.71085	  1.36628	104.86051	701.08002	 48.70	
  5.104	 66.290	104.44665	 47.72380	 42.84586	 62.01602	 28.40472	  1.54901	104.96529	701.16998	 48.70	
  5.094	 47.331	104.59386	 52.78455	 37.97012	 59.50143	 30.72191	  1.67588	104.92811	701.15997	 48.80	
  5.089	 28.397	104.69700	 56.79684	 34.40412	 55.36477	 34.42307	  1.78690	104.89629	701.14001	 48.80	
  5.096	  9.576	104.80133	 59.35611	 32.25199	 50.47961	 39.21796	  1.84007	104.89720	701.04999	 48.80	
  5.096	 -9.576	104.84273	 60.04072	 31.72892	 44.93863	 44.98175	  1.81689	104.91014	701.14001	 48.90	
  5.089	-28.397	104.87906	 58.90333	 32.77503	 39.76785	 50.32818	  1.76362	104.92999	701.09003	 48.90	
  5.094	-47.331	104.83925	 55.93084	 35.40631	 35.12823	 55.15656	  1.66632	104.94955	701.09998	 48.90	
  5.104	-66.290	104.70845	 51.51256	 39.36166	 31.39089	 58.83302	  1.55474	104.91484	701.19000	 48.90	
  5.093	-85.207	104.67275	 46.22372	 44.59472	 29.47253	 60.89905	  1.47887	105.01543	701.19000	 48.90	
  5.105	-104.191	104.43439	 40.55164	 49.98144	 29.26985	 60.95165	  1.48108	104.92028	701.10999	 49.00	
  5.095	-123.033	104.25388	 35.41133	 55.17709	 30.64546	 59.20901	  1.43175	104.92640	701.14001	 49.00	
  5.109	-142.013	104.08408	 30.93303	 59.74651	 33.40821	 55.88569	  1.36252	104.93264	701.26001	 49.00	
  5.099	-161.165	103.94049	 27.88119	 63.09294	 37.91893	 51.22519	  1.29953	104.94337	701.14001	 49.10	
  5.100	180.000	103.87762	 26.49766	 64.88318	 42.85472	 45.90439	  1.21656	104.97215	701.07001	 49.10	
  6.800	180.000	102.67463	 20.51232	 69.80355	 41.22337	 45.51798	  0.56170	104.91582	701.12000	 49.10	
  6.796	-166.229	102.86839	 21.83116	 68.52416	 36.15451	 50.88814	  0.71934	105.00187	701.23999	 49.10	
  6.808	-152.311	102.95248	 24.15207	 65.84691	 31.61822	 55.85602	  0.79565	104.96783	701.14001	 49.20	
  6.795	-138.383	103.14775	 27.47561	 61.80909	 28.04567	 60.09348	  0.81523	105.01160	701.16998	 49.20	
  6.792	-124.591	103.30891	 31.58078	 57.27250	 25.35104	 63.48366	  0.82693	104.96936	701.15002	 49.20	
  6.787	-110.754	103.60204	 36.63242	 52.24029	 23.78633	 65.93310	  0.87006	105.09861	701.17999	 49.20	
  6.800	-96.985	103.66229	 41.81981	 46.87142	 23.12036	 66.71517	  0.79952	104.97387	701.15002	 49.20	
  6.800	-83.015	103.87756	 47.30378	 41.55305	 23.70881	 66.11488	  0.83613	104.97951	701.16998	 49.30	
  6.787	-69.246	104.08803	 52.52978	 36.76152	 25.49153	 64.07494	  0.89995	105.05560	701.12000	 49.30	
  6.792	-55.409	104.18183	 57.12401	 32.67295	 28.32133	 60.62826	  0.95898	105.02619	701.15002	 49.30	
  6.795	-41.617	104.27188	 60.95660	 29.40583	 32.22271	 56.37820	  1.05836	105.03063	701.02002	 49.40	
  6.808	-27.689	104.35242	 63.83146	 27.14671	 37.16901	 51.38072	  1.18759	105.04954	701.15002	 49.40	
  6.796	-13.771	104.33391	 65.26527	 26.02588	 42.40069	 45.99466	  1.28128	105.02840	701.07001	 49.40	
  6.800	  0.000	104.28880	 65.24418	 26.00571	 47.72573	 40.35775	  1.28151	105.02432	701.20001	 49.50	
  6.796	 13.771	104.20920	 63.76668	 27.00403	 53.03809	 35.18131	  1.32691	105.02147	701.07001	 49.50	
  6.808	 27.689	104.00466	 60.90529	 29.13723	 57.84510	 30.54953	  1.25357	104.94689	701.04999	 49.50	
  6.795	 41.617	103.93293	 57.09123	 32.40499	 62.21540	 26.88750	  1.10477	105.03918	701.07001	 49.50	
  6.792	 55.409	103.79588	 52.45985	 36.50208	 65.42912	 24.34956	  0.99240	105.07660	701.09003	 49.60	
  6.787	 69.246	103.61511	 47.31687	 41.26185	 67.28169	 22.70068	  0.86630	105.06980	701.04999	 49.60	
  6.800	 83.015	103.40533	 42.03332	 46.60890	 67.81642	 22.04079	  0.73556	104.98725	701.06000	 49.60	
  6.800	 96.985	103.24030	 36.44949	 51.97807	 66.98633	 22.66044	  0.63240	105.02119	701.06000	 49.60	
  6.787	110.754	103.10788	 31.67566	 57.06586	 64.77425	 24.28927	  0.52892	105.02081	701.09998	 49.60	
  6.792	124.591	103.01508	 27.52372	 61.65789	 61.37936	 26.91069	  0.47976	105.08898	701.04999	 49.60	
  6.795	138.383	102.92144	 24.18883	 65.67140	 56.92462	 30.55300	  0.44316	105.08782	701.09998	 49.70	
  6.808	152.311	102.84418	 21.77999	 68.53653	 52.00503	 35.01468	  0.45521	105.10374	701.25000	 49.70	
  6.796	166.229	102.77552	 20.60318	 69.87255	 46.63648	 40.06314	  0.50078	105.03271	701.08002	 49.70	
  8.491	168.704	101.29701	 14.19013	 74.24870	 44.88203	 39.43765	 -0.26601	105.09406	701.16998	 49.70	
  8.502	157.493	101.24230	 15.04223	 73.18521	 50.28978	 34.25949	 -0.40913	105.02348	701.08002	 49.70	
  8.494	146.194	101.38380	 16.88184	 71.18977	 55.54984	 29.58992	 -0.38327	105.09688	701.04999	 49.70	
  8.495	135.039	101.49323	 19.51179	 68.17692	 60.37988	 25.61146	 -0.39097	105.10374	701.08002	 49.80	
  8.487	123.723	101.56898	 23.31135	 63.78090	 64.95152	 21.99820	 -0.32289	105.07288	701.16998	 49.80	
  8.492	112.575	101.68021	 27.48796	 59.15524	 68.43751	 19.22447	 -0.28827	105.07472	701.13000	 49.80	
  8.510	101.220	101.88576	 32.14216	 53.96332	 70.87146	 17.28017	 -0.20896	105.10695	701.03003	 49.90	
  8.500	 90.000	102.04881	 37.34727	 48.64190	 72.19223	 16.19110	 -0.12235	105.08799	701.04999	 49.90	
  8.510	 78.780	102.14352	 42.97503	 43.02407	 72.45528	 15.98842	 -0.00783	105.02384	700.96997	 49.90	
  8.492	 67.425	102.40039	 48.41216	 37.83572	 71.62515	 16.94050	  0.10900	105.10011	701.10999	 50.00	
  8.487	 56.277	102.62240	 53.62447	 33.19323	 69.70335	 18.75227	  0.22955	105.13039	701.01001	 50.00	
  8.495	 44.961	102.75503	 58.44162	 29.03836	 66.67168	 21.40384	  0.12420	105.05949	701.09998	 50.00	
  8.494	 33.806	102.92411	 62.76081	 25.69195	 62.70668	 24.82219	  0.43446	105.07549	701.08002	 50.00	
  8.502	 22.507	103.06596	 66.44180	 22.98822	 57.91711	 28.57183	  0.66763	105.06950	701.14001	 50.10	
  8.491	 11.296	103.28638	 68.86282	 21.25892	 52.85103	 33.36990	  0.71398	105.12874	701.14001	 50.10	
  8.500	  0.000	103.32785	 70.20260	 20.18286	 47.28727	 38.64727	  0.64713	105.07024	701.17999	 50.10	
  8.491	-11.296	103.42609	 70.34698	 20.18043	 41.78520	 44.45098	  0.61364	105.09969	701.35999	 50.10	
  8.502	-22.507	103.44006	 69.37621	 21.03399	 36.20280	 49.97210	  0.53560	105.14334	701.17999	 50.10	
  8.494	-33.806	103.43907	 67.16302	 22.83119	 31.31623	 55.28645	  0.37606	105.16357	701.15002	 50.10	
  8.495	-44.961	103.38761	 63.72115	 25.42083	 27.10005	 60.06011	  0.09783	105.15310	701.16998	 50.20	
  8.487	-56.277	103.27391	 59.59361	 28.67188	 23.41440	 64.51405	  0.13059	105.15997	701.14001	 50.20	
  8.492	-67.425	103.12766	 54.87896	 32.62819	 20.56118	 68.01649	  0.09952	105.15308	701.17999	 50.20	
  8.510	-78.780	102.92455	 49.66142	 37.22929	 18.49633	 70.32494	  0.02580	105.14536	701.09003	 50.20	
  8.500	-90.000	102.72601	 44.33284	 42.31073	 17.57887	 71.39491	  0.01355	105.09785	701.09998	 50.20	
  8.510	-101.220	102.58607	 38.99599	 47.81691	 17.28381	 71.56415	  0.05955	105.18591	701.13000	 50.20	
  8.492	-112.575	102.35059	 33.35926	 53.26320	 18.22811	 70.33629	  0.13184	105.13005	701.09003	 50.30	
  8.487	-123.723	102.18641	 28.72832	 58.41624	 19.89435	 68.08488	  0.12316	105.15975	701.06000	 50.30	
  8.495	-135.039	101.93394	 24.27207	 63.12215	 22.29907	 64.61930	  0.14849	105.11113	701.08002	 50.30	
  8.494	-146.194	101.75397	 20.48649	 67.53812	 25.51089	 60.44735	  0.16650	105.08231	701.15002	 50.30	
  8.502	-157.493	101.68355	 17.45886	 70.94780	 29.64181	 55.74195	  0.16194	105.18425	701.17999	 50.30	
  8.491	-168.704	101.55193	 15.47031	 73.07531	 34.20801	 50.64825	  0.02621	105.19001	701.19000	 50.30	
  8.500	180.000	101.38421	 14.32910	 74.18436	 39.63623	 45.07681	 -0.16317	105.14496	701.27002	 50.30	
 10.200	180.000	 99.49066	  8.35016	 78.64164	 37.14524	 44.61084	 -0.96390	105.08298	701.19000	 50.30	
 10.191	-170.497	 99.65065	  9.27468	 77.48779	 32.02436	 49.85260	 -0.75565	105.13717	701.16998	 50.30	
 10.210	-161.034	 99.75701	 10.82694	 75.28620	 27.20687	 55.21280	 -0.66482	105.14510	701.15002	 50.40	
 10.194	-151.526	 99.91850	 13.30439	 72.46240	 23.13006	 60.17615	 -1.19943	105.15869	701.21997	 50.40	
 10.190	-142.105	100.06190	 16.50586	 68.64305	 19.70140	 64.72084	 -0.60265	105.08420	701.20001	 50.40	
 10.215	-132.646	100.30621	 20.59919	 64.14660	 16.61558	 69.04836	 -1.24884	105.19931	701.20001	 50.40	
 10.203	-123.092	100.44002	 25.34415	 59.22535	 14.27391	 72.06544	 -1.31275	105.13942	701.09998	 50.40	
 10.192	-113.678	100.66417	 30.21542	 54.00452	 12.49711	 74.25023	 -1.09545	105.16077	701.15002	 50.40	
 10.208	-104.249	100.90796	 35.13449	 48.51707	 11.59905	 75.72893	 -0.88332	105.17142	701.13000	 50.50	
 10.210	-94.801	101.06039	 40.85107	 42.95794	 11.35046	 76.13065	 -0.94945	105.14088	701.09998	 50.50	
 10.210	-85.199	101.25465	 46.30509	 37.69855	 12.07590	 75.44404	 -1.01965	105.13584	701.09003	 50.50	
 10.208	-75.751	101.47430	 51.67690	 32.76733	 13.52287	 73.86398	 -0.93606	105.16492	701.09998	 50.50	
 10.192	-66.322	101.62711	 56.81060	 28.64565	 15.59913	 71.37978	 -1.21273	105.11561	701.09998	 50.50	
 10.203	-56.908	101.77709	 61.64668	 24.63856	 18.30141	 67.99918	 -1.15275	105.09508	701.10999	 50.50	
 10.215	-47.354	101.94535	 66.15857	 21.05657	 21.66967	 63.49216	 -1.30844	105.16753	701.09998	 50.60	
 10.190	-37.895	102.00789	 69.73418	 18.27178	 25.76563	 58.68638	 -0.69785	105.11999	701.09998	 50.60	
 10.194	-28.474	102.05943	 72.38911	 16.06789	 30.36776	 53.59643	 -0.57233	105.13206	701.20001	 50.60	
 10.210	-18.966	102.08459	 74.27431	 14.42918	 35.46000	 48.06586	 -0.28436	105.12856	701.09998	 50.60	
 10.191	 -9.503	102.06314	 75.03151	 13.77806	 41.13412	 42.33041	 -0.13704	105.11059	701.07001	 50.70	
 10.200	  0.000	101.99651	 74.77998	 13.87266	 46.62012	 36.76233	 -0.07764	105.14239	701.15002	 50.70	
 10.191	  9.503	101.93031	 73.45940	 14.94447	 52.21696	 31.48646	 -0.04305	105.13908	701.09998	 50.70	
 10.210	 18.966	101.71519	 71.32115	 16.44687	 57.53676	 26.80912	 -0.12657	105.14343	701.09998	 50.70	
 10.194	 28.474	101.57563	 68.16479	 18.95179	 62.54018	 22.52311	 -0.45960	105.15318	701.15002	 50.60	
 10.190	 37.895	101.40467	 64.07982	 22.09781	 67.10661	 18.54468	 -0.89957	105.16170	701.16998	 50.70	
 10.215	 47.354	101.20646	 59.58574	 25.79440	 70.81162	 15.19856	 -0.95436	105.12290	701.14001	 50.70	
 10.203	 56.908	101.07362	 54.52213	 29.95618	 73.63335	 12.73855	 -0.99978	105.14831	701.12000	 50.70	
 10.192	 66.322	100.86669	 49.23616	 34.48488	 75.68579	 10.90691	 -0.74794	105.10516	701.09998	 50.70	
 10.208	 75.751	100.77574	 44.00237	 39.54916	 77.06141	  9.86281	 -0.89607	105.23848	701.15997	 50.70	
 10.210	 85.199	100.52055	 38.16917	 45.23349	 77.14955	  9.63272	 -1.02666	105.15596	701.22998	 50.70	
 10.210	 94.801	100.40029	 32.74340	 50.57154	 76.25279	 10.19859	 -1.78667	105.20641	701.16998	 50.70	
 10.208	104.249	100.17952	 27.92383	 55.91516	 74.34715	 11.51871	 -1.91582	105.14069	701.12000	 50.70	
 10.192	113.678	100.01990	 23.15274	 61.07750	 71.62309	 13.72122	 -1.93737	105.17277	701.15002	 50.80	
 10.203	123.092	 99.84902	 18.67459	 65.85601	 68.24225	 16.56528	 -2.03339	105.13842	701.21997	 50.80	
 10.215	132.646	 99.75354	 14.81996	 70.29013	 63.82702	 20.06033	 -2.00488	105.13899	701.21997	 50.80	
 10.190	142.105	 99.62394	 12.12673	 73.58105	 58.93254	 24.22773	 -1.44338	105.11265	701.21002	 50.80	
 10.194	151.526	 99.55968	 10.07715	 76.17577	 53.81329	 28.65416	 -1.37715	105.16868	701.28003	 50.80	
 10.210	161.034	 99.48340	  8.63090	 78.09147	 48.34001	 33.30868	 -1.65538	105.16657	701.27002	 50.80	
 10.191	170.497	 99.49335	  8.14338	 78.83735	 42.79355	 38.66650	 -1.16776	105.14272	701.20001	 50.80	
 11.899	171.783	 97.21146	  2.00706	 82.78577	 40.25529	 37.55989	 -2.17170	105.14291	701.19000	 50.80	
 11.890	163.610	 97.19220	  2.32490	 82.12695	 45.85129	 32.24529	 -2.99885	105.12349	701.20001	 50.90	
 11.889	155.445	 97.30352	  3.51614	 80.67145	 51.50286	 27.43827	 -3.01742	105.15565	701.03003	 50.90	
 11.909	147.299	 97.35626	  5.14705	 78.64413	 56.84306	 22.71998	 -2.83100	105.13515	701.21997	 50.90	
 11.902	139.148	 97.50425	  7.40296	 75.62181	 61.85443	 18.37643	 -3.00111	105.10832	701.23999	 50.90	
 11.894	130.867	 97.67931	 10.36279	 71.95946	 66.79641	 14.18169	 -3.04020	105.11433	701.22998	 50.90	
 11.897	122.732	 97.71776	 13.80080	 67.55599	 71.04654	 10.77677	 -3.03340	105.10828	701.10999	 51.00	
 11.903	114.597	 97.82879	 17.85167	 62.69320	 74.52333	  8.21772	 -2.96539	105.10964	701.10999	 51.00	
 11.893	106.346	 98.01393	 23.20970	 57.52720	 77.53999	  6.09989	 -2.93501	105.11212	701.10999	 51.00	
 11.892	 98.155	 98.22001	 28.29888	 52.10590	 79.59637	  4.66684	 -2.88988	105.14847	701.00000	 51.00	
 11.900	 90.000	 98.39892	 33.13414	 46.95087	 80.86121	  3.83617	 -2.81651	105.17559	701.09998	 51.00	
 11.892	 81.845	 98.51951	 38.50867	 41.10345	 81.24706	  3.58426	 -2.18389	105.11929	701.23999	 51.00	
 11.893	 73.654	 98.74419	 44.39282	 35.86355	 80.82145	  4.13465	 -2.63889	105.13447	701.14001	 51.10	
 11.903	 65.403	 98.84632	 49.74841	 30.97350	 79.43038	  5.29011	 -2.48441	105.04684	701.09998	 51.10	
 11.897	 57.268	 99.13102	 55.16661	 26.63223	 77.44572	  6.98824	 -2.22016	105.13205	701.13000	 51.10	
 11.894	 49.133	 99.33773	 60.23566	 22.39834	 74.45911	  9.25855	 -2.09409	105.14868	701.08002	 51.10	
 11.902	 40.852	 99.50723	 64.92083	 18.40073	 70.92821	 11.99180	 -1.95263	105.10286	701.15002	 51.10	
 11.909	 32.701	 99.72169	 69.28896	 14.72030	 66.85609	 15.61491	 -1.85601	105.13595	701.13000	 51.10	
 11.889	 24.555	 99.86488	 72.81586	 11.98770	 61.90593	 20.11199	 -1.76936	105.10321	701.06000	 51.10	
 11.890	 16.390	100.00884	 75.79321	  9.84368	 56.81898	 24.89576	 -1.82487	105.11140	701.09998	 51.10	
 11.899	  8.217	100.14664	 77.86393	  8.31909	 51.46051	 29.58852	 -1.19626	105.07905	701.04999	 51.10	
 11.900	  0.000	100.26936	 79.06966	  7.52531	 45.82266	 34.60180	 -1.16055	105.15032	701.15997	 51.20	
 11.899	 -8.217	100.35093	 79.34251	  7.36706	 40.20089	 40.08286	 -1.07507	105.15737	701.09998	 51.20	
 11.890	-16.390	100.39766	 78.73396	  7.88632	 34.70692	 46.17821	 -1.52770	105.14445	701.02002	 51.20	
 11.889	-24.555	100.39677	 77.34964	  9.07301	 29.49813	 51.47991	 -1.55580	105.15536	701.06000	 51.20	
 11.909	-32.701	100.27200	 74.99828	 10.84144	 24.64644	 56.81762	 -2.40068	105.09222	701.03998	 51.20	
 11.902	-40.852	100.20279	 71.92156	 13.22181	 20.50251	 61.80592	 -1.90652	105.06418	701.04999	 51.20	
 11.894	-49.133	100.11914	 68.12971	 16.23661	 16.66730	 66.70240	 -2.64063	105.10029	701.00000	 51.20	
 11.897	-57.268	 99.97054	 63.49575	 20.08957	 13.18747	 71.00702	 -2.59706	105.06823	701.08002	 51.20	
 11.903	-65.403	 99.85433	 58.70090	 24.15546	 10.15292	 74.38402	 -2.57409	105.11937	701.13000	 51.20	
 11.893	-73.654	 99.72490	 53.47692	 28.65258	  7.82696	 77.13956	 -2.08589	105.17495	701.14001	 51.20	
 11.892	-81.845	 99.55672	 48.14806	 33.19262	  6.26353	 79.06047	 -2.67855	105.19051	701.10999	 51.20	
 11.900	-90.000	 99.34653	 42.73486	 38.16973	  5.28313	 79.94453	 -2.52456	105.16083	701.10999	 51.20	
 11.892	-98.155	 99.11053	 36.86548	 43.43857	  4.84322	 80.12186	 -1.95557	105.16537	701.20001	 51.30	
 11.893	-106.346	 98.83344	 31.54234	 48.90951	  4.75309	 79.46943	 -2.52769	105.09623	701.16998	 51.30	
 11.903	-114.597	 98.51395	 26.54787	 54.42342	  5.60892	 78.16880	 -2.48011	105.09991	701.04999	 51.30	
 11.897	-122.732	 98.40429	 21.75878	 59.62848	  7.70262	 75.79762	 -2.39139	105.14166	701.04999	 51.30	
 11.894	-130.867	 98.17418	 16.69194	 64.52675	 10.43339	 72.79008	 -2.38277	105.12040	701.12000	 51.30	
 11.902	-139.148	 97.93427	 12.53952	 69.45932	 13.48704	 68.94525	 -2.30760	105.06972	701.10999	 51.30	
 11.909	-147.299	 97.83362	  9.28102	 73.61134	 16.90777	 64.23969	 -2.20417	105.16837	701.03003	 51.30	
 11.889	-155.445	 97.61331	  6.62257	 76.81194	 20.92546	 59.35490	 -2.06993	105.06538	701.14001	 51.30	
 11.890	-163.610	 97.52541	  4.59211	 79.52634	 25.11454	 54.20067	 -2.16164	105.11695	701.08002	 51.30	
 11.899	-171.783	 97.38981	  3.03766	 81.36529	 29.63869	 48.74013	 -1.65701	105.17209	701.19000	 51.30	
 11.900	180.000	 97.27660	  2.22384	 82.51884	 34.83286	 43.07301	 -2.29726	105.15583	701.09998	 51.30	
 13.600	180.000	 94.57577	 -4.07115	 86.24256	 32.19880	 41.58786	 -3.56449	105.04412	701.17999	 51.30	
 13.608	-172.853	 94.75058	 -3.41417	 85.28476	 27.42174	 47.43758	 -3.25617	105.14208	701.15997	 51.30	
 13.611	-165.583	 94.88117	 -2.01081	 83.44603	 22.64136	 52.84749	 -3.01353	105.15276	701.08002	 51.30	
 13.601	-158.353	 95.03294	  0.01784	 80.84791	 18.08480	 58.25243	 -2.90386	105.10958	701.14001	 51.30	
 13.609	-151.210	 95.14177	  2.40874	 77.91061	 13.77734	 63.26788	 -2.93376	105.10173	701.15002	 51.30	
 13.611	-143.999	 95.34618	  5.31790	 74.24745	  9.67962	 68.18807	 -3.09795	105.09972	701.26001	 51.30	
 13.601	-136.825	 95.59434	  8.80042	 69.85090	  6.34220	 72.63181	 -3.26244	105.15572	701.10999	 51.30	
 13.596	-129.640	 95.79945	 12.79231	 64.80385	  3.64266	 76.24834	 -3.38110	105.16091	701.10999	 51.30	
 13.611	-122.431	 95.99657	 17.20265	 59.73188	  1.26416	 79.34179	 -3.39178	105.20570	701.16998	 51.30	
 13.604	-115.211	 96.18565	 22.67607	 54.46849	 -0.58462	 81.62321	 -3.46281	105.21542	701.20001	 51.30	
 13.595	-108.042	 96.36913	 27.75935	 49.16437	 -1.51675	 83.27398	 -3.57820	105.15948	701.13000	 51.30	
 13.607	-100.793	 96.60516	 32.84550	 43.58673	 -1.70024	 84.11779	 -3.72477	105.12940	701.26001	 51.40	
 13.601	-93.617	 96.84573	 38.20561	 38.22953	 -1.52752	 84.27524	 -3.46463	105.16987	701.03003	 51.30	
 13.601	-86.383	 97.07472	 44.19825	 33.24172	 -0.86888	 83.59467	 -3.96223	105.15012	701.20001	 51.30	
 13.607	-79.207	 97.33362	 49.63937	 28.34630	  0.20345	 82.25110	 -3.90158	105.24387	701.19000	 51.40	
 13.595	-71.958	 97.53578	 55.07529	 23.69160	  1.94002	 80.02260	 -3.74467	105.21528	701.15997	 51.40	
 13.604	-64.789	 97.71088	 60.23361	 18.88676	  4.15646	 77.29774	 -3.68240	105.15371	701.10999	 51.40	
 13.611	-57.569	 97.85674	 65.14340	 14.82679	  6.80110	 73.78913	 -3.77590	105.14120	701.09003	 51.40	
 13.596	-50.360	 97.99717	 69.81438	 11.48680	 10.21457	 69.66285	 -3.82680	105.12859	701.13000	 51.40	
 13.601	-43.175	 98.06571	 73.77919	  8.60387	 14.60638	 64.77230	 -3.71568	105.08266	701.15997	 51.40	
 13.611	-36.001	 98.18436	 77.24895	  6.00162	 18.97400	 59.85013	 -3.48596	105.12576	701.09003	 51.40	
 13.609	-28.790	 98.16725	 79.74836	  3.94064	 23.53230	 54.54959	 -3.22980	105.09933	701.09003	 51.40	
 13.601	-21.647	 98.26968	 81.66859	  2.60651	 28.21203	 49.02711	 -3.05635	105.13978	701.15997	 51.40	
 13.611	-14.417	 98.30251	 82.95683	  1.73667	 33.50877	 43.35625	 -2.90901	105.20218	701.09003	 51.40	
 13.608	 -7.147	 98.20053	 83.30467	  1.45478	 38.99934	 37.60482	 -2.43584	105.08307	701.04999	 51.40	
 13.600	  0.000	 98.11753	 82.97901	  1.54478	 44.64450	 32.53865	 -2.91909	105.13428	701.07001	 51.40	
 13.608	  7.147	 98.01876	 81.79749	  2.21879	 50.21226	 27.48234	 -2.95662	105.13858	701.17999	 51.50	
 13.611	 14.417	 97.86425	 79.90196	  3.54952	 55.71949	 22.24737	 -2.87441	105.12467	701.21002	 51.50	
 13.601	 21.647	 97.72935	 77.29636	  5.53012	 61.01388	 17.04056	 -2.74459	105.18016	701.19000	 51.40	
 13.609	 28.790	 97.52616	 73.95374	  7.87739	 66.03214	 12.69117	 -2.65515	105.15313	701.13000	 51.40	
 13.611	 36.001	 97.43211	 70.03670	 10.71842	 70.69761	  9.07699	 -2.80716	105.21951	701.15002	 51.40	
 13.601	 43.175	 97.28259	 65.45756	 14.00541	 74.59961	  6.03369	 -2.95470	105.22211	701.20001	 51.40	
 13.596	 50.360	 97.03875	 60.60480	 17.99542	 78.17618	  3.25419	 -3.10745	105.20913	701.04999	 51.40	
 13.611	 57.569	 96.79738	 55.44033	 22.73557	 80.88865	  1.02060	 -3.19844	105.17670	701.12000	 51.40	
 13.604	 64.789	 96.59277	 49.97351	 27.46012	 83.07724	 -0.53352	 -3.38397	105.17609	701.09003	 51.40	
 13.595	 71.958	 96.47142	 44.63486	 32.16823	 84.52329	 -1.58594	 -3.53069	105.23604	701.09003	 51.40	
 13.607	 79.207	 96.21022	 38.84083	 37.03182	 85.23441	 -2.30605	 -3.61150	105.20567	701.15002	 51.40	
 13.601	 86.383	 96.02550	 33.44165	 42.34951	 85.07344	 -2.53360	 -3.80052	105.15971	701.09003	 51.40	
 13.601	 93.617	 95.86258	 28.26201	 48.19272	 84.28429	 -2.08324	 -3.89765	105.16534	701.04999	 51.40	
 13.607	100.793	 95.78027	 22.99596	 53.51926	 82.69782	 -0.87559	 -3.87850	105.21684	700.96002	 51.40	
 13.595	108.042	 95.64033	 17.43933	 58.98174	 80.28257	  0.89845	 -3.83851	105.22697	701.03003	 51.40	
 13.604	115.211	 95.51762	 13.15374	 64.02084	 77.47054	  3.00019	 -3.87300	105.28237	701.01001	 51.40	
 13.611	122.431	 95.35951	  9.23599	 68.99256	 73.72320	  5.62786	 -3.91577	105.22476	701.09003	 51.40	
 13.596	129.640	 95.27699	  6.00859	 73.52196	 69.51824	  8.53082	 -3.92201	105.24306	701.01001	 51.40	
 13.601	136.825	 95.02106	  3.08347	 77.30265	 64.55731	 12.01952	 -3.96213	105.14130	701.04999	 51.40	
 13.611	143.999	 94.87907	  0.65715	 80.51006	 59.53803	 16.19945	 -3.88077	105.17722	701.14001	 51.40	
 13.609	151.210	 94.75311	 -1.33276	 83.05324	 54.31989	 21.11769	 -3.85782	105.15976	701.19000	 51.50	
 13.601	158.353	 94.76123	 -3.07678	 85.06248	 48.84118	 26.06074	 -3.91817	105.25410	701.04999	 51.50	
 13.611	165.583	 94.62504	 -3.92124	 86.17353	 43.26035	 30.99421	 -3.84289	105.14618	701.06000	 51.50	
 13.608	172.853	 94.69044	 -4.15717	 86.60942	 37.63528	 36.23521	 -3.52359	105.19351	701.19000	 51.60	
 15.298	173.587	 91.61198	 -9.83636	 90.08701	 34.67110	 34.63959	 -4.29402	105.14027	701.04999	 51.60	
 15.291	167.167	 91.68057	 -9.62567	 89.80289	 40.02401	 29.60786	 -4.51095	105.17922	701.19000	 51.60	
 15.307	160.676	 91.65813	 -9.04402	 88.86961	 45.75588	 24.39069	 -4.66173	105.18220	701.16998	 51.60	
 15.300	154.261	 91.77815	 -7.76916	 87.19509	 51.24641	 19.04136	 -4.62840	105.10893	701.02002	 51.60	
 15.288	147.854	 91.91379	 -6.00561	 84.80608	 56.75595	 14.44534	 -4.54726	105.11958	701.08002	 51.60	
 15.293	141.428	 92.07075	 -3.94545	 81.83473	 62.00670	 10.21072	 -4.65506	105.14813	701.01001	 51.60	
 15.299	134.985	 92.16531	 -1.37543	 78.47359	 66.99170	  6.36846	 -4.65512	105.11373	700.97998	 51.60	
 15.305	128.583	 92.30671	  1.56519	 74.55209	 71.76797	  3.07301	 -4.57241	105.14443	700.97998	 51.60	
 15.309	122.142	 92.39999	  4.96445	 69.94908	 75.94920	  0.16985	 -4.54586	105.13815	701.01001	 51.60	
 15.304	115.711	 92.56167	  8.70860	 64.95418	 79.70446	 -2.41449	 -4.52496	105.15455	701.01001	 51.60	
 15.297	109.291	 92.77171	 12.61503	 59.88042	 82.75599	 -4.49468	 -4.51925	105.17535	701.00000	 51.60	
 15.293	102.897	 92.93774	 17.09207	 54.53395	 85.25240	 -6.24412	 -4.58373	105.13342	700.98999	 51.60	
 15.293	 96.458	 93.02419	 22.29854	 49.07056	 87.06369	 -7.59214	 -4.64631	105.10534	701.15997	 51.60	
 15.300	 90.000	 93.18723	 28.28285	 43.34148	 88.31757	 -8.50383	 -4.66723	105.13231	701.09998	 51.60	
 15.293	 83.542	 93.28164	 33.54969	 37.85997	 88.74858	 -8.62028	 -4.52738	105.11227	701.04999	 51.60	
 15.293	 77.103	 93.48727	 38.68684	 33.00243	 88.52983	 -8.13267	 -4.29939	105.09286	701.12000	 51.70	
 15.297	 70.709	 93.67912	 44.35043	 28.26290	 87.70747	 -7.53883	 -4.22556	105.07849	701.03003	 51.70	
 15.304	 64.289	 93.88999	 49.89734	 23.30084	 86.21576	 -6.37265	 -4.14692	105.10490	701.03003	 51.70	
 15.309	 57.858	 94.13366	 55.34261	 18.15024	 84.12244	 -4.79552	 -4.04158	105.17300	700.94000	 51.70	
 15.305	 51.417	 94.27724	 60.48960	 13.96633	 81.17809	 -2.68732	 -3.96336	105.06585	700.98999	 51.70	
 15.299	 45.015	 94.55851	 65.48615	 10.15724	 77.94199	 -0.08995	 -3.86688	105.16064	701.03003	 51.70	
 15.293	 38.572	 94.72289	 70.29052	  6.70369	 73.88168	  2.89493	 -3.70592	105.08344	700.95001	 51.70	
 15.288	 32.146	 94.94347	 74.53295	  3.71839	 69.60277	  6.26278	 -3.56804	105.15115	700.98999	 51.70	
 15.300	 25.739	 95.04958	 78.19999	  1.09881	 64.68063	  9.99300	 -3.53085	105.13146	700.98999	 51.70	
 15.307	 19.324	 95.26141	 81.23244	 -1.02401	 59.61505	 14.31308	 -3.56486	105.15825	701.09998	 51.70	
 15.291	 12.833	 95.42776	 83.72882	 -2.70295	 54.22462	 19.15211	 -3.55268	105.17921	701.02002	 51.70	
 15.298	  6.413	 95.55800	 85.56501	 -3.94906	 48.74572	 24.70674	 -3.76032	105.17530	700.96997	 51.70	
 15.300	  0.000	 95.59219	 86.67477	 -4.61683	 43.06736	 30.22149	 -3.72622	105.09300	701.00000	 51.70	
 15.298	 -6.413	 95.70890	 87.04333	 -4.65610	 37.59481	 35.43014	 -3.60625	105.09246	701.04999	 51.70	
 15.291	-12.833	 95.79421	 86.79054	 -4.51413	 32.24437	 40.44577	 -3.57075	105.14908	701.08002	 51.70	
 15.307	-19.324	 95.76276	 85.78975	 -3.92649	 27.08328	 46.53439	 -3.72524	105.09591	701.08002	 51.70	
 15.300	-25.739	 95.78252	 84.13456	 -2.81208	 22.22202	 51.80426	 -3.88209	105.14065	701.03003	 51.70	
 15.288	-32.146	 95.73538	 81.74556	 -1.01089	 17.27302	 57.29956	 -4.12772	105.11200	701.03003	 51.70	
 15.293	-38.572	 95.65348	 78.91670	  1.23701	 12.08023	 62.43000	 -4.40584	105.11655	700.98999	 51.70	
 15.299	-45.015	 95.66566	 75.37855	  3.81361	  7.93719	 67.51463	 -4.66770	105.18565	701.06000	 51.70	
 15.305	-51.417	 95.53741	 71.29022	  6.67086	  4.35599	 72.23081	 -4.74524	105.18816	701.08002	 51.80	
 15.309	-57.858	 95.35347	 66.53287	 10.09663	  1.22431	 76.27274	 -4.73380	105.16336	701.00000	 51.80	
 15.304	-64.289	 95.24620	 61.58905	 14.00883	 -1.36098	 79.84212	 -4.72382	105.22880	701.14001	 51.80	
 15.297	-70.709	 95.05373	 56.33426	 18.25718	 -3.53230	 82.67091	 -4.75120	105.20193	701.09998	 51.80	
 15.293	-77.103	 94.83133	 50.88900	 23.02700	 -5.43290	 85.07368	 -4.82529	105.21687	701.08002	 51.80	
 15.293	-83.542	 94.59548	 45.48074	 28.01375	 -6.78460	 86.79285	 -4.98372	105.21701	701.06000	 51.80	
 15.300	-90.000	 94.27541	 39.51836	 33.07824	 -7.58137	 87.73615	 -4.89296	105.14105	701.14001	 51.80	
 15.293	-96.458	 94.06642	 34.01893	 38.17276	 -7.62450	 88.05564	 -4.74588	105.15662	701.09003	 51.80	
 15.293	-102.897	 93.86055	 28.97504	 43.26986	 -7.46323	 87.68694	 -4.53509	105.17459	701.02002	 51.80	
 15.297	-109.291	 93.61638	 23.54112	 49.16000	 -7.13340	 86.59000	 -4.41485	105.14687	700.97998	 51.80	
 15.304	-115.711	 93.38132	 18.00596	 54.10685	 -6.03152	 84.82980	 -4.28315	105.11971	701.03003	 51.80	
 15.309	-122.142	 93.12547	 13.25734	 59.46951	 -4.24427	 82.35153	 -4.21881	105.09605	701.03998	 51.80	
 15.305	-128.583	 92.99567	  9.03716	 64.69931	 -2.20928	 79.48378	 -4.14541	105.13674	700.97998	 51.80	
 15.299	-134.985	 92.80893	  5.21434	 69.67873	 -0.02201	 75.89244	 -4.03888	105.15173	700.92999	 51.80	
 15.293	-141.428	 92.60440	  1.75253	 74.43095	  2.83208	 71.74644	 -3.79469	105.15836	701.00000	 51.80	
 15.288	-147.854	 92.48008	 -1.31493	 78.44946	  6.30318	 66.74332	 -3.58254	105.18488	701.00000	 51.80	
 15.300	-154.261	 92.23125	 -4.28168	 81.67281	 10.31996	 61.91331	 -3.56405	105.13960	700.98999	 51.80	
 15.307	-160.676	 92.06693	 -6.52957	 84.70863	 14.79495	 56.63930	 -3.60496	105.12164	700.96997	 51.80	
 15.291	-167.167	 92.00758	 -8.13537	 87.12189	 19.92742	 51.12247	 -3.59089	105.19460	700.94000	 51.80	
 15.298	-173.587	 91.86990	 -9.50039	 88.78035	 24.80270	 45.56652	 -3.79416	105.21226	700.90002	 51.80	
 15.300	180.000	 91.70023	 -9.82562	 89.80978	 29.78270	 39.91147	 -3.96249	105.16476	701.00000	 51.80	
 17.000	180.000	 88.54805	-15.90995	 92.86342	 26.94861	 38.05324	 -4.17356	105.22357	700.96997	 51.80	
 16.990	-174.179	 88.58616	-15.28178	 91.89312	 21.72772	 43.54851	 -4.00875	105.19480	700.89001	 51.80	
 17.009	-168.383	 88.69278	-14.10366	 90.36452	 16.13432	 49.43936	 -3.90861	105.20914	700.94000	 51.80	
 17.000	-162.596	 88.88609	-12.62008	 88.23058	 11.82730	 54.82564	 -3.84795	105.25280	700.95001	 51.80	
 16.990	-156.759	 88.96696	-10.59177	 85.32481	  7.64836	 60.14939	 -3.86181	105.17490	701.03998	 51.80	
 16.995	-150.919	 89.13181	 -8.17279	 82.08313	  3.57996	 65.34622	 -3.97499	105.23882	701.07001	 51.80	
 16.988	-145.161	 89.35452	 -5.16541	 78.48689	  0.20136	 70.19310	 -4.13717	105.23699	700.96002	 51.90	
 17.014	-139.343	 89.45652	 -1.85923	 74.14867	 -2.95588	 74.87446	 -4.34479	105.17606	700.87000	 51.90	
 17.007	-133.546	 89.72054	  1.75413	 69.27054	 -5.67062	 78.88071	 -4.53638	105.23589	700.94000	 51.90	
 17.001	-127.699	 89.90227	  5.66273	 64.31506	 -8.04675	 82.21534	 -4.63097	105.22612	701.01001	 51.90	
 17.006	-121.937	 90.03680	  9.57759	 59.17282	-10.04220	 85.31407	 -4.66261	105.17111	701.01001	 51.90	
 17.002	-116.134	 90.29813	 13.95248	 53.63720	-11.44964	 87.82055	 -4.81978	105.16696	701.01001	 51.90	
 17.001	-110.310	 90.54851	 18.80221	 48.16130	-12.50421	 89.66830	 -4.98037	105.19452	701.08002	 51.90	
 16.988	-104.517	 90.78714	 24.32056	 42.69714	-13.38976	 90.84992	 -5.11343	105.24771	701.09998	 51.90	
 17.008	-98.662	 90.96803	 29.64642	 37.63984	-13.76679	 91.43408	 -5.34199	105.21916	700.98999	 51.90	
 16.996	-92.909	 91.30483	 34.95711	 32.78691	-13.58722	 91.37460	 -5.52220	105.24735	700.92999	 52.00	
 16.996	-87.091	 91.43983	 40.47994	 27.66549	-13.02829	 90.72229	 -5.65396	105.19204	700.96997	 52.00	
 17.012	-81.253	 91.68046	 46.26382	 22.17909	-11.91334	 89.60919	 -5.61580	105.26109	700.92999	 52.00	
 16.988	-75.483	 91.89299	 51.71849	 17.60386	-10.35974	 87.65729	 -5.57252	105.23521	700.91998	 51.90	
 17.001	-69.690	 92.06683	 57.13667	 13.22770	 -8.55156	 85.16533	 -5.50439	105.17854	701.00000	 51.90	
 17.002	-63.866	 92.34934	 62.52553	  9.06400	 -6.13708	 81.94537	 -5.47027	105.17083	701.06000	 51.90	
 17.006	-58.063	 92.59496	 67.56251	  5.23549	 -3.52087	 78.66620	 -5.47531	105.29091	700.95001	 51.90	
 17.001	-52.301	 92.69211	 72.19511	  1.98533	 -0.51032	 74.58401	 -5.44990	105.18885	701.03003	 51.90	
 17.007	-46.454	 92.86133	 76.57873	 -1.04854	  2.36940	 69.98933	 -5.33248	105.25092	700.96997	 51.90	
 17.014	-40.657	 92.88111	 80.33128	 -3.75763	  5.99379	 64.86704	 -5.14633	105.21466	700.98999	 51.90	
 16.988	-34.839	 92.99670	 83.37526	 -5.88893	 10.20218	 59.73186	 -4.85702	105.16541	700.98999	 51.90	
 16.995	-29.081	 93.09201	 86.10754	 -7.85938	 14.76241	 54.40334	 -4.62911	105.24270	700.97998	 51.90	
 16.990	-23.241	 93.04751	 88.12675	 -9.42698	 20.40324	 49.29516	 -4.36959	105.21315	701.02002	 51.90	
 17.000	-17.404	 93.01777	 89.53915	-10.43708	 25.64708	 43.39235	 -4.23009	105.18571	701.01001	 51.90	
 17.009	-11.617	 92.97912	 90.35383	-10.90896	 30.65051	 37.85223	 -4.08683	105.19698	701.00000	 51.90	
 16.990	 -5.821	 92.97424	 90.54438	-10.94998	 35.88435	 32.75438	 -4.26773	105.21848	700.92999	 51.90	
 17.000	  0.000	 92.80235	 90.09274	-10.92874	 41.25642	 27.13351	 -4.42736	105.17577	700.94000	 51.90	
 16.990	  5.821	 92.83526	 89.04860	-10.11871	 47.01529	 21.32191	 -4.26564	105.25224	700.98999	 51.90	
 17.009	 11.617	 92.62722	 87.32471	 -9.12556	 52.49376	 16.17483	 -4.16843	105.18369	700.94000	 51.90	
 17.000	 17.404	 92.58728	 84.93914	 -7.49326	 57.97739	 11.57058	 -4.14791	105.22494	700.98999	 51.90	
 16.990	 23.241	 92.39204	 81.93711	 -5.51666	 63.16941	  7.22812	 -4.17153	105.16729	700.95001	 51.90	
 16.995	 29.081	 92.28093	 78.64199	 -3.21169	 68.26009	  3.21867	 -4.37300	105.25426	701.01001	 52.00	
 16.988	 34.839	 92.06119	 74.66815	 -0.50303	 72.82420	 -0.22198	 -4.36259	105.14336	701.03003	 52.00	
 17.014	 40.657	 91.81393	 70.25931	  2.50564	 77.10281	 -3.40135	 -4.44896	105.15125	700.96997	 52.00	
 17.007	 46.454	 91.66960	 65.44670	  6.01535	 80.83347	 -6.14109	 -4.58559	105.18219	700.89001	 52.00	
 17.001	 52.301	 91.48768	 60.28505	  9.94158	 84.19830	 -8.65428	 -4.70975	105.18756	700.92999	 52.00	
 17.006	 58.063	 91.27776	 55.06073	 14.08897	 86.98389	-10.60156	 -4.70604	105.21427	700.89001	 51.90	
 17.002	 63.866	 91.06068	 49.60582	 18.59212	 89.18535	-12.17924	 -4.75873	105.20400	700.83002	 51.90	
 17.001	 69.690	 90.81553	 43.89145	 23.58735	 90.77852	-13.46733	 -4.76800	105.22093	700.94000	 51.90	
 16.988	 75.483	 90.51654	 38.21735	 28.86904	 91.64732	-14.24192	 -4.80213	105.12325	700.98999	 51.90	
 17.012	 81.253	 90.25325	 33.16151	 33.38743	 92.10770	-14.82142	 -5.05337	105.10796	701.03003	 51.90	
 16.996	 87.091	 90.17128	 27.97229	 38.53264	 91.89340	-14.95830	 -5.16224	105.15847	700.97998	 51.90	
 16.996	 92.909	 90.05992	 21.91409	 43.99518	 91.06223	-14.24399	 -5.06664	105.15223	700.97998	 51.90	
 17.008	 98.662	 89.85086	 17.02344	 49.74326	 89.69987	-13.45265	 -5.09546	105.17986	700.94000	 52.00	
 16.988	104.517	 89.76102	 12.42750	 55.26705	 87.61423	-11.99402	 -5.01111	105.19917	701.04999	 51.90	
 17.001	110.310	 89.59977	  8.13667	 60.60500	 84.95571	-10.25679	 -4.91595	105.18660	700.98999	 51.90	
 17.002	116.134	 89.45532	  4.30029	 65.66033	 81.73618	 -7.97952	 -4.95724	105.19809	701.00000	 52.00	
 17.006	121.937	 89.26385	  0.59192	 70.65067	 78.00351	 -5.26239	 -5.03215	105.17040	700.96997	 51.90	
 17.001	127.699	 89.20149	 -2.80470	 75.31112	 73.86721	 -2.37104	 -5.01934	105.19672	701.04999	 51.90	
 17.007	133.546	 89.05064	 -5.99118	 79.43819	 69.19530	  0.72715	 -5.08936	105.19708	701.03003	 51.90	
 17.014	139.343	 88.83018	 -8.70463	 82.88432	 64.20480	  4.19266	 -5.15329	105.13127	701.09003	 51.90	
 16.988	145.161	 88.72242	-10.97970	 86.18810	 59.00818	  8.26534	 -5.07109	105.20506	701.12000	 52.00	
 16.995	150.919	 88.65540	-12.79220	 88.81417	 53.66787	 12.60125	 -5.00073	105.21733	701.04999	 51.90	
 16.990	156.759	 88.51955	-14.26330	 90.78461	 48.06562	 17.35346	 -5.04156	105.17102	700.98999	 52.00	
 17.000	162.596	 88.51141	-15.38393	 92.23566	 42.30174	 22.48999	 -5.04518	105.21102	701.08002	 51.90	
 17.009	168.383	 88.45248	-15.84910	 92.98335	 36.96414	 27.89606	 -4.91603	105.18503	701.16998	 51.90	
 16.990	174.179	 88.49171	-15.90353	 93.17004	 32.02066	 32.96765	 -4.57561	105.19702	701.01001	 51.90	
 18.709	174.675	 84.61494	-22.13332	 95.99519	 28.65665	 30.81540	 -4.52593	105.12782	701.08002	 51.90	
 18.703	169.441	 84.62823	-22.19443	 95.89996	 33.56847	 25.84043	 -4.96141	105.13856	701.04999	 51.90	
 18.691	164.085	 84.74319	-21.70821	 95.21593	 38.92419	 20.39147	 -5.05783	105.17801	701.06000	 51.90	
 18.706	158.818	 84.86282	-20.78619	 94.01468	 44.39318	 15.42378	 -5.02192	105.23138	701.02002	 51.90	
 18.695	153.537	 84.93826	-19.48233	 92.17680	 50.10619	 10.83158	 -5.12272	105.15511	701.08002	 52.00	
 18.704	148.255	 84.97826	-17.86451	 89.86764	 55.48328	  6.28694	 -5.15041	105.11090	701.03998	 52.00	
 18.698	142.952	 85.16428	-15.88317	 87.04239	 60.82780	  2.16640	 -5.23620	105.14148	701.00000	 52.00	
 18.699	137.625	 85.43397	-13.45701	 83.62208	 66.09245	 -1.63104	 -5.16783	105.19073	701.00000	 52.00	
 18.705	132.343	 85.61050	-10.78911	 79.97224	 71.04426	 -4.96403	 -5.13635	105.19835	700.91998	 52.00	
 18.713	127.067	 85.71703	 -7.86817	 75.86346	 75.64246	 -8.07765	 -5.08825	105.23394	701.06000	 52.00	
 18.700	121.794	 85.85190	 -4.40969	 71.11298	 79.75784	-10.84431	 -5.01672	105.21449	700.98999	 52.00	
 18.698	116.504	 86.07558	 -0.64993	 66.21848	 83.45131	-13.44366	 -4.98028	105.24144	701.01001	 52.00	
 18.707	111.165	 86.12361	  3.35999	 60.96790	 86.77058	-15.74347	 -4.98098	105.16857	701.01001	 52.00	
 18.690	105.863	 86.32026	  7.66556	 55.70121	 89.51947	-17.50421	 -5.05820	105.19726	700.98999	 52.00	
 18.696	100.583	 86.39333	 12.15218	 50.31623	 91.66631	-19.07340	 -5.08758	105.16402	700.95001	 52.00	
 18.700	 95.309	 86.56866	 16.67114	 44.62875	 93.33274	-20.07070	 -5.13936	105.17311	700.89001	 52.00	
 18.700	 90.000	 86.77242	 21.54626	 39.21304	 94.45266	-20.60930	 -5.28909	105.20610	700.96997	 52.00	
 18.700	 84.691	 86.81168	 27.41419	 33.65726	 95.01373	-21.10243	 -5.34747	105.16363	700.96997	 52.00	
 18.696	 79.417	 87.02927	 32.31855	 29.09693	 94.97522	-20.71850	 -5.17740	105.16584	700.95001	 52.00	
 18.690	 74.137	 87.20748	 37.45301	 24.01309	 94.41419	-20.19084	 -5.06890	105.14037	700.96002	 52.00	
 18.707	 68.835	 87.42296	 43.13125	 19.06761	 93.33282	-19.33461	 -5.09818	105.18645	701.03998	 52.00	
 18.698	 63.496	 87.66484	 49.07903	 14.29461	 91.69477	-18.06137	 -5.09226	105.19093	700.95001	 52.00	
 18.700	 58.206	 87.81472	 54.43723	  9.86191	 89.46810	-16.44799	 -5.10133	105.15961	701.10999	 52.00	
 18.713	 52.933	 88.01115	 59.79744	  5.70786	 86.74899	-14.59989	 -5.06787	105.15079	700.95001	 52.00	
 18.705	 47.657	 88.21912	 64.89534	  1.94082	 83.42592	-12.27598	 -4.90886	105.09437	701.02002	 52.10	
 18.699	 42.375	 88.47884	 69.79487	 -1.52180	 79.83862	 -9.62696	 -4.86619	105.12376	700.95001	 52.00	
 18.698	 37.048	 88.66962	 74.43576	 -4.65645	 75.62077	 -6.54724	 -4.70962	105.07294	701.07001	 52.00	
 18.704	 31.745	 88.89656	 78.58686	 -7.42908	 71.16212	 -3.24442	 -4.65076	105.10873	701.06000	 52.00	
 18.695	 26.463	 89.06196	 82.22667	 -9.96995	 66.22399	  0.38919	 -4.54803	105.11693	701.04999	 52.00	
 18.706	 21.182	 89.19109	 85.47571	-12.13012	 61.18930	  4.36794	 -4.53478	105.14239	701.03998	 52.00	
 18.691	 15.915	 89.35964	 88.22997	-13.84364	 55.95393	  8.73305	 -4.46841	105.15126	701.03998	 52.00	
 18.703	 10.559	 89.45564	 90.45597	-15.30874	 50.26755	 13.43119	 -4.44437	105.15923	701.01001	 52.00	
 18.709	  5.325	 89.62975	 92.12103	-16.37064	 44.79389	 18.29876	 -4.44223	105.21075	701.03003	 52.00	
 18.700	  0.000	 89.72510	 93.14473	-17.08634	 39.18336	 23.61921	 -4.52888	105.17585	701.01001	 52.00	
 18.709	 -5.325	 89.78053	 93.64852	-17.37885	 33.70541	 29.46049	 -4.64905	105.18006	700.96002	 52.00	
 18.703	-10.559	 89.78664	 93.47929	-17.19839	 28.91207	 34.59873	 -4.41231	105.11496	700.94000	 52.00	
 18.691	-15.915	 89.81886	 92.82638	-16.85688	 23.70323	 40.08089	 -4.40707	105.09393	700.91998	 52.00	
 18.706	-21.182	 89.84016	 91.62337	-15.91036	 17.80142	 45.60432	 -4.63280	105.11810	701.07001	 52.00	
 18.695	-26.463	 89.86999	 89.84058	-14.62790	 12.92994	 51.07366	 -4.78936	105.09330	700.97998	 52.00	
 18.704	-31.745	 89.86343	 87.54098	-12.96318	  8.37871	 56.51569	 -4.99072	105.14185	700.92999	 52.00	
 18.698	-37.048	 89.84016	 84.63250	-10.91076	  4.48708	 61.84496	 -5.14899	105.16430	700.97998	 52.00	
 18.699	-42.375	 89.67034	 81.16624	 -8.56157	  0.68785	 66.86592	 -5.33133	105.10143	701.04999	 52.00	
 18.705	-47.657	 89.54597	 77.34498	 -5.91885	 -2.88016	 71.85879	 -5.57376	105.09909	701.01001	 52.00	
 18.713	-52.933	 89.44080	 73.01757	 -2.93784	 -6.12616	 76.45174	 -5.68725	105.14730	701.03998	 52.00	
 18.700	-58.206	 89.23637	 68.13764	  0.44401	 -8.95596	 80.39391	 -5.78641	105.06059	701.02002	 52.00	
 18.698	-63.496	 89.14540	 63.22242	  4.10623	-11.49616	 83.86494	 -5.82849	105.16279	700.97998	 52.00	
 18.707	-68.835	 88.88291	 57.94406	  8.04373	-13.78538	 87.08383	 -5.90215	105.18304	700.96997	 52.00	
 18.690	-74.137	 88.64491	 52.31034	 12.41873	-15.66044	 89.64108	 -5.93779	105.12216	700.95001	 52.00	
 18.696	-79.417	 88.45341	 46.85789	 16.98081	-17.23750	 91.63885	 -5.89722	105.13483	700.98999	 52.00	
 18.700	-84.691	 88.20956	 41.16689	 21.66860	-18.47977	 93.05825	 -5.82241	105.12350	701.07001	 52.00	
 18.700	-90.000	 87.93657	 35.47003	 26.75522	-19.39744	 93.99493	 -5.80991	105.10853	701.12000	 52.00	
 18.700	-95.309	 87.68355	 30.07134	 32.09806	-19.86540	 94.38846	 -5.69776	105.12295	701.13000	 52.00	
 18.696	-100.583	 87.45130	 24.95134	 36.58731	-19.81725	 94.16166	 -5.36289	105.08568	700.98999	 52.00	
 18.690	-105.863	 87.20367	 19.68064	 41.90407	-19.40053	 93.35063	 -5.22934	105.04987	700.95001	 52.00	
 18.707	-111.165	 87.05293	 14.89760	 47.41613	-18.73935	 92.13377	 -5.03601	105.16586	700.97998	 52.00	
 18.698	-116.504	 86.79035	 10.26872	 53.39487	-17.56713	 90.23189	 -4.87513	105.09141	701.06000	 52.00	
 18.700	-121.794	 86.47675	  5.78061	 58.38666	-16.01805	 87.77524	 -4.76757	105.06774	701.03998	 52.00	
 18.713	-127.067	 86.30089	  1.56064	 63.57763	-14.15174	 84.75364	 -4.69891	105.08119	700.96997	 52.00	
 18.705	-132.343	 86.15923	 -2.28552	 68.55991	-11.84400	 81.35177	 -4.58877	105.04549	700.95001	 52.00	
 18.699	-137.625	 85.99313	 -5.93587	 73.50343	 -9.24234	 77.47211	 -4.44605	105.08562	700.85999	 52.00	
 18.698	-142.952	 85.86651	 -9.10275	 77.98236	 -6.21554	 73.15605	 -4.28986	105.14978	701.00000	 52.00	
 18.704	-148.255	 85.60561	-12.15065	 81.91752	 -3.02482	 68.24752	 -4.05972	105.06669	701.08002	 52.00	
 18.695	-153.537	 85.48705	-14.77559	 85.34511	  0.62454	 63.27616	 -3.94548	105.10506	701.03003	 52.00	
 18.706	-158.818	 85.21156	-17.05721	 88.49490	  4.53058	 57.99763	 -3.89399	105.03925	701.01001	 52.00	
 18.691	-164.085	 85.01901	-18.85450	 90.97485	  8.83912	 52.61697	 -3.90891	105.01320	700.94000	 52.00	
 18.703	-169.441	 84.85384	-20.29681	 93.04134	 13.42673	 46.78756	 -3.88245	104.97561	701.04999	 52.00	
 18.709	-174.675	 84.81344	-21.33843	 94.62218	 17.97814	 41.25162	 -3.93086	105.04714	701.03998	 52.00	
 18.700	180.000	 84.67236	-22.07196	 95.60855	 23.48856	 35.83469	 -4.01147	105.11159	701.08002	 52.00	
 20.400	180.000	 80.80246	-28.30435	 98.02154	 19.88066	 33.24332	 -3.85591	105.09820	700.97998	 52.00	
 20.401	-175.153	 80.81228	-27.55167	 97.08573	 15.00079	 38.80532	 -3.74156	105.02940	701.01001	 52.00	
 20.407	-170.264	 80.90706	-26.53545	 95.63552	 10.13936	 44.42844	 -3.70759	105.03291	700.97998	 52.10	
 20.410	-165.423	 81.02188	-25.31594	 93.64012	  5.64909	 50.21945	 -3.71679	105.06441	700.96997	 52.10	
 20.392	-160.496	 81.24078	-23.44088	 91.21983	  1.37578	 55.60726	 -3.71706	105.04108	700.87000	 52.10	
 20.401	-155.705	 81.46232	-21.43606	 88.35963	 -2.61849	 60.91081	 -3.73742	105.05150	701.08002	 52.10	
 20.405	-150.835	 81.68975	-18.99400	 84.91569	 -6.21151	 66.04499	 -3.82518	105.03377	701.09998	 52.10	
 20.397	-145.903	 81.90820	-16.31157	 81.31344	 -9.55532	 71.02774	 -3.90888	105.11691	700.98999	 52.10	
 20.392	-141.062	 82.04639	-13.40115	 77.17103	-12.58241	 75.66565	 -4.08148	105.03728	700.97998	 52.10	
 20.396	-136.227	 82.21294	-10.29530	 72.57486	-15.42655	 79.85075	 -4.21207	105.09221	700.90997	 52.10	
 20.408	-131.372	 82.28963	 -6.72115	 67.66966	-17.93898	 83.51857	 -4.41776	105.04027	700.91998	 52.10	
 20.410	-126.511	 82.47475	 -2.70635	 62.57863	-20.12388	 87.03580	 -4.58486	105.07327	700.91998	 52.10	
 20.400	-121.604	 82.66833	  1.48777	 57.33004	-21.91299	 90.02778	 -4.67476	105.14008	700.96002	 52.10	
 20.403	-116.741	 82.82141	  5.85416	 52.26174	-23.45599	 92.29414	 -4.75147	104.99729	700.91998	 52.10	
 20.413	-111.900	 83.07162	 10.51540	 46.43659	-24.69513	 94.31274	 -4.87301	105.05015	700.92999	 52.10	
 20.398	-107.004	 83.26364	 15.42124	 40.98258	-25.43449	 95.73625	 -5.02116	105.03754	701.02002	 52.10	
 20.394	-102.132	 83.44171	 20.29402	 35.48618	-25.77961	 96.65128	 -5.14423	105.08093	700.98999	 52.10	
 20.403	-97.332	 83.63673	 25.27515	 30.16160	-25.91892	 96.97092	 -5.38549	105.04698	700.95001	 52.10	
 20.392	-92.440	 83.85435	 30.08073	 25.86052	-25.66095	 96.81473	 -5.77238	105.01743	700.95001	 52.10	
 20.392	-87.560	 84.18973	 35.82363	 20.91046	-24.96071	 96.28925	 -5.77981	105.11214	700.95001	 52.10	
 20.403	-82.668	 84.36115	 41.44613	 16.04395	-23.97543	 95.10102	 -5.84017	105.02048	700.96997	 52.10	
 20.394	-77.868	 84.61958	 47.11721	 11.55533	-22.61230	 93.43040	 -5.95579	105.05546	700.97998	 52.10	
 20.398	-72.996	 84.92621	 52.59410	  7.14561	-21.04899	 91.36267	 -6.07248	105.08014	701.06000	 52.10	
 20.413	-68.100	 85.10533	 58.11727	  2.84634	-19.21513	 88.66385	 -6.05582	105.04478	700.98999	 52.10	
 20.403	-63.259	 85.41676	 63.38695	 -0.94152	-17.01845	 85.49277	 -5.93653	105.06043	701.02002	 52.10	
 20.400	-58.396	 85.60641	 68.34363	 -4.51062	-14.57869	 81.99902	 -5.73656	105.03279	701.01001	 52.10	
 20.410	-53.489	 85.76752	 73.30841	 -7.94011	-11.83235	 78.01840	 -5.57605	105.07992	701.02002	 52.10	
 20.408	-48.628	 85.91491	 77.72543	-10.93782	 -8.79706	 73.62936	 -5.45048	105.04665	701.08002	 52.10	
 20.396	-43.773	 86.03571	 81.67554	-13.59472	 -5.32835	 68.63293	 -5.26497	105.06615	701.03998	 52.10	
 20.392	-38.938	 86.22242	 85.23756	-15.86646	 -1.52758	 63.71290	 -5.06969	105.10094	701.04999	 52.10	
 20.397	-34.097	 86.28736	 88.40862	-17.94469	  2.46822	 58.47836	 -4.99479	105.10374	701.04999	 52.10	
 20.405	-29.165	 86.28194	 91.03857	-19.79369	  6.84183	 52.86712	 -4.91161	105.07806	700.96997	 52.20	
 20.401	-24.295	 86.25484	 93.02064	-21.14028	 11.09960	 47.59971	 -4.83720	104.97469	701.00000	 52.20	
 20.392	-19.504	 86.33178	 94.59853	-22.16733	 15.84688	 42.06170	 -4.73508	104.99907	700.47998	 52.20	
 20.410	-14.577	 86.27276	 95.74655	-23.02999	 20.93655	 36.33743	 -4.54742	105.08320	701.10999	 52.20	
 20.407	 -9.736	 86.15773	 96.15975	-23.34741	 26.49669	 31.01790	 -4.58022	104.96468	701.09003	 52.20	
 20.401	 -4.847	 86.14569	 96.21074	-23.47184	 31.48487	 25.72154	 -4.59516	105.04423	701.04999	 52.20	
 20.400	  0.000	 86.06830	 95.73663	-23.20002	 36.88118	 20.28612	 -4.39732	105.03348	700.95001	 52.20	
 20.401	  4.847	 85.97002	 94.68069	-22.52948	 42.39955	 15.24419	 -4.35254	105.06303	701.08002	 52.20	
 20.407	  9.736	 85.80270	 93.13032	-21.52942	 47.96972	 10.37354	 -4.35564	105.08530	701.03003	 52.20	
 20.410	 14.577	 85.63226	 91.08416	-20.26549	 53.49325	  5.71134	 -4.47591	105.07455	700.96997	 52.20	
 20.392	 19.504	 85.49395	 88.49829	-18.61254	 58.91106	  1.33952	 -3.98194	105.05832	700.22998	 52.20	
 20.401	 24.295	 85.39944	 85.50142	-16.69306	 63.99900	 -2.59871	 -3.95045	105.10811	700.44000	 52.20	
 20.405	 29.165	 85.19515	 82.02467	-14.42521	 68.90763	 -6.38820	 -3.90309	105.07188	700.97998	 52.20	
 20.397	 34.097	 85.02082	 78.12381	-11.78577	 73.82479	 -9.89795	 -3.94162	105.05902	700.97998	 52.20	
 20.392	 38.938	 84.81577	 73.86217	 -8.91264	 78.12243	-12.98001	 -4.00445	105.09135	701.07001	 52.20	
 20.396	 43.773	 84.53052	 69.03339	 -5.74830	 82.05076	-15.73987	 -4.04718	105.01485	701.07001	 52.30	
 20.408	 48.628	 84.35256	 64.16846	 -2.27991	 85.71848	-18.26115	 -4.12742	105.08404	701.06000	 52.30	
 20.410	 53.489	 84.05989	 58.98719	  1.40643	 88.87452	-20.46807	 -4.16935	105.01715	701.06000	 52.20	
 20.400	 58.396	 83.93572	 53.52807	  5.58045	 91.63981	-22.33772	 -4.24346	105.07352	701.01001	 52.30	
 20.403	 63.259	 83.70947	 48.08637	  9.87957	 93.79221	-23.86020	 -4.27844	105.03793	701.01001	 52.30	
 20.413	 68.100	 83.46444	 42.29773	 14.42665	 95.48915	-25.15479	 -4.27976	104.99768	701.09003	 52.30	
 20.398	 72.996	 83.31168	 36.60084	 19.36817	 96.66906	-26.02016	 -4.25551	104.99648	701.04999	 52.30	
 20.394	 77.868	 83.12859	 30.99162	 24.28240	 97.33510	-26.57235	 -4.17166	105.00555	701.00000	 52.30	
 20.403	 82.668	 82.92308	 26.58314	 28.01832	 97.50179	-26.95507	 -4.39022	104.99323	701.02002	 52.30	
 20.392	 87.560	 82.79195	 21.09645	 33.76130	 97.24651	-26.93695	 -4.15410	104.99957	701.09003	 52.30	
 20.392	 92.440	 82.71456	 16.27734	 39.39175	 96.49119	-26.55986	 -3.99870	105.07471	700.98999	 52.30	
 20.403	 97.332	 82.55029	 11.30518	 44.89457	 95.16805	-25.80814	 -3.85521	105.05466	700.95001	 52.30	
 20.394	102.132	 82.34081	  6.68990	 50.43777	 93.25754	-24.63864	 -3.81051	104.99121	700.98999	 52.30	
 20.398	107.004	 82.27729	  2.36938	 55.72077	 90.98912	-23.02424	 -3.83872	105.05834	701.02002	 52.30	
 20.413	111.900	 82.10201	 -1.88892	 61.03450	 88.12342	-21.20781	 -3.77763	105.03404	700.96997	 52.30	
 20.403	116.741	 82.00962	 -5.80048	 66.18725	 84.83110	-19.05062	 -3.80996	105.02556	700.96997	 52.30	
 20.400	121.604	 81.88094	 -9.33429	 70.93958	 81.12337	-16.54926	 -3.68393	105.02078	700.96002	 52.30	
 20.410	126.511	 81.79232	-12.63725	 75.89930	 76.93134	-13.80070	 -3.64103	105.05303	700.97998	 52.30	
 20.408	131.372	 81.70770	-15.55515	 80.13271	 72.38197	-10.81638	 -3.74497	105.05183	700.96002	 52.30	
 20.396	136.227	 81.58494	-18.23703	 83.91024	 67.45858	 -7.53476	 -3.77155	105.03519	700.96002	 52.30	
 20.392	141.062	 81.36857	-20.58807	 87.35407	 62.42190	 -4.03267	 -3.80496	104.95216	700.92999	 52.30	
 20.397	145.903	 81.23582	-22.73292	 90.49361	 57.22115	 -0.17431	 -3.81379	105.06232	700.95001	 52.30	
 20.405	150.835	 81.08562	-24.52298	 93.03806	 51.83425	  4.07221	 -3.74976	105.05686	700.98999	 52.30	
 20.401	155.705	 80.86526	-26.02587	 95.09968	 46.05989	  8.55795	 -3.61456	105.00027	700.98999	 52.30	
 20.392	160.496	 80.79946	-27.19737	 96.68689	 40.73283	 13.24208	 -3.49072	105.02736	700.94000	 52.30	
 20.410	165.423	 80.69395	-29.13490	 97.73026	 35.24513	 18.23836	 -3.35720	104.99449	701.02002	 52.30	
 20.407	170.264	 80.64667	-28.50133	 98.31079	 29.54854	 23.39441	 -3.46208	105.04158	700.98999	 52.40	
 20.401	175.153	 80.66492	-28.30241	 98.28629	 24.57256	 28.03079	 -2.97620	104.96227	700.96002	 52.40	
  0.141	 45.000	105.31956	 44.33345	 48.81850	 47.07620	 44.91051	  2.82380	105.02615	700.98999	 52.40	
  4.001	128.691	104.57523	 33.77294	 57.65321	 54.88594	 35.28110	  2.32509	105.00544	701.06000	 52.40	
  4.002	 76.995	104.78532	 44.64455	 46.82730	 59.24129	 31.54047	  2.49659	104.95651	701.20001	 52.40	
  4.002	 25.892	105.02430	 54.52334	 37.31519	 53.29546	 37.25028	  2.64336	104.91714	701.04999	 52.40	
  4.002	-25.892	105.12630	 56.02697	 36.13225	 42.04279	 48.90599	  2.51196	104.97136	700.96002	 52.40	
  4.002	-76.995	105.03089	 47.75066	 44.01471	 34.03316	 57.07542	  2.33989	104.95970	700.90997	 52.40	
  4.001	-128.691	104.72137	 36.47275	 55.23535	 34.84890	 55.67109	  2.27773	104.95798	700.87000	 52.40	
  4.000	180.000	104.47016	 30.30674	 61.34437	 43.88849	 45.99755	  2.32638	104.99323	700.96002	 52.40	
  8.000	180.000	101.66492	 16.07382	 72.81116	 40.13450	 45.10262	  1.11296	104.94417	700.87000	 52.40	
  7.991	-152.370	101.98094	 20.39035	 68.38372	 28.87120	 57.22670	  1.19797	104.94424	700.97998	 52.40	
  7.997	-124.550	102.41673	 29.19509	 58.31421	 21.65129	 66.47742	  0.95291	104.92278	701.01001	 52.40	
  8.006	-96.837	102.82745	 41.27596	 46.02102	 19.01610	 70.07692	  0.81973	104.93011	700.82001	 52.40	
  7.988	-69.228	103.26407	 53.52243	 34.33091	 21.75081	 67.06440	  1.07551	104.93974	700.90002	 52.40	
  7.997	-41.563	103.55343	 63.59795	 25.90254	 29.45662	 57.89429	  1.08607	104.96887	700.90002	 52.30	
  8.008	-13.821	103.61340	 68.78738	 22.04209	 41.14374	 45.64988	  1.28525	104.95033	700.90002	 52.30	
  8.008	 13.821	103.41084	 67.02684	 23.17737	 53.66586	 33.02440	  1.55195	104.91820	700.90997	 52.30	
  7.997	 41.563	103.08736	 59.04694	 29.13127	 64.56805	 23.78535	  1.10671	104.93983	700.88000	 52.30	
  7.988	 69.228	102.64579	 47.50505	 39.31667	 70.35416	 18.53106	  1.19169	104.94424	700.91998	 52.30	
  8.006	 96.837	102.26275	 34.81170	 51.85113	 70.17094	 18.52711	  0.92423	104.95934	700.98999	 52.30	
  7.997	124.550	101.95353	 24.40634	 63.38318	 63.73596	 23.67229	  0.87068	104.99493	700.84998	 52.30	
  7.991	152.370	101.63824	 17.47241	 71.16204	 52.48483	 32.89057	  1.01764	104.87728	700.91998	 52.30	
 12.009	161.059	 96.87943	  2.14607	 81.89960	 47.55068	 30.41267	 -1.96264	104.93011	700.94000	 52.30	
 12.013	142.081	 97.13239	  6.11665	 76.88349	 60.11843	 19.51354	 -1.92161	104.96703	700.97998	 52.30	
 12.006	123.113	 97.50615	 13.31226	 67.83475	 70.98407	 10.64478	 -2.02858	105.01691	700.95001	 52.30	
 12.007	104.200	 97.85723	 24.23613	 56.11087	 78.37412	  5.17943	 -2.01293	105.06432	701.06000	 52.30	
 11.989	 85.301	 98.19073	 35.99039	 43.23737	 81.32436	  3.23013	 -0.96310	104.98488	701.03003	 52.30	
 12.013	 66.294	 98.59834	 49.11541	 31.20680	 79.81342	  4.71276	 -1.52926	104.97900	700.97998	 52.30	
 12.012	 47.388	 99.14481	 61.30602	 21.14213	 73.86709	  9.41974	 -1.05913	105.01617	701.01001	 52.30	
 11.990	 28.440	 99.56796	 71.33506	 12.82984	 64.30193	 17.68713	 -0.97710	104.98230	700.94000	 52.30	
 11.991	  9.464	 99.92873	 77.74093	  8.17185	 52.24820	 28.69881	 -0.69478	105.01834	700.94000	 52.30	
 11.991	 -9.464	100.09955	 79.30980	  7.17236	 39.11460	 40.80452	 -0.48906	104.92973	700.94000	 52.30	
 11.990	-28.440	100.12199	 76.41197	  9.54494	 26.85943	 54.04827	 -1.21605	104.96680	700.84998	 52.30	
 12.012	-47.388	 99.91106	 69.11095	 15.12399	 17.12194	 65.82112	 -1.60404	104.98615	700.89001	 52.30	
 12.013	-66.294	 99.58566	 58.10225	 24.37243	  9.44019	 74.79025	 -1.48336	104.94997	701.12000	 52.30	
 11.989	-85.301	 99.16389	 45.63101	 35.02552	  5.47337	 79.51169	 -1.74157	104.95267	700.92999	 52.30	
 12.007	-104.200	 98.58699	 32.62724	 47.33010	  4.29623	 79.81821	 -1.77098	104.92256	701.04999	 52.30	
 12.006	-123.113	 98.10127	 21.20737	 59.84016	  7.48510	 75.75117	 -1.66232	104.93964	700.96997	 52.30	
 12.013	-142.081	 97.61548	 10.97339	 71.09092	 14.42800	 67.33162	 -1.72213	104.95127	700.97998	 52.30	
 12.009	-161.059	 97.23029	  4.68483	 78.93017	 23.58244	 55.74267	 -1.27427	104.93031	700.94000	 52.30	
 16.000	180.000	 90.19330	-12.23187	 90.90553	 28.66201	 38.99606	 -2.80855	104.95008	700.96997	 52.30	
 15.990	-165.604	 90.46143	-10.11321	 87.61684	 16.81352	 52.06026	 -2.74475	104.91425	700.96002	 52.30	
 16.002	-151.165	 90.79836	 -5.14866	 80.92816	  6.36784	 64.38381	 -3.02475	104.90948	700.89001	 52.30	
 16.002	-136.836	 91.31079	  2.47306	 71.42661	 -1.25492	 75.35059	 -3.41185	104.92538	701.01001	 52.30	
 15.995	-122.439	 91.86968	 11.48178	 59.60946	 -6.31804	 83.23798	 -3.47172	104.95081	701.06000	 52.30	
 15.993	-107.966	 92.34447	 23.13022	 46.87041	 -9.37006	 88.08802	 -3.76767	104.93003	700.92999	 52.30	
 16.005	-93.629	 92.78300	 35.41072	 34.87946	 -9.95205	 89.32607	 -3.96280	104.99479	700.96002	 52.30	
 15.992	-79.234	 93.34269	 48.66809	 22.88765	 -8.06614	 86.93546	 -3.88700	104.99120	700.88000	 52.30	
 16.009	-64.774	 93.85989	 61.34558	 12.36212	 -4.02636	 80.89380	 -3.67018	105.01431	700.91998	 52.30	
 15.997	-50.364	 94.31766	 72.61745	  4.02765	  2.78979	 72.06573	 -3.76858	104.99115	700.94000	 52.30	
 15.997	-36.045	 94.51045	 81.07763	 -2.02255	 11.88443	 60.56303	 -3.57419	104.98145	700.87000	 52.30	
 16.000	-21.597	 94.55294	 86.53242	 -6.11925	 23.95366	 48.25290	 -3.07614	104.98215	700.90002	 52.30	
 16.003	 -7.169	 94.52423	 88.41933	 -7.20209	 35.98409	 35.15574	 -2.84591	104.96161	700.89001	 52.30	
 16.003	  7.169	 94.22543	 86.61004	 -6.34616	 48.80229	 22.45543	 -3.36723	104.92567	701.02002	 52.30	
 16.000	 21.597	 93.87620	 81.21155	 -2.76700	 61.51822	 10.85098	 -3.10742	104.96645	700.96997	 52.40	
 15.997	 36.045	 93.45977	 72.66924	  3.19952	 72.81197	  1.99632	 -2.95461	104.91096	700.92999	 52.40	
 15.997	 50.364	 93.01653	 61.53517	 11.38511	 81.60539	 -4.60553	 -3.06782	104.94884	700.82001	 52.40	
 16.009	 64.774	 92.64576	 49.12408	 21.66437	 87.61339	 -8.96385	 -3.22176	105.00365	700.90997	 52.40	
 15.992	 79.234	 92.06927	 36.02229	 33.41777	 89.93526	-10.90116	 -3.34729	104.90099	700.85999	 52.40	
 16.005	 93.629	 91.68683	 23.31986	 45.63944	 88.95003	-10.70971	 -3.65131	104.87955	700.92999	 52.40	
 15.993	107.966	 91.34523	 11.97597	 58.59211	 84.34078	 -7.48467	 -3.64285	104.92244	700.84998	 52.40	
 15.995	122.439	 90.99483	  2.99481	 70.46752	 76.50516	 -1.90322	 -3.58628	104.97299	700.82001	 52.40	
 16.002	136.836	 90.78335	 -4.28004	 80.34342	 65.98031	  5.37293	 -3.57742	105.04179	700.76001	 52.40	
 16.002	151.165	 90.40237	 -9.35745	 87.24225	 53.73198	 15.05103	 -3.49670	105.02626	700.88000	 52.40	
 15.990	165.604	 90.21857	-12.01419	 90.78289	 40.59567	 27.10068	 -3.43953	104.99940	700.87000	 52.40	
 20.003	168.362	 81.58891	-27.11127	 97.53739	 32.46197	 22.11059	 -3.57281	104.95077	700.87000	 52.40	
 20.008	156.764	 81.78863	-24.91047	 95.02013	 45.24226	 10.52400	 -3.67060	105.04290	700.97998	 52.40	
 20.000	145.147	 82.15985	-21.00803	 89.51779	 58.20131	  0.30004	 -3.86907	104.94859	700.94000	 52.40	
 19.995	133.545	 82.48867	-15.55464	 81.63187	 70.06837	 -8.22082	 -3.83173	104.98219	700.89001	 52.40	
 20.009	121.926	 82.72865	 -8.41330	 71.25517	 80.55767	-15.07642	 -3.72628	105.00040	700.91998	 52.40	
 20.005	110.327	 83.03809	  0.57998	 59.52342	 88.64593	-20.44211	 -3.73341	105.02224	700.95001	 52.40	
 19.989	 98.733	 83.41570	 10.93497	 46.91452	 94.05263	-24.01936	 -3.74556	105.00689	700.88000	 52.50	
 19.999	 87.075	 83.73243	 22.30669	 33.92340	 96.70463	-25.48396	 -4.04486	104.99501	700.88000	 52.40	
 19.992	 75.457	 84.12564	 34.38249	 22.66475	 96.51313	-24.93504	 -4.03678	104.99932	700.83002	 52.40	
 20.009	 63.844	 84.52884	 47.66731	 11.39437	 93.45388	-22.62231	 -4.09546	104.97573	700.83002	 52.50	
 19.989	 52.269	 85.09892	 60.36118	  1.60393	 87.68195	-18.55980	 -4.01916	105.00343	700.87000	 52.50	
 19.999	 40.602	 85.64062	 72.04239	 -6.62750	 79.18739	-12.66661	 -3.90667	104.98144	700.91998	 52.50	
 20.004	 29.051	 86.05569	 81.72695	-13.13183	 68.62088	 -5.08123	 -3.78623	104.98586	700.84003	 52.50	
 20.005	 17.433	 86.44507	 89.10745	-17.95016	 56.79363	  4.21381	 -3.88389	105.01711	700.81000	 52.50	
 20.006	  5.780	 86.75826	 93.81286	-20.93885	 43.78281	 15.16983	 -3.79289	104.99976	700.75000	 52.40	
 20.006	 -5.780	 86.95313	 95.59067	-22.14808	 31.04819	 27.61942	 -4.02102	104.95770	700.95001	 52.40	
 20.005	-17.433	 87.17434	 94.54783	-21.16792	 18.70828	 40.18961	 -3.94371	105.03082	700.78003	 52.40	
 20.004	-29.051	 87.06686	 90.52038	-18.47407	  7.89070	 52.89134	 -4.18138	105.00668	700.78998	 52.50	
 19.999	-40.602	 86.96806	 83.63731	-13.80393	 -1.73104	 65.30521	 -4.35590	105.01994	700.82001	 52.50	
 19.989	-52.269	 86.72198	 74.26731	 -7.38478	 -9.70423	 76.64227	 -4.64594	105.00414	700.92999	 52.50	
 20.009	-63.844	 86.22825	 62.77975	  0.64564	-15.90644	 85.39529	 -4.90992	104.96974	700.78003	 52.40	
 19.992	-75.457	 85.72379	 50.22098	 10.38048	-20.42354	 91.87062	 -4.97232	105.02431	700.83002	 52.50	
 19.999	-87.075	 85.05397	 36.84078	 21.19811	-23.51860	 95.49308	 -4.87606	104.95761	700.08002	 52.40	
 19.989	-98.733	 84.49444	 24.60764	 32.37460	-24.39187	 96.24020	 -4.58034	104.96277	700.71997	 52.40	
 20.005	-110.327	 83.97572	 12.91240	 45.07858	-23.58091	 94.22216	 -4.19834	105.01359	700.81000	 52.50	
 20.009	-121.926	 83.45444	  2.24559	 57.85125	-20.43623	 89.27541	 -4.01803	104.99220	700.73999	 52.50	
 19.995	-133.545	 83.11122	 -7.07697	 69.73926	-15.53400	 81.60591	 -3.74754	104.97025	700.84003	 52.50	
 20.000	-145.147	 82.71616	-14.57647	 80.38699	 -8.80334	 71.55740	 -3.33796	104.96653	700.71997	 52.50	
 20.008	-156.764	 82.27628	-20.62848	 88.65864	 -0.65269	 59.80235	 -3.06446	105.00555	700.90997	 52.50	
 20.003	-168.362	 81.83217	-24.64265	 94.35205	  9.31609	 46.93477	 -2.88575	104.95066	700.88000	 52.50	
 20.000	180.000	 81.61402	-26.90826	 97.35960	 20.57034	 33.69786	 -2.92591	104.94174	700.81000	 52.50	
