FileType=PCF
NHL=14
Date=08/24/17	09:07:28
Facility=APL
Serial=16328-2
Customer=NASA
NP=6
Mach=0.250000
Calibration=1:1
CalPts=490
TstPts=95
PortNumbering=AP Standard
Units=Torr C m/s kg/m^3 deg mm 
Theta[deg]	Phi[deg]	P1[Torr]	P2[Torr]	P3[Torr]	P4[Torr]	P5[Torr]	P6[Torr]	Pt[Torr]	Ps[Abs,Torr]	Ts[C]	
  0.000	  0.000	 30.16400	 14.67430	 15.36062	 15.53344	 15.72637	  0.47539	 30.13609	704.52301	 23.40	
  1.691	128.401	 30.19369	 14.32117	 16.30631	 16.77562	 14.41870	  0.45679	 30.16490	704.42700	 23.40	
  1.692	 77.194	 30.16227	 14.94199	 14.91843	 17.06903	 14.05812	  0.46769	 30.13336	704.42102	 23.40	
  1.699	 26.182	 30.16876	 15.71251	 13.82810	 16.20623	 14.96216	  0.46397	 30.14256	704.46997	 23.40	
  1.699	-26.182	 30.14626	 15.84782	 13.84394	 14.74466	 16.40140	  0.44801	 30.11893	704.48297	 23.40	
  1.692	-77.194	 30.14007	 15.53053	 14.96286	 13.87862	 17.24287	  0.45408	 30.11133	704.56897	 23.40	
  1.691	-128.401	 30.13564	 14.73262	 16.32006	 14.19526	 16.94568	  0.44866	 30.10508	704.48401	 23.30	
  1.700	180.000	 30.18677	 14.19411	 16.96372	 15.48346	 15.71859	  0.47008	 30.15432	704.45001	 23.30	
  3.400	180.000	 30.13255	 12.64380	 18.59146	 15.35840	 15.59843	  0.40435	 30.14448	704.55701	 23.30	
  3.388	-152.325	 30.15564	 12.44484	 18.26422	 13.85289	 17.09340	  0.39463	 30.16967	704.42700	 23.30	
  3.397	-124.529	 30.11474	 13.12209	 17.06708	 12.58190	 18.38104	  0.38728	 30.12931	704.35101	 23.30	
  3.399	-96.763	 30.10689	 14.54776	 15.61420	 12.01047	 18.92853	  0.38063	 30.13500	704.35699	 23.30	
  3.394	-69.283	 30.12947	 15.48873	 14.06964	 12.19072	 18.75873	  0.37912	 30.15617	704.49200	 23.30	
  3.400	-41.398	 30.09368	 16.67802	 12.62118	 13.11687	 17.70680	  0.38371	 30.11787	704.48999	 23.30	
  3.401	-14.021	 30.11409	 17.35598	 11.93281	 14.54847	 16.37289	  0.39017	 30.14469	704.51099	 23.30	
  3.401	 14.021	 30.10704	 17.45297	 11.91191	 16.13526	 14.77647	  0.39637	 30.13820	704.27197	 23.30	
  3.400	 41.398	 30.11010	 17.43931	 12.57317	 17.59592	 13.28175	  0.41105	 30.14625	704.38501	 23.30	
  3.394	 69.283	 30.06413	 16.72333	 13.92618	 18.50199	 12.39875	  0.42577	 30.09291	704.39600	 23.30	
  3.399	 96.763	 30.11052	 15.15449	 15.48953	 18.72116	 12.23394	  0.41713	 30.13119	704.32397	 23.30	
  3.397	124.529	 30.10577	 13.59911	 16.97208	 18.17171	 12.75813	  0.41683	 30.12247	704.46100	 23.30	
  3.388	152.325	 30.13157	 12.69937	 18.19590	 16.85964	 14.05062	  0.40457	 30.14372	704.31702	 23.30	
  5.099	161.165	 29.95363	 11.20643	 19.68262	 16.70107	 13.68719	  0.30751	 30.11248	704.42401	 23.30	
  5.109	142.013	 29.97324	 11.30135	 18.92413	 18.28399	 12.25948	  0.27563	 30.13178	704.40698	 23.20	
  5.095	123.033	 29.99472	 12.32177	 17.57634	 19.35604	 11.29309	  0.31908	 30.14292	704.28198	 23.20	
  5.105	104.191	 29.93416	 13.64312	 16.05131	 19.95494	 10.67882	  0.30801	 30.10254	704.30603	 23.20	
  5.093	 85.207	 29.92725	 15.35957	 14.43992	 20.06499	 10.54805	  0.32152	 30.11205	704.42102	 23.20	
  5.104	 66.290	 29.93277	 16.43457	 12.75048	 19.69180	 10.90940	  0.31421	 30.11351	704.47601	 23.20	
  5.094	 47.331	 29.90924	 16.84280	 11.52454	 18.80618	 11.72195	  0.29658	 30.10591	704.41302	 23.20	
  5.089	 28.397	 29.94352	 17.58673	 10.67052	 17.47675	 12.89151	  0.29614	 30.13906	704.36603	 23.20	
  5.096	  9.576	 29.91111	 18.11614	 10.17978	 15.90588	 14.52340	  0.28785	 30.10280	704.46997	 23.20	
  5.096	 -9.576	 29.91817	 18.20517	 10.18406	 14.29385	 16.15055	  0.26979	 30.10958	704.45203	 23.20	
  5.089	-28.397	 29.93458	 18.23457	 10.69150	 12.65468	 17.63086	  0.23942	 30.12533	704.41400	 23.20	
  5.094	-47.331	 29.97471	 18.24775	 11.63264	 11.46834	 19.10233	  0.18438	 30.15720	704.38000	 23.20	
  5.104	-66.290	 29.91199	 17.62473	 12.87221	 10.64951	 19.92782	  0.25096	 30.09095	704.36603	 23.20	
  5.093	-85.207	 29.93123	 15.62081	 14.59264	 10.29238	 20.30988	  0.25511	 30.10509	704.32397	 23.20	
  5.105	-104.191	 29.91748	 13.92330	 16.19208	 10.39679	 20.18666	  0.25694	 30.08225	704.42999	 23.20	
  5.095	-123.033	 29.96367	 12.49452	 17.68642	 11.01335	 19.60261	  0.27146	 30.13106	704.32599	 23.20	
  5.109	-142.013	 29.95333	 11.63072	 19.00849	 12.01298	 18.52037	  0.26904	 30.12296	704.40503	 23.20	
  5.099	-161.165	 29.91818	 10.94376	 19.72658	 13.49133	 16.90917	  0.29626	 30.07846	704.42700	 23.20	
  5.100	180.000	 29.96664	 10.65026	 19.97394	 15.12415	 15.36773	  0.30543	 30.12340	704.25500	 23.20	
  6.800	180.000	 29.68693	  9.29905	 21.21945	 14.80823	 15.04687	  0.14019	 30.10691	704.43903	 23.20	
  6.796	-166.229	 29.63002	  8.97260	 21.00622	 13.14067	 16.56294	  0.01484	 30.05490	704.46100	 23.20	
  6.808	-152.311	 29.68117	  9.16500	 20.56870	 11.70799	 18.19959	  0.02296	 30.10939	704.42999	 23.20	
  6.795	-138.383	 29.67922	  9.89576	 19.69501	 10.50854	 19.52088	 -0.00156	 30.11065	704.26703	 23.20	
  6.792	-124.591	 29.68406	 10.97958	 18.55166	  9.56188	 20.55470	 -0.02614	 30.12323	704.41101	 23.20	
  6.787	-110.754	 29.66673	 12.24181	 17.02298	  8.91636	 21.23724	 -0.02892	 30.10493	704.36200	 23.20	
  6.800	-96.985	 29.65450	 13.60061	 15.50315	  8.58685	 21.50047	 -0.05964	 30.09252	704.34003	 23.20	
  6.800	-83.015	 29.66176	 15.34027	 13.83703	  8.58980	 21.49707	  0.01364	 30.10676	704.41602	 23.20	
  6.787	-69.246	 29.65661	 16.47174	 12.26887	  8.92650	 21.10140	 -0.06798	 30.09936	704.37701	 23.20	
  6.792	-55.409	 29.63554	 17.87218	 10.96986	  9.54377	 20.51992	 -0.05058	 30.08456	704.27197	 23.20	
  6.795	-41.617	 29.64323	 18.18253	  9.92832	 10.46732	 19.51907	 -0.04804	 30.10695	704.35498	 23.20	
  6.808	-27.689	 29.63447	 18.57886	  9.08036	 11.63984	 18.18266	 -0.03541	 30.10587	704.35498	 23.20	
  6.796	-13.771	 29.63583	 18.79238	  8.59172	 13.15074	 16.58512	  0.02244	 30.09308	704.37402	 23.20	
  6.800	  0.000	 29.65843	 18.83828	  8.41151	 14.78222	 15.04079	  0.13549	 30.12651	704.42102	 23.20	
  6.796	 13.771	 29.62794	 18.87431	  8.55987	 16.33503	 13.35488	  0.09419	 30.10520	704.49200	 23.20	
  6.808	 27.689	 29.62807	 18.84675	  9.01077	 17.89388	 11.93066	  0.03330	 30.10696	704.45203	 23.20	
  6.795	 41.617	 29.60898	 18.81315	  9.77016	 19.19495	 10.73762	  0.05227	 30.08900	704.34003	 23.10	
  6.792	 55.409	 29.56893	 18.77687	 10.80414	 20.20788	  9.75212	  0.11950	 30.04891	704.34497	 23.10	
  6.787	 69.246	 29.65922	 18.72623	 12.13059	 20.99337	  9.11966	  0.07663	 30.12620	704.37701	 23.10	
  6.800	 83.015	 29.63523	 16.11367	 13.60817	 21.25807	  8.79438	  0.08893	 30.09232	704.41901	 23.10	
  6.800	 96.985	 29.66566	 14.00538	 15.30407	 21.26391	  8.84954	  0.17979	 30.11072	704.29498	 23.10	
  6.787	110.754	 29.69159	 12.48790	 16.85526	 20.86247	  9.22456	  0.04376	 30.10925	704.34900	 23.10	
  6.792	124.591	 29.68372	 11.21212	 18.38921	 20.27650	  9.84599	  0.06664	 30.09680	704.42200	 23.10	
  6.795	138.383	 29.67656	 10.15242	 19.55607	 19.24709	 10.78677	  0.03597	 30.07862	704.50000	 23.10	
  6.808	152.311	 29.66466	  9.28744	 20.48370	 17.95105	 11.95469	  0.04969	 30.07058	704.60498	 23.10	
  6.796	166.229	 29.69417	  8.79703	 20.99281	 16.38789	 13.33628	  0.04398	 30.10077	704.42798	 23.10	
  8.491	168.704	 29.29956	  6.90735	 22.33633	 16.06318	 12.93333	 -0.16015	 30.09354	704.32898	 23.10	
  8.502	157.493	 29.29162	  7.28911	 21.82420	 17.55867	 11.47214	 -0.15176	 30.07367	704.45502	 23.10	
  8.494	146.194	 29.28786	  7.99406	 20.98516	 19.08193	 10.20160	 -0.16116	 30.06983	704.43103	 23.10	
  8.495	135.039	 29.29618	  8.93580	 20.04232	 20.29819	  9.08339	 -0.19122	 30.07278	704.36902	 23.10	
  8.487	123.723	 29.28557	 10.09843	 18.77712	 21.29960	  8.13647	 -0.19702	 30.07127	704.41101	 23.10	
  8.492	112.575	 29.28446	 11.39158	 17.24829	 21.95146	  7.51103	 -0.20425	 30.08255	704.48297	 23.10	
  8.510	101.220	 29.30450	 12.81906	 15.70629	 22.46370	  7.10525	 -0.21783	 30.10666	704.27502	 23.10	
  8.500	 90.000	 29.26903	 14.47066	 14.01655	 22.58201	  6.95858	 -0.18631	 30.09412	704.43103	 23.10	
  8.510	 78.780	 29.24230	 16.13404	 12.36312	 22.41362	  7.09593	 -0.16254	 30.07906	704.32098	 23.10	
  8.492	 67.425	 29.22587	 17.64616	 10.93949	 21.92509	  7.46596	 -0.15032	 30.08084	704.39600	 23.10	
  8.487	 56.277	 29.19699	 19.16440	  9.67392	 21.12983	  8.09959	 -0.14466	 30.06434	704.41400	 23.10	
  8.495	 44.961	 29.19925	 20.41103	  8.54023	 20.22344	  9.05257	 -0.14961	 30.07858	704.41400	 23.10	
  8.494	 33.806	 29.20241	 21.38054	  7.66876	 18.98210	 10.23322	 -0.16266	 30.08362	704.51501	 23.10	
  8.502	 22.507	 29.20867	 22.04608	  7.05456	 17.49736	 11.47043	 -0.20775	 30.08718	704.39600	 23.10	
  8.491	 11.296	 29.24747	 22.52594	  6.69730	 16.01903	 12.89556	 -0.24634	 30.11274	704.44501	 23.10	
  8.500	  0.000	 29.24089	 22.66301	  6.55478	 14.36867	 14.54272	 -0.24259	 30.10352	704.53101	 23.00	
  8.491	-11.296	 29.22431	 22.46213	  6.72562	 12.60364	 16.27277	 -0.23814	 30.08455	704.48602	 23.00	
  8.502	-22.507	 29.23432	 21.97930	  7.11480	 11.22510	 17.80173	 -0.25840	 30.09857	704.46698	 23.00	
  8.494	-33.806	 29.22419	 21.27596	  7.79601	  9.91721	 19.31645	 -0.28440	 30.07558	704.39697	 23.00	
  8.495	-44.961	 29.23101	 20.26949	  8.72542	  8.77936	 20.51959	 -0.30317	 30.08185	704.58801	 23.00	
  8.487	-56.277	 29.25674	 19.01017	  9.89610	  7.89169	 21.46195	 -0.31343	 30.08938	704.48700	 23.00	
  8.492	-67.425	 29.26801	 17.49938	 11.16265	  7.25537	 22.19582	 -0.33917	 30.10099	704.44501	 23.00	
  8.510	-78.780	 29.23915	 15.89683	 12.56950	  6.83773	 22.66294	 -0.35608	 30.07180	704.32599	 23.00	
  8.500	-90.000	 29.24198	 14.19050	 14.27574	  6.69349	 22.82364	 -0.35314	 30.07182	704.29602	 23.00	
  8.510	-101.220	 29.23972	 12.54327	 15.92106	  6.79997	 22.68531	 -0.32141	 30.06702	704.40503	 23.10	
  8.492	-112.575	 29.26450	 11.19068	 17.48036	  7.20714	 22.21773	 -0.26611	 30.08978	704.48602	 23.10	
  8.487	-123.723	 29.26751	  9.89934	 18.98122	  7.87898	 21.44018	 -0.24862	 30.09055	704.46899	 23.10	
  8.495	-135.039	 29.26151	  8.73794	 20.09296	  8.77864	 20.54105	 -0.22425	 30.07888	704.47803	 23.10	
  8.494	-146.194	 29.27285	  7.83944	 21.12322	  9.95699	 19.34261	 -0.19424	 30.08989	704.35999	 23.10	
  8.502	-157.493	 29.28026	  7.16845	 21.92644	 11.29008	 17.74114	 -0.18621	 30.09017	704.58002	 23.10	
  8.491	-168.704	 29.26495	  6.83851	 22.35625	 12.68605	 16.23238	 -0.20659	 30.05867	704.51099	 23.10	
  8.500	180.000	 29.28188	  6.71608	 22.51832	 14.39707	 14.60310	 -0.20416	 30.07777	704.31799	 23.10	
 10.200	180.000	 28.77294	  4.87856	 23.69663	 13.83583	 13.96520	 -0.43927	 30.07049	704.45898	 23.10	
 10.191	-170.497	 28.78356	  4.96483	 23.58826	 12.23461	 15.74212	 -0.44295	 30.09527	704.49200	 23.10	
 10.210	-161.034	 28.76614	  5.23505	 23.22309	 10.79434	 17.33547	 -0.43941	 30.08405	704.64899	 23.10	
 10.194	-151.526	 28.76940	  5.70062	 22.54449	  9.40272	 18.97759	 -0.43712	 30.08186	704.49500	 23.10	
 10.190	-142.105	 28.74468	  6.47713	 21.62879	  8.12079	 20.30299	 -0.43264	 30.06991	704.37201	 23.10	
 10.215	-132.646	 28.75097	  7.43752	 20.57826	  6.98847	 21.46885	 -0.43529	 30.07507	704.55200	 23.10	
 10.203	-123.092	 28.77542	  8.64126	 19.34155	  6.09333	 22.44673	 -0.47537	 30.10649	704.49799	 23.00	
 10.192	-113.678	 28.72521	  9.97050	 17.80442	  5.42168	 23.18255	 -0.52206	 30.05424	704.42999	 23.00	
 10.208	-104.249	 28.73944	 11.37300	 16.30449	  4.94220	 23.74856	 -0.58146	 30.08578	704.35699	 23.00	
 10.210	-94.801	 28.74085	 12.79007	 14.65946	  4.72057	 24.02204	 -0.62106	 30.08531	704.50098	 23.10	
 10.210	-85.199	 28.72886	 14.52899	 12.87056	  4.74433	 24.00994	 -0.64964	 30.07075	704.38800	 23.10	
 10.208	-75.751	 28.71787	 16.23170	 11.39166	  4.94438	 23.72947	 -0.65352	 30.07190	704.49298	 23.00	
 10.192	-66.322	 28.77415	 17.82558	 10.02508	  5.43209	 23.22922	 -0.61726	 30.12766	704.52899	 23.00	
 10.203	-56.908	 28.72924	 19.33784	  8.68688	  6.08904	 22.43176	 -0.61677	 30.07734	704.45502	 23.00	
 10.215	-47.354	 28.73239	 20.65412	  7.46648	  6.98361	 21.41358	 -0.57613	 30.09776	704.54199	 23.00	
 10.190	-37.895	 28.73771	 21.66692	  6.42626	  8.09755	 20.27437	 -0.53867	 30.10470	704.61798	 23.00	
 10.194	-28.474	 28.72122	 22.58073	  5.65524	  9.35356	 18.99104	 -0.52834	 30.08675	704.66699	 23.00	
 10.210	-18.966	 28.74256	 23.29217	  5.08598	 10.74046	 17.42364	 -0.52480	 30.10393	704.48297	 23.00	
 10.191	 -9.503	 28.69810	 23.65849	  4.75461	 12.10893	 15.80209	 -0.52553	 30.06227	704.40002	 23.00	
 10.200	  0.000	 28.71574	 23.84426	  4.60862	 13.79675	 13.96895	 -0.52018	 30.09408	704.51099	 23.00	
 10.191	  9.503	 28.67630	 23.70457	  4.69256	 15.52774	 12.44552	 -0.52121	 30.05267	704.50098	 23.00	
 10.210	 18.966	 28.69711	 23.36961	  5.00159	 17.08835	 11.00949	 -0.50451	 30.09645	704.45898	 23.00	
 10.194	 28.474	 28.66787	 22.70264	  5.54739	 18.62295	  9.66896	 -0.46626	 30.06154	704.48700	 23.00	
 10.190	 37.895	 28.65674	 21.80546	  6.28624	 19.95903	  8.41430	 -0.41724	 30.05046	704.47498	 23.00	
 10.215	 47.354	 28.66987	 20.82289	  7.22290	 21.17012	  7.24699	 -0.37374	 30.06827	704.43597	 23.00	
 10.203	 56.908	 28.67463	 19.56920	  8.39526	 22.09753	  6.34338	 -0.35627	 30.06766	704.43903	 23.00	
 10.192	 66.322	 28.68226	 18.03822	  9.68892	 22.89503	  5.87802	 -0.35355	 30.05931	704.55402	 23.00	
 10.208	 75.751	 28.72633	 16.50662	 11.08001	 23.46747	  5.44491	 -0.38914	 30.09195	704.42200	 23.00	
 10.210	 85.199	 28.72018	 14.81547	 12.56614	 23.71043	  5.25903	 -0.43233	 30.06176	704.33197	 23.00	
 10.210	 94.801	 28.75472	 13.12347	 14.27870	 23.73295	  5.27663	 -0.47877	 30.07522	704.40302	 23.00	
 10.208	104.249	 28.74338	 11.61652	 15.96799	 23.46574	  5.47229	 -0.48822	 30.05217	704.55499	 23.00	
 10.192	113.678	 28.81281	 10.26905	 17.55211	 22.99193	  5.92394	 -0.47208	 30.09872	704.41602	 23.00	
 10.203	123.092	 28.81290	  8.91492	 19.09068	 22.21750	  6.52930	 -0.44753	 30.08902	704.53101	 23.00	
 10.215	132.646	 28.77704	  7.64622	 20.38258	 21.17558	  7.18921	 -0.43379	 30.06801	704.38501	 23.00	
 10.190	142.105	 28.81157	  6.64903	 21.48270	 20.11567	  8.36214	 -0.40069	 30.08422	704.47803	 23.00	
 10.194	151.526	 28.81257	  5.85286	 22.42795	 18.76947	  9.63285	 -0.39731	 30.08387	704.45300	 23.00	
 10.210	161.034	 28.79391	  5.26760	 23.11812	 17.19265	 10.96489	 -0.39517	 30.06651	704.39301	 23.00	
 10.191	170.497	 28.79413	  4.93537	 23.53012	 15.63832	 12.41639	 -0.42053	 30.06533	704.48999	 23.00	
 11.899	171.783	 28.17786	  3.31128	 24.72461	 15.07637	 11.85725	 -0.66239	 30.08096	704.53101	 23.00	
 11.890	163.610	 28.17540	  3.60929	 24.30907	 16.69925	 10.40658	 -0.63537	 30.06392	704.47803	 23.00	
 11.889	155.445	 28.19850	  4.08306	 23.68076	 18.20771	  9.00680	 -0.63077	 30.07576	704.40002	 23.00	
 11.909	147.299	 28.16723	  4.65445	 22.85084	 19.72973	  7.61810	 -0.62822	 30.05694	704.41901	 23.00	
 11.902	139.148	 28.17813	  5.43487	 21.83785	 21.02754	  6.56726	 -0.63366	 30.07083	704.34100	 23.00	
 11.894	130.867	 28.19602	  6.35906	 20.59008	 22.10451	  5.70428	 -0.68070	 30.07524	704.45300	 23.00	
 11.897	122.732	 28.19428	  7.61637	 19.29140	 23.10115	  4.97611	 -0.72733	 30.07750	704.47803	 23.00	
 11.903	114.597	 28.15277	  8.95106	 17.76627	 23.86492	  4.25313	 -0.75989	 30.05487	704.54602	 23.00	
 11.893	106.346	 28.15864	 10.43066	 16.21529	 24.45596	  3.76875	 -0.77574	 30.07935	704.36603	 23.00	
 11.892	 98.155	 28.14746	 11.88069	 14.50451	 24.79204	  3.48043	 -0.76432	 30.07316	704.51501	 23.00	
 11.900	 90.000	 28.12274	 13.43141	 12.82167	 24.88359	  3.39602	 -0.74028	 30.06469	704.48999	 23.00	
 11.892	 81.845	 28.12138	 15.15730	 11.30111	 24.75553	  3.53557	 -0.68034	 30.07831	704.45300	 23.00	
 11.893	 73.654	 28.07634	 16.82141	  9.82326	 24.35185	  3.79402	 -0.62017	 30.04998	704.29498	 23.00	
 11.903	 65.403	 28.06032	 18.36023	  8.37749	 23.75930	  4.22865	 -0.59909	 30.06136	704.38000	 23.00	
 11.897	 57.268	 28.03704	 19.84879	  7.04571	 22.96547	  4.90296	 -0.58234	 30.06554	704.34900	 23.00	
 11.894	 49.133	 28.07622	 21.08720	  5.92337	 21.96354	  5.72135	 -0.60213	 30.09368	704.37402	 23.00	
 11.902	 40.852	 28.06179	 22.25199	  4.87994	 20.86243	  6.69738	 -0.65950	 30.08630	704.32898	 23.00	
 11.909	 32.701	 28.03722	 23.20750	  4.07268	 19.58579	  7.72555	 -0.72355	 30.07053	704.43402	 23.00	
 11.889	 24.555	 28.04369	 23.95817	  3.59133	 18.03545	  9.05608	 -0.76072	 30.06714	704.41400	 23.00	
 11.890	 16.390	 28.04924	 24.51355	  3.20356	 16.54170	 10.46356	 -0.77601	 30.06332	704.20300	 23.00	
 11.899	  8.217	 28.05464	 24.85777	  2.97116	 14.93267	 11.93110	 -0.77511	 30.07218	704.41302	 23.00	
 11.900	  0.000	 28.06560	 24.96845	  2.87129	 13.07469	 13.49521	 -0.78344	 30.07114	704.35999	 23.00	
 11.899	 -8.217	 28.04459	 24.79087	  2.99922	 11.58115	 15.15703	 -0.78129	 30.03241	704.41602	 23.00	
 11.890	-16.390	 28.06460	 24.41085	  3.29817	 10.16733	 16.85719	 -0.77167	 30.04657	704.45801	 23.00	
 11.889	-24.555	 28.07411	 23.81279	  3.72381	  8.73829	 18.39758	 -0.80081	 30.06778	704.39600	 23.00	
 11.909	-32.701	 28.08531	 23.04615	  4.19648	  7.40845	 19.83175	 -0.79236	 30.07754	704.43903	 23.00	
 11.902	-40.852	 28.07572	 22.00070	  5.08224	  6.21456	 21.09913	 -0.79606	 30.05526	704.46698	 23.00	
 11.894	-49.133	 28.09260	 20.88872	  6.18348	  5.13912	 22.32175	 -0.81951	 30.06377	704.32001	 23.00	
 11.897	-57.268	 28.05827	 19.56142	  7.39949	  4.27495	 23.27307	 -0.85125	 30.02584	704.39697	 23.00	
 11.903	-65.403	 28.06295	 18.01123	  8.69744	  3.81042	 24.07717	 -0.86831	 30.05046	704.38300	 23.00	
 11.893	-73.654	 28.09061	 16.46187	 10.14854	  3.46761	 24.67502	 -0.87341	 30.06744	704.42102	 23.00	
 11.892	-81.845	 28.08442	 14.74210	 11.63291	  3.22258	 25.01993	 -0.87166	 30.04988	704.31799	 23.00	
 11.900	-90.000	 28.09955	 13.03154	 13.10782	  3.12681	 25.15663	 -0.86548	 30.06821	704.32098	 23.00	
 11.892	-98.155	 28.08495	 11.53305	 14.87894	  3.21780	 25.01233	 -0.86450	 30.03665	704.35797	 23.00	
 11.893	-106.346	 28.11468	 10.06683	 16.56341	  3.48099	 24.68959	 -0.83267	 30.07503	704.28601	 23.00	
 11.903	-114.597	 28.09109	  8.62119	 18.03905	  3.85811	 24.07611	 -0.77414	 30.05589	704.28900	 23.00	
 11.897	-122.732	 28.09018	  7.29459	 19.55585	  4.44168	 23.25494	 -0.70178	 30.04338	704.32397	 23.00	
 11.894	-130.867	 28.11271	  6.13370	 20.83611	  5.20054	 22.25254	 -0.66255	 30.04146	704.24701	 23.00	
 11.902	-139.148	 28.12999	  5.07246	 22.03999	  6.28709	 21.10076	 -0.65860	 30.05944	704.41400	 23.00	
 11.909	-147.299	 28.10163	  4.41538	 23.01861	  7.44591	 19.83890	 -0.68182	 30.04998	704.25500	 23.00	
 11.889	-155.445	 28.11659	  3.91952	 23.78489	  8.82287	 18.38785	 -0.69602	 30.04450	704.23102	 23.00	
 11.890	-163.610	 28.15309	  3.52194	 24.38220	 10.28708	 16.81691	 -0.70137	 30.06915	704.38000	 23.00	
 11.899	-171.783	 28.12389	  3.27099	 24.70879	 11.73458	 15.11502	 -0.70099	 30.03247	704.35101	 23.00	
 11.900	180.000	 28.12822	  3.20350	 24.82249	 13.20271	 13.38206	 -0.69560	 30.02898	704.28101	 23.00	
 13.600	180.000	 27.42369	  1.38350	 25.87664	 12.72186	 12.83359	 -0.94492	 30.04642	704.35199	 23.00	
 13.608	-172.853	 27.39684	  1.43631	 25.77230	 11.21111	 14.34244	 -0.94705	 30.03062	704.32098	 23.00	
 13.611	-165.583	 27.39458	  1.62187	 25.47609	  9.69369	 16.14747	 -0.94177	 30.04406	704.32098	 23.00	
 13.601	-158.353	 27.36824	  1.98781	 24.93590	  8.18704	 17.73681	 -0.95192	 30.02173	704.32898	 23.00	
 13.609	-151.210	 27.38735	  2.50467	 24.26675	  6.80362	 19.27847	 -0.93600	 30.04910	704.31799	 23.00	
 13.611	-143.999	 27.36477	  3.18263	 23.34376	  5.50313	 20.63358	 -0.90108	 30.02462	704.29303	 23.00	
 13.601	-136.825	 27.34833	  3.94476	 22.25446	  4.54575	 21.85649	 -0.85612	 30.02419	704.27802	 23.00	
 13.596	-129.640	 27.39802	  4.95331	 21.01245	  3.64504	 23.05373	 -0.86267	 30.07326	704.35199	 23.00	
 13.611	-122.431	 27.36577	  5.90769	 19.73387	  2.91559	 24.02020	 -0.90526	 30.03430	704.26398	 23.00	
 13.604	-115.211	 27.32420	  7.25064	 18.19827	  2.30765	 24.80604	 -0.96538	 29.99335	704.28699	 23.00	
 13.595	-108.042	 27.38046	  8.68364	 16.75913	  1.84819	 25.48887	 -1.01138	 30.05207	704.28998	 23.00	
 13.607	-100.793	 27.33656	 10.15100	 15.08295	  1.50362	 25.89340	 -1.04934	 30.02206	704.28198	 23.00	
 13.601	-93.617	 27.35637	 11.65528	 13.34339	  1.34030	 26.12673	 -1.02511	 30.04980	704.39899	 23.00	
 13.601	-86.383	 27.35283	 13.16338	 11.83713	  1.35205	 26.13757	 -1.00718	 30.05309	704.23401	 23.00	
 13.607	-79.207	 27.33815	 14.85676	 10.30683	  1.47757	 25.93395	 -0.97978	 30.04716	704.33197	 23.00	
 13.595	-71.958	 27.31324	 16.58648	  8.80943	  1.78936	 25.48567	 -0.97496	 30.01914	704.29602	 23.00	
 13.604	-64.789	 27.32695	 18.13935	  7.38975	  2.24596	 24.88356	 -0.98489	 30.03902	704.38000	 23.00	
 13.611	-57.569	 27.30512	 19.69021	  6.05001	  2.85163	 24.06388	 -0.98572	 30.02081	704.32397	 23.00	
 13.596	-50.360	 27.32976	 21.03241	  4.85469	  3.58980	 23.13064	 -0.98746	 30.04705	704.32098	 23.00	
 13.601	-43.175	 27.28620	 22.18430	  3.91931	  4.43123	 21.96879	 -0.97175	 30.01659	704.18799	 23.00	
 13.611	-36.001	 27.30740	 23.30938	  3.12510	  5.39399	 20.65675	 -0.97506	 30.03626	704.26202	 23.00	
 13.609	-28.790	 27.29594	 24.23306	  2.42962	  6.67483	 19.34566	 -0.99384	 30.02390	704.32397	 23.00	
 13.601	-21.647	 27.30343	 24.94285	  1.89933	  8.04515	 17.84521	 -1.00955	 30.02104	704.14600	 23.00	
 13.611	-14.417	 27.30318	 25.49788	  1.48197	  9.50835	 16.23778	 -0.98964	 30.02544	704.33398	 23.00	
 13.608	 -7.147	 27.30314	 25.86048	  1.21075	 11.00710	 14.47120	 -0.98314	 30.03650	704.20001	 23.00	
 13.600	  0.000	 27.27808	 25.97305	  1.08778	 12.46860	 12.91742	 -0.96284	 30.01708	704.25098	 23.00	
 13.608	  7.147	 27.28624	 25.90775	  1.11675	 14.16440	 11.35865	 -0.95455	 30.03298	704.34100	 23.00	
 13.611	 14.417	 27.26442	 25.59437	  1.34108	 15.87661	  9.84684	 -0.96027	 30.02501	704.22498	 23.00	
 13.601	 21.647	 27.28613	 25.10485	  1.72720	 17.44841	  8.42597	 -0.96072	 30.04971	704.28998	 23.00	
 13.609	 28.790	 27.27644	 24.41723	  2.24244	 18.96136	  7.04260	 -0.95207	 30.05029	704.27502	 23.00	
 13.611	 36.001	 27.21964	 23.51469	  2.86512	 20.28889	  5.99313	 -0.90999	 30.00241	704.32397	 23.00	
 13.601	 43.175	 27.27279	 22.49376	  3.65585	 21.54340	  5.01332	 -0.85581	 30.04629	704.25000	 23.00	
 13.596	 50.360	 27.27287	 21.29701	  4.52716	 22.71347	  3.97258	 -0.81081	 30.02733	704.20801	 23.00	
 13.611	 57.569	 27.27055	 20.03639	  5.68455	 23.71984	  3.16794	 -0.79656	 30.03479	704.26398	 23.00	
 13.604	 64.789	 27.30408	 18.54572	  6.96201	 24.59914	  2.51612	 -0.81200	 30.06463	704.31799	 23.00	
 13.595	 71.958	 27.30021	 17.03064	  8.38139	 25.20200	  2.06666	 -0.83314	 30.02816	704.37598	 23.00	
 13.607	 79.207	 27.34307	 15.34935	  9.88547	 25.64790	  1.76271	 -0.88890	 30.03875	704.09302	 23.00	
 13.601	 86.383	 27.38067	 13.68864	 11.41319	 25.90436	  1.64536	 -0.94727	 30.04211	704.24701	 23.00	
 13.601	 93.617	 27.37181	 12.08128	 12.92661	 25.89387	  1.62048	 -0.98356	 30.02660	704.22400	 23.00	
 13.607	100.793	 27.37639	 10.57743	 14.66119	 25.68001	  1.73495	 -1.00609	 30.01719	704.26501	 23.00	
 13.595	108.042	 27.41007	  9.07511	 16.37594	 25.29418	  2.04818	 -1.00104	 30.02794	704.22198	 23.00	
 13.604	115.211	 27.43666	  7.59661	 17.92574	 24.69861	  2.49377	 -1.01089	 30.05082	704.23102	 23.00	
 13.611	122.431	 27.39973	  6.23815	 19.32485	 23.84019	  3.10668	 -0.99142	 29.99960	704.23700	 23.00	
 13.596	129.640	 27.40473	  5.27162	 20.70832	 22.88157	  3.92580	 -0.92430	 30.00655	704.35797	 23.00	
 13.601	136.825	 27.41567	  4.26218	 21.99957	 21.73090	  4.96518	 -0.86117	 30.00685	704.23700	 23.00	
 13.611	143.999	 27.44023	  3.41042	 23.12498	 20.61074	  5.92023	 -0.84882	 30.04663	704.19397	 23.00	
 13.609	151.210	 27.45851	  2.69396	 24.08677	 19.25611	  6.87618	 -0.87126	 30.06749	704.33698	 23.00	
 13.601	158.353	 27.43659	  2.14635	 24.82963	 17.68816	  8.30069	 -0.86183	 30.03828	704.20001	 23.00	
 13.611	165.583	 27.40521	  1.72380	 25.38523	 16.10858	  9.74564	 -0.88942	 30.01816	704.19897	 23.00	
 13.608	172.853	 27.43120	  1.47413	 25.76626	 14.37409	 11.27237	 -0.93169	 30.05132	704.17700	 23.00	
 15.298	173.587	 26.61370	 -0.33694	 26.72351	 13.60249	 10.58407	 -1.13829	 30.05068	704.21399	 23.00	
 15.291	167.167	 26.60179	 -0.14146	 26.36517	 15.38702	  9.07917	 -1.11553	 30.03088	704.14398	 23.00	
 15.307	160.676	 26.58221	  0.22704	 25.83912	 17.02123	  7.57570	 -1.09713	 30.00525	704.16901	 23.00	
 15.300	154.261	 26.59819	  0.70985	 25.16467	 18.50416	  6.45025	 -1.09617	 30.02202	704.15503	 23.00	
 15.288	147.854	 26.61598	  1.36063	 24.31236	 20.03266	  5.30739	 -1.07118	 30.02894	704.32098	 23.00	
 15.293	141.428	 26.59276	  2.13647	 23.26925	 21.26628	  4.11580	 -1.06369	 30.00137	704.14801	 23.00	
 15.299	134.985	 26.62185	  3.05879	 22.12122	 22.52191	  3.01357	 -1.09049	 30.03247	704.18597	 23.00	
 15.305	128.583	 26.62701	  4.08097	 20.83591	 23.63852	  2.16318	 -1.13017	 30.03957	704.31702	 23.00	
 15.309	122.142	 26.60809	  5.20939	 19.43286	 24.59586	  1.39533	 -1.18100	 30.02674	704.28998	 23.00	
 15.304	115.711	 26.62600	  6.25780	 17.99248	 25.41532	  0.82763	 -1.16898	 30.04671	704.21100	 23.00	
 15.297	109.291	 26.60028	  7.66644	 16.44419	 26.02940	  0.36714	 -1.13265	 30.02615	704.20300	 23.00	
 15.293	102.897	 26.56464	  9.17477	 14.70761	 26.48813	  0.03186	 -1.10832	 30.01473	704.17102	 23.00	
 15.293	 96.458	 26.55961	 10.71108	 13.06746	 26.77055	 -0.14083	 -1.09750	 30.02037	704.22498	 23.00	
 15.300	 90.000	 26.54762	 12.26899	 11.52039	 26.87434	 -0.21972	 -1.08355	 30.04132	704.25598	 23.00	
 15.293	 83.542	 26.49354	 13.82443	  9.94403	 26.72836	 -0.14378	 -1.08514	 29.99941	704.20599	 23.00	
 15.293	 77.103	 26.50841	 15.47080	  8.44814	 26.45027	  0.07362	 -1.05966	 30.03672	704.14001	 23.00	
 15.297	 70.709	 26.50389	 17.16389	  6.99460	 25.93526	  0.41350	 -1.03503	 30.05162	704.17200	 23.00	
 15.304	 64.289	 26.44845	 18.61658	  5.59406	 25.24416	  0.86390	 -0.99587	 30.01732	704.36499	 23.00	
 15.309	 57.858	 26.41003	 20.10365	  4.47875	 24.40393	  1.45933	 -0.97882	 30.01303	704.23901	 23.00	
 15.305	 51.417	 26.41561	 21.42532	  3.39318	 23.41772	  2.24668	 -0.97763	 30.02278	704.18799	 23.00	
 15.299	 45.015	 26.38923	 22.62882	  2.43238	 22.24493	  3.14772	 -0.99368	 30.00216	704.24402	 23.00	
 15.293	 38.572	 26.41571	 23.74115	  1.58007	 21.01466	  4.13756	 -1.03734	 30.02444	704.27002	 23.00	
 15.288	 32.146	 26.39272	 24.69377	  0.83516	 19.65552	  5.41257	 -1.05442	 30.02133	704.21698	 23.00	
 15.300	 25.739	 26.41815	 25.51672	  0.23022	 18.23450	  6.57460	 -1.06406	 30.05235	704.38300	 23.00	
 15.307	 19.324	 26.39183	 26.10307	 -0.20312	 16.71397	  7.72078	 -1.05331	 29.99741	704.21698	 23.00	
 15.291	 12.833	 26.42924	 26.59543	 -0.51699	 15.07780	  9.22586	 -1.02947	 30.02349	704.23102	 23.00	
 15.298	  6.413	 26.46297	 26.87751	 -0.65168	 13.37066	 10.75173	 -1.02489	 30.04828	704.21600	 23.00	
 15.300	  0.000	 26.45646	 26.93240	 -0.70650	 11.83502	 12.29954	 -1.03051	 30.03359	704.28998	 23.00	
 15.298	 -6.413	 26.41527	 26.77594	 -0.60745	 10.30848	 13.83090	 -1.04607	 29.98231	704.23102	 23.00	
 15.291	-12.833	 26.46208	 26.48259	 -0.34995	  8.83570	 15.48170	 -1.05646	 30.01334	704.19299	 23.00	
 15.307	-19.324	 26.45498	 25.96995	 -0.00014	  7.33162	 17.16584	 -1.07729	 30.00967	704.17102	 23.00	
 15.300	-25.739	 26.44828	 25.30478	  0.46729	  5.93434	 18.62641	 -1.06311	 30.00432	704.24701	 23.00	
 15.288	-32.146	 26.45283	 24.46300	  1.09210	  4.65882	 20.14187	 -1.04943	 30.00568	704.19299	 23.00	
 15.293	-38.572	 26.42251	 23.43058	  1.82161	  3.72152	 21.42092	 -1.03343	 29.98697	704.25000	 23.00	
 15.299	-45.015	 26.47038	 22.29503	  2.74781	  2.75728	 22.73436	 -1.04790	 30.03250	704.27197	 23.00	
 15.305	-51.417	 26.45901	 21.07242	  3.76665	  1.91694	 23.78386	 -1.02693	 29.99619	704.28198	 23.00	
 15.309	-57.858	 26.47152	 19.67732	  4.79176	  1.17879	 24.76022	 -1.01723	 29.99977	704.23102	 23.00	
 15.304	-64.289	 26.49648	 18.18850	  6.03316	  0.58320	 25.58063	 -0.99596	 30.02532	704.18500	 23.00	
 15.297	-70.709	 26.48075	 16.64101	  7.42312	  0.12736	 26.18879	 -0.97584	 30.01086	704.23102	 23.00	
 15.293	-77.103	 26.44586	 14.89379	  8.86024	 -0.21631	 26.64612	 -0.95387	 29.98800	704.19098	 23.00	
 15.293	-83.542	 26.45390	 13.24065	 10.38344	 -0.43736	 26.94328	 -0.96997	 29.98648	704.30603	 23.00	
 15.300	-90.000	 26.43435	 11.69519	 11.98117	 -0.53161	 26.99911	 -1.02068	 29.96195	704.18500	 23.00	
 15.293	-96.458	 26.47852	 10.17935	 13.48416	 -0.42873	 26.93175	 -1.07453	 30.00179	704.24402	 23.00	
 15.293	-102.897	 26.49302	  8.67908	 15.10242	 -0.19223	 26.64453	 -1.14688	 30.01194	704.13000	 23.00	
 15.297	-109.291	 26.47942	  7.22426	 16.84300	  0.14424	 26.15070	 -1.13356	 29.98056	704.18597	 23.00	
 15.304	-115.711	 26.49228	  5.84538	 18.26911	  0.62685	 25.50109	 -1.11467	 29.98022	704.21600	 23.00	
 15.309	-122.142	 26.50654	  4.83141	 19.72173	  1.20979	 24.68005	 -1.09410	 30.00449	704.29797	 23.00	
 15.305	-128.583	 26.55844	  3.70205	 21.12837	  1.99013	 23.72088	 -1.06680	 30.04779	704.23700	 23.00	
 15.299	-134.985	 26.48908	  2.71064	 22.34666	  2.85898	 22.55158	 -1.04816	 29.98110	704.20001	 23.00	
 15.293	-141.428	 26.54369	  1.85395	 23.55556	  3.87649	 21.37253	 -1.09904	 30.04364	704.20599	 23.00	
 15.288	-147.854	 26.51821	  1.09875	 24.52984	  5.01524	 20.03211	 -1.14418	 30.02023	704.28101	 23.00	
 15.300	-154.261	 26.52108	  0.53756	 25.32905	  6.13800	 18.49852	 -1.16999	 29.99837	704.23297	 23.00	
 15.307	-160.676	 26.52467	  0.07934	 25.96178	  7.53036	 17.03603	 -1.15015	 30.00155	704.31403	 23.00	
 15.291	-167.167	 26.57749	 -0.22694	 26.43550	  9.08337	 15.34647	 -1.14671	 30.03815	704.25500	 23.00	
 15.298	-173.587	 26.54158	 -0.38199	 26.68043	 10.59012	 13.66799	 -1.14594	 29.98987	704.16901	 23.00	
 15.300	180.000	 26.53203	 -0.44997	 26.76813	 12.08855	 12.12097	 -1.15092	 29.97621	704.18799	 23.00	
 17.000	180.000	 25.65937	 -2.33329	 27.64099	 11.44682	 11.40238	 -1.27498	 30.05453	704.19299	 23.00	
 16.990	-174.179	 25.61180	 -2.25353	 27.50059	  9.91002	 12.92860	 -1.26314	 29.99688	704.17499	 23.00	
 17.009	-168.383	 25.62605	 -2.06754	 27.28903	  8.38719	 14.50496	 -1.23987	 30.02161	704.12402	 23.00	
 17.000	-162.596	 25.60848	 -1.83314	 26.88493	  6.87253	 16.16432	 -1.25344	 30.02266	704.18298	 23.00	
 16.990	-156.759	 25.61423	 -1.44451	 26.32827	  5.65349	 17.79488	 -1.26498	 30.03802	704.08197	 23.00	
 16.995	-150.919	 25.57234	 -0.90335	 25.54795	  4.36043	 19.22496	 -1.27801	 29.97220	704.26202	 23.00	
 16.988	-145.161	 25.59735	 -0.24261	 24.67070	  3.22274	 20.67448	 -1.25682	 30.01177	704.19897	 23.00	
 17.014	-139.343	 25.59112	  0.50893	 23.64397	  2.11380	 21.97926	 -1.21961	 30.02885	704.20801	 23.00	
 17.007	-133.546	 25.59540	  1.41259	 22.44534	  1.14404	 23.16186	 -1.20600	 30.00329	704.26703	 23.00	
 17.001	-127.699	 25.61430	  2.42691	 21.14820	  0.26167	 24.32896	 -1.21450	 30.01789	704.25598	 23.00	
 17.006	-121.937	 25.58783	  3.50611	 19.75012	 -0.48765	 25.28241	 -1.22424	 30.00571	704.24200	 23.00	
 17.002	-116.134	 25.56199	  4.64043	 18.37228	 -1.11581	 26.10642	 -1.22339	 30.00644	704.32001	 23.00	
 17.001	-110.310	 25.53907	  5.98386	 16.87987	 -1.62323	 26.77640	 -1.19393	 30.00085	704.33502	 23.00	
 16.988	-104.517	 25.56196	  7.16822	 15.16702	 -1.88689	 27.26750	 -1.14696	 30.00084	704.17102	 23.00	
 17.008	-98.662	 25.56259	  8.66316	 13.57879	 -2.18174	 27.64573	 -1.06914	 30.03424	704.17700	 23.00	
 16.996	-92.909	 25.54059	 10.18686	 12.06113	 -2.33204	 27.78820	 -0.99055	 30.01152	704.11798	 23.00	
 16.996	-87.091	 25.50632	 11.73944	 10.48600	 -2.33614	 27.76821	 -0.93312	 29.98066	704.25800	 23.00	
 17.012	-81.253	 25.49683	 13.28868	  8.94234	 -2.21789	 27.63231	 -0.90444	 29.98934	704.07501	 23.00	
 16.988	-75.483	 25.52431	 14.88717	  7.42240	 -1.93213	 27.31650	 -0.89349	 30.01291	704.22198	 23.00	
 17.001	-69.690	 25.51526	 16.55459	  5.98418	 -1.62424	 26.83828	 -0.93025	 30.00375	704.17700	 23.00	
 17.002	-63.866	 25.52260	 18.11677	  4.83285	 -1.15032	 26.19025	 -0.94914	 30.00333	704.07300	 23.00	
 17.006	-58.063	 25.53779	 19.62976	  3.65767	 -0.54368	 25.40071	 -0.98253	 30.00860	704.14099	 23.00	
 17.001	-52.301	 25.51367	 21.02643	  2.56375	  0.18532	 24.42480	 -0.98461	 29.99157	704.08899	 23.00	
 17.007	-46.454	 25.49865	 22.28433	  1.49201	  1.02713	 23.31404	 -1.02133	 29.97427	704.14398	 23.00	
 17.014	-40.657	 25.50422	 23.51539	  0.53080	  1.94905	 22.11259	 -1.03681	 30.01516	704.21899	 23.00	
 16.988	-34.839	 25.52313	 24.59106	 -0.28268	  3.01769	 20.89005	 -1.03644	 30.01913	704.15698	 23.00	
 16.995	-29.081	 25.47755	 25.46941	 -0.95676	  4.15684	 19.45311	 -1.05007	 29.96289	704.17999	 23.00	
 16.990	-23.241	 25.52345	 26.28140	 -1.45959	  5.19353	 17.92208	 -1.08317	 30.00122	704.17200	 23.00	
 17.000	-17.404	 25.52286	 26.86446	 -1.87136	  6.58417	 16.36693	 -1.07429	 30.00036	704.21002	 23.00	
 17.009	-11.617	 25.48984	 27.28035	 -2.14447	  8.05612	 14.66340	 -1.06078	 29.96551	704.17902	 23.00	
 16.990	 -5.821	 25.47922	 27.55336	 -2.40686	  9.56798	 13.14639	 -1.03375	 29.97018	704.21698	 23.10	
 17.000	  0.000	 25.49815	 27.69232	 -2.51192	 11.10553	 11.61484	 -1.01785	 30.01290	704.14099	 23.10	
 16.990	  5.821	 25.51551	 27.65681	 -2.50023	 12.64823	 10.04117	 -0.98984	 30.03734	704.09900	 23.00	
 17.009	 11.617	 25.48927	 27.41843	 -2.32051	 14.15336	  8.53664	 -0.98105	 30.02574	704.13800	 23.00	
 17.000	 17.404	 25.42111	 26.98744	 -2.12855	 15.83343	  7.29115	 -0.99543	 29.97266	704.23700	 23.00	
 16.990	 23.241	 25.42984	 26.43964	 -1.69955	 17.44394	  5.97923	 -1.02165	 29.99276	704.15997	 23.00	
 16.995	 29.081	 25.46309	 25.74611	 -1.15642	 18.86180	  4.55863	 -1.06787	 30.02524	704.18597	 23.00	
 16.988	 34.839	 25.45990	 24.86029	 -0.50500	 20.31056	  3.46547	 -1.09869	 30.01810	704.13000	 23.00	
 17.014	 40.657	 25.38697	 23.82041	  0.22905	 21.58271	  2.36268	 -1.10038	 29.93646	704.14398	 23.10	
 17.007	 46.454	 25.43867	 22.70323	  1.10623	 22.89708	  1.39252	 -1.10546	 29.99964	704.26501	 23.10	
 17.001	 52.301	 25.45154	 21.42317	  2.11187	 24.02057	  0.53352	 -1.10672	 29.99580	704.05298	 23.10	
 17.006	 58.063	 25.44031	 20.12059	  3.17449	 24.98000	 -0.23897	 -1.13450	 29.98782	704.25598	 23.10	
 17.002	 63.866	 25.40948	 18.57126	  4.30684	 25.81057	 -0.89084	 -1.15628	 29.94849	704.18799	 23.10	
 17.001	 69.690	 25.43631	 17.08124	  5.52363	 26.51404	 -1.36792	 -1.18826	 29.96225	704.19397	 23.10	
 16.988	 75.483	 25.51501	 15.44255	  6.92192	 27.07528	 -1.67333	 -1.20565	 30.01061	704.27002	 23.10	
 17.012	 81.253	 25.50078	 13.86521	  8.38000	 27.40936	 -1.94811	 -1.18887	 29.99107	704.23700	 23.10	
 16.996	 87.091	 25.54675	 12.36121	  9.94255	 27.60242	 -2.06444	 -1.10700	 29.99993	704.19598	 23.10	
 16.996	 92.909	 25.56460	 10.78361	 11.50605	 27.61351	 -2.07573	 -1.05964	 29.99607	704.39600	 23.10	
 17.008	 98.662	 25.59043	  9.25859	 13.07287	 27.48978	 -1.96550	 -1.06502	 30.01498	704.21600	 23.10	
 16.988	104.517	 25.60187	  7.73065	 14.61966	 27.13690	 -1.69068	 -1.09034	 29.98001	704.19397	 23.00	
 17.001	110.310	 25.62521	  6.42193	 16.36561	 26.67248	 -1.42814	 -1.15276	 29.99087	704.17102	 23.00	
 17.002	116.134	 25.65280	  5.12230	 17.93827	 26.02281	 -0.94954	 -1.23462	 29.99927	704.24402	 23.00	
 17.006	121.937	 25.63989	  3.92811	 19.41268	 25.17138	 -0.32425	 -1.25491	 29.96882	704.14001	 23.00	
 17.001	127.699	 25.64199	  2.83192	 20.77663	 24.20687	  0.41763	 -1.25496	 29.95421	704.15503	 23.10	
 17.007	133.546	 25.66000	  1.78226	 22.11109	 23.15168	  1.25898	 -1.24870	 29.98119	704.22998	 23.10	
 17.014	139.343	 25.67863	  0.84860	 23.33348	 21.95536	  2.21520	 -1.24306	 30.00753	704.26202	 23.00	
 16.988	145.161	 25.65656	  0.05876	 24.38240	 20.64209	  3.26329	 -1.25090	 29.96708	704.19098	 23.00	
 16.995	150.919	 25.67741	 -0.64973	 25.35236	 19.30317	  4.47213	 -1.27098	 30.01135	704.11499	 23.10	
 16.990	156.759	 25.65021	 -1.24215	 26.11452	 17.79847	  5.79580	 -1.28181	 29.99216	704.26202	 23.00	
 17.000	162.596	 25.61096	 -1.73743	 26.72545	 16.21406	  7.03699	 -1.28223	 29.96049	704.17999	 23.10	
 17.009	168.383	 25.62635	 -1.99941	 27.19660	 14.44954	  8.28688	 -1.29993	 29.99462	704.09003	 23.10	
 16.990	174.179	 25.63710	 -2.22072	 27.48809	 12.97231	  9.80914	 -1.28861	 30.00434	704.06702	 23.10	
 18.709	174.675	 24.53993	 -4.13667	 28.16463	 12.17015	  8.97803	 -1.32628	 29.96265	704.07001	 23.10	
 18.703	169.441	 24.57250	 -3.98395	 27.94463	 13.63331	  7.68836	 -1.33787	 29.98697	704.12598	 23.10	
 18.691	164.085	 24.58989	 -3.68167	 27.53050	 15.23688	  6.34290	 -1.36640	 29.97379	704.05402	 23.10	
 18.706	158.818	 24.61774	 -3.28963	 27.00011	 16.94813	  4.93476	 -1.37771	 30.00613	703.98798	 23.10	
 18.695	153.537	 24.63736	 -2.66812	 26.26422	 18.42356	  3.65711	 -1.39484	 29.98456	704.04199	 23.10	
 18.704	148.255	 24.66218	 -2.02118	 25.42280	 19.90321	  2.55136	 -1.38167	 29.99296	704.08099	 23.10	
 18.698	142.952	 24.66177	 -1.30621	 24.44221	 21.31027	  1.44337	 -1.33372	 29.99218	704.11298	 23.10	
 18.699	137.625	 24.63402	 -0.47392	 23.28003	 22.49701	  0.41098	 -1.31575	 29.96115	704.13702	 23.10	
 18.705	132.343	 24.65981	  0.48407	 22.06709	 23.72272	 -0.48946	 -1.29974	 29.99267	704.08502	 23.10	
 18.713	127.067	 24.63705	  1.52936	 20.73027	 24.78492	 -1.32341	 -1.28530	 29.98633	704.01300	 23.10	
 18.700	121.794	 24.64760	  2.67756	 19.26814	 25.74618	 -2.03147	 -1.25157	 29.99702	704.20599	 23.10	
 18.698	116.504	 24.61969	  3.84123	 17.80988	 26.53978	 -2.66080	 -1.17290	 29.99405	704.12097	 23.10	
 18.707	111.165	 24.57826	  5.06055	 16.23389	 27.19869	 -3.16382	 -1.05844	 29.98401	704.06097	 23.10	
 18.690	105.863	 24.58180	  6.54732	 14.59312	 27.68395	 -3.40739	 -1.00043	 29.98175	704.06201	 23.10	
 18.696	100.583	 24.54462	  7.76455	 13.01409	 28.02528	 -3.65721	 -0.96637	 29.95600	704.01898	 23.10	
 18.700	 95.309	 24.56645	  9.29894	 11.47907	 28.27738	 -3.81204	 -0.96396	 30.01401	703.98901	 23.10	
 18.700	 90.000	 24.53312	 10.84012	  9.90232	 28.31150	 -3.85109	 -1.00157	 29.99263	704.14398	 23.10	
 18.700	 84.691	 24.50801	 12.37393	  8.38316	 28.21407	 -3.77159	 -1.09370	 29.99115	704.17999	 23.10	
 18.696	 79.417	 24.49257	 13.85098	  6.87616	 27.96313	 -3.55198	 -1.21445	 29.98012	704.10699	 23.10	
 18.690	 74.137	 24.47783	 15.41602	  5.64965	 27.58037	 -3.29072	 -1.27129	 29.97989	704.08398	 23.10	
 18.707	 68.835	 24.44621	 17.02191	  4.26789	 27.06244	 -3.02188	 -1.28684	 30.00555	704.10699	 23.10	
 18.698	 63.496	 24.41878	 18.53386	  3.04156	 26.35111	 -2.53703	 -1.25187	 30.00533	704.09802	 23.10	
 18.700	 58.206	 24.42430	 20.06181	  1.89535	 25.52316	 -1.88774	 -1.23929	 30.01030	704.04401	 23.10	
 18.713	 52.933	 24.39941	 21.36371	  0.79102	 24.51926	 -1.15706	 -1.20102	 29.98294	704.10901	 23.10	
 18.705	 47.657	 24.39124	 22.65975	 -0.20055	 23.38724	 -0.32283	 -1.15604	 29.96915	704.09802	 23.10	
 18.699	 42.375	 24.37264	 23.81703	 -1.07602	 22.16971	  0.57434	 -1.12159	 29.96351	704.02002	 23.10	
 18.698	 37.048	 24.39310	 24.90954	 -1.82911	 20.86943	  1.61141	 -1.08686	 29.98351	704.10602	 23.10	
 18.704	 31.745	 24.39182	 25.85145	 -2.50051	 19.42880	  2.74306	 -1.03013	 29.97483	703.96399	 23.10	
 18.695	 26.463	 24.39786	 26.60738	 -3.05632	 17.97834	  3.93188	 -0.97876	 29.97252	704.19397	 23.10	
 18.706	 21.182	 24.38114	 27.25154	 -3.53678	 16.47320	  5.11554	 -0.95428	 29.95840	704.11499	 23.10	
 18.691	 15.915	 24.37918	 27.71929	 -3.88507	 14.85683	  6.60490	 -0.92594	 29.94405	704.15399	 23.10	
 18.703	 10.559	 24.40751	 28.10830	 -4.17175	 13.29691	  7.93748	 -0.91838	 29.99019	704.11499	 23.10	
 18.709	  5.325	 24.40650	 28.29634	 -4.30189	 11.80935	  9.24007	 -0.91833	 29.97290	704.15198	 23.10	
 18.700	  0.000	 24.43454	 28.34827	 -4.29437	 10.29871	 10.81567	 -0.93347	 29.98287	703.96399	 23.10	
 18.709	 -5.325	 24.42441	 28.24326	 -4.21541	  8.77017	 12.34618	 -0.96439	 29.96146	704.09198	 23.10	
 18.703	-10.559	 24.43342	 27.98851	 -3.96771	  7.28310	 13.82756	 -0.96052	 29.94725	704.15198	 23.10	
 18.691	-15.915	 24.48207	 27.61214	 -3.63110	  5.81992	 15.42145	 -0.99211	 29.97343	703.98798	 23.10	
 18.706	-21.182	 24.48190	 27.11325	 -3.36730	  4.73333	 17.01763	 -0.98862	 30.00789	704.14801	 23.10	
 18.695	-26.463	 24.47882	 26.40479	 -2.86853	  3.47180	 18.54752	 -0.97031	 29.98358	704.21600	 23.10	
 18.704	-31.745	 24.48126	 25.56695	 -2.28874	  2.30882	 20.09345	 -0.95080	 30.00065	704.07001	 23.10	
 18.698	-37.048	 24.49040	 24.57547	 -1.55614	  1.21654	 21.41748	 -0.95682	 30.01801	704.01599	 23.10	
 18.699	-42.375	 24.45849	 23.41840	 -0.69564	  0.22339	 22.61538	 -0.95400	 29.96150	704.12903	 23.10	
 18.705	-47.657	 24.46424	 22.17977	  0.25405	 -0.69407	 23.83049	 -0.95349	 29.96549	704.02002	 23.10	
 18.713	-52.933	 24.48347	 20.92867	  1.27991	 -1.51716	 24.94403	 -0.93960	 29.98771	704.06097	 23.10	
 18.700	-58.206	 24.48260	 19.45823	  2.39275	 -2.19577	 25.87258	 -0.94784	 29.97646	704.22198	 23.10	
 18.698	-63.496	 24.51292	 18.02176	  3.56317	 -2.79239	 26.68102	 -0.90305	 29.99898	704.11298	 23.10	
 18.707	-68.835	 24.47001	 16.42282	  4.74906	 -3.26726	 27.29917	 -0.85815	 29.95677	704.18298	 23.10	
 18.690	-74.137	 24.49297	 14.82131	  6.04738	 -3.55678	 27.79550	 -0.85247	 29.97106	704.12903	 23.10	
 18.696	-79.417	 24.46514	 13.25092	  7.42337	 -3.90513	 28.16965	 -0.81530	 29.97546	704.14899	 23.10	
 18.700	-84.691	 24.49635	 11.71431	  8.96631	 -4.10146	 28.42408	 -0.84263	 30.01001	704.07300	 23.10	
 18.700	-90.000	 24.50138	 10.15018	 10.49206	 -4.15016	 28.48478	 -0.86268	 30.00675	704.16101	 23.10	
 18.700	-95.309	 24.46111	  8.58730	 12.05251	 -4.07578	 28.35013	 -0.88542	 29.94371	704.21899	 23.10	
 18.696	-100.583	 24.50868	  7.08160	 13.58243	 -3.88593	 28.16732	 -0.98078	 29.98983	704.15198	 23.10	
 18.690	-105.863	 24.51156	  5.91688	 15.13395	 -3.64210	 27.77990	 -1.10305	 29.99422	704.15997	 23.10	
 18.707	-111.165	 24.51364	  4.53288	 16.77164	 -3.28374	 27.25761	 -1.17720	 29.98618	704.06201	 23.10	
 18.698	-116.504	 24.51711	  3.33550	 18.27542	 -2.75069	 26.55909	 -1.27551	 29.95547	704.09003	 23.10	
 18.700	-121.794	 24.54430	  2.20716	 19.64752	 -2.14452	 25.75716	 -1.31889	 29.97351	704.13702	 23.10	
 18.713	-127.067	 24.57172	  1.12589	 21.06103	 -1.43140	 24.82505	 -1.31575	 29.99882	704.18597	 23.10	
 18.705	-132.343	 24.55800	  0.11806	 22.36399	 -0.58238	 23.70893	 -1.31947	 29.97435	704.14398	 23.10	
 18.699	-137.625	 24.54127	 -0.77155	 23.57069	  0.38066	 22.48405	 -1.31520	 29.95997	704.21698	 23.10	
 18.698	-142.952	 24.53926	 -1.57118	 24.65736	  1.42322	 21.20175	 -1.31926	 29.96760	704.25897	 23.10	
 18.704	-148.255	 24.54685	 -2.27602	 25.63388	  2.54016	 19.83239	 -1.30690	 29.98299	704.11200	 23.10	
 18.695	-153.537	 24.54361	 -2.88748	 26.45018	  3.72426	 18.36844	 -1.28074	 29.97801	704.19897	 23.10	
 18.706	-158.818	 24.51659	 -3.50510	 27.13129	  4.96758	 16.83846	 -1.23064	 29.97937	704.14600	 23.10	
 18.691	-164.085	 24.53288	 -3.79085	 27.62670	  6.13911	 15.20867	 -1.21811	 29.97721	704.13702	 23.10	
 18.703	-169.441	 24.53394	 -4.09189	 27.99732	  7.64457	 13.63330	 -1.22892	 29.97521	704.17200	 23.10	
 18.709	-174.675	 24.50082	 -4.19354	 28.15185	  9.11723	 12.07795	 -1.26358	 29.92071	704.15399	 23.10	
 18.700	180.000	 24.54396	 -4.21905	 28.26170	 10.65204	 10.55440	 -1.29067	 29.96908	704.21002	 23.10	
 20.400	180.000	 23.39249	 -6.10603	 28.80921	  9.79662	  9.65918	 -1.22371	 29.93307	704.21698	 23.10	
 20.401	-175.153	 23.42598	 -6.13522	 28.80864	  8.32600	 11.17571	 -1.18770	 29.99199	704.15198	 23.10	
 20.407	-170.264	 23.37227	 -6.02415	 28.57366	  6.82561	 12.70032	 -1.15998	 29.92940	704.06702	 23.10	
 20.410	-165.423	 23.37703	 -5.81820	 28.27423	  5.61682	 14.27320	 -1.13368	 29.94622	704.13000	 23.10	
 20.392	-160.496	 23.39153	 -5.41443	 27.79860	  4.25576	 15.77552	 -1.14996	 29.94094	704.09003	 23.10	
 20.401	-155.705	 23.37618	 -5.02248	 27.20313	  3.01298	 17.37328	 -1.17164	 29.94010	704.06702	 23.10	
 20.405	-150.835	 23.37696	 -4.43660	 26.44716	  1.77381	 18.85738	 -1.21183	 29.94819	704.20300	 23.10	
 20.397	-145.903	 23.41550	 -3.71876	 25.56717	  0.63754	 20.31131	 -1.25268	 29.96932	704.09198	 23.10	
 20.392	-141.062	 23.41643	 -2.92347	 24.54245	 -0.39154	 21.62496	 -1.29097	 29.94761	704.27802	 23.10	
 20.396	-136.227	 23.44132	 -2.11769	 23.44522	 -1.38119	 22.93664	 -1.32226	 29.97892	704.25800	 23.10	
 20.408	-131.372	 23.45033	 -1.22076	 22.21268	 -2.30512	 24.11826	 -1.34807	 29.97804	704.15399	 23.10	
 20.410	-126.511	 23.43058	 -0.20266	 20.87613	 -3.07756	 25.15443	 -1.33085	 29.94683	704.26398	 23.10	
 20.400	-121.604	 23.47427	  0.86989	 19.52197	 -3.77917	 26.15336	 -1.33460	 30.00528	704.25598	 23.10	
 20.403	-116.741	 23.39660	  1.98092	 18.09540	 -4.39046	 26.91792	 -1.22696	 29.94941	704.13202	 23.10	
 20.413	-111.900	 23.36679	  3.14289	 16.58651	 -4.92068	 27.61516	 -1.15361	 29.95684	704.19299	 23.10	
 20.398	-107.004	 23.35997	  4.38146	 14.96301	 -5.23809	 28.15137	 -1.02297	 29.94417	704.21100	 23.00	
 20.394	-102.132	 23.34508	  5.73052	 13.46312	 -5.59126	 28.57081	 -0.92430	 29.96167	704.09198	 23.00	
 20.403	-97.332	 23.33133	  7.20349	 11.96869	 -5.83663	 28.86141	 -0.82845	 29.98174	704.13800	 23.00	
 20.392	-92.440	 23.31701	  8.46433	 10.39938	 -5.86468	 28.95968	 -0.80966	 29.94655	704.07800	 23.00	
 20.392	-87.560	 23.31170	  9.98503	  8.89653	 -5.87412	 28.97611	 -0.79705	 29.95015	704.14600	 23.00	
 20.403	-82.668	 23.28732	 11.52035	  7.39020	 -5.80210	 28.85072	 -0.77817	 29.94482	704.21002	 23.00	
 20.394	-77.868	 23.28760	 13.03966	  6.03629	 -5.59703	 28.59602	 -0.78605	 29.93364	704.14099	 23.10	
 20.398	-72.996	 23.31581	 14.60042	  4.70565	 -5.27306	 28.22346	 -0.78969	 29.94385	704.19598	 23.10	
 20.413	-68.100	 23.34154	 16.20781	  3.44996	 -4.87599	 27.71493	 -0.81103	 29.95979	704.13800	 23.00	
 20.403	-63.259	 23.35946	 17.77696	  2.24927	 -4.46148	 27.05928	 -0.83071	 29.96691	704.15399	 23.00	
 20.400	-58.396	 23.36789	 19.25143	  1.09201	 -3.85778	 26.24634	 -0.88168	 29.96296	704.04199	 23.00	
 20.410	-53.489	 23.34397	 20.67704	 -0.00303	 -3.18424	 25.30232	 -0.88920	 29.96016	704.27197	 23.00	
 20.408	-48.628	 23.33652	 21.99403	 -1.00398	 -2.43402	 24.25993	 -0.92569	 29.96140	704.20203	 23.00	
 20.396	-43.773	 23.37428	 23.27939	 -1.91644	 -1.53956	 23.11077	 -0.89990	 29.99108	704.17499	 23.00	
 20.392	-38.938	 23.34641	 24.39683	 -2.76569	 -0.58049	 21.79831	 -0.90424	 29.94573	704.19598	 23.00	
 20.397	-34.097	 23.33347	 25.42032	 -3.50930	  0.47230	 20.55564	 -0.93305	 29.94073	704.00299	 23.00	
 20.405	-29.165	 23.32307	 26.33722	 -4.16890	  1.56119	 19.10131	 -0.93825	 29.94680	704.05902	 23.00	
 20.401	-24.295	 23.32863	 27.11946	 -4.72445	  2.70325	 17.58413	 -0.94249	 29.94956	704.09900	 23.00	
 20.392	-19.504	 23.31507	 27.73175	 -5.17430	  3.85638	 16.03679	 -0.92507	 29.93165	704.25598	 23.00	
 20.410	-14.577	 23.27969	 28.24447	 -5.63892	  5.21876	 14.47937	 -0.91709	 29.93309	704.30603	 23.00	
 20.407	 -9.736	 23.27635	 28.60906	 -5.92090	  6.41450	 12.93002	 -0.89108	 29.94888	704.23901	 23.00	
 20.401	 -4.847	 23.25738	 28.81377	 -6.07689	  7.88518	 11.43169	 -0.88801	 29.93807	704.23901	 23.00	
 20.400	  0.000	 23.25581	 28.90185	 -6.16607	  9.36040	  9.93443	 -0.85774	 29.94475	704.23102	 23.00	
 20.401	  4.847	 23.24800	 28.86727	 -6.11722	 10.87942	  8.49235	 -0.84854	 29.96235	704.35699	 23.00	
 20.407	  9.736	 23.23223	 28.69364	 -5.96498	 12.39142	  7.15461	 -0.85677	 29.95360	704.42401	 23.00	
 20.410	 14.577	 23.21414	 28.35662	 -5.68144	 13.87062	  5.76805	 -0.86467	 29.92315	704.31799	 23.00	
 20.392	 19.504	 23.25873	 27.92908	 -5.28352	 15.47320	  4.42142	 -0.88051	 29.95352	704.21100	 23.00	
 20.401	 24.295	 23.27388	 27.38625	 -4.92566	 16.99747	  3.25011	 -0.89034	 29.97242	704.10101	 23.00	
 20.405	 29.165	 23.25605	 26.64811	 -4.40013	 18.48723	  2.01751	 -0.92351	 29.96270	704.29797	 23.00	
 20.397	 34.097	 23.22725	 25.77187	 -3.80557	 19.97201	  0.79221	 -0.97125	 29.94176	704.12903	 23.00	
 20.392	 38.938	 23.24170	 24.80478	 -3.14483	 21.32252	 -0.25078	 -1.03916	 29.94980	704.17999	 23.00	
 20.396	 43.773	 23.25020	 23.71160	 -2.40634	 22.59544	 -1.19370	 -1.09763	 29.95475	704.21698	 23.00	
 20.408	 48.628	 23.23442	 22.50245	 -1.53659	 23.78880	 -2.07764	 -1.15823	 29.95845	704.29498	 23.00	
 20.410	 53.489	 23.22813	 21.17786	 -0.52799	 24.88676	 -2.87255	 -1.22803	 29.93900	704.34900	 23.00	
 20.400	 58.396	 23.24877	 19.78197	  0.58402	 25.87912	 -3.55732	 -1.28311	 29.94836	704.19897	 23.00	
 20.403	 63.259	 23.26666	 18.34078	  1.74962	 26.72772	 -4.14453	 -1.30576	 29.96002	704.25000	 23.00	
 20.413	 68.100	 23.27380	 16.84571	  2.93240	 27.41997	 -4.63849	 -1.30470	 29.95708	704.16498	 23.00	
 20.398	 72.996	 23.27132	 15.26150	  4.14701	 27.94265	 -4.92741	 -1.29773	 29.91376	704.11798	 23.00	
 20.394	 77.868	 23.32216	 13.74403	  5.47838	 28.40012	 -5.20563	 -1.21123	 29.95845	704.02698	 23.00	
 20.403	 82.668	 23.33969	 12.28979	  6.76743	 28.68419	 -5.42642	 -1.10195	 29.95370	704.02301	 23.00	
 20.392	 87.560	 23.34753	 10.77813	  8.24155	 28.81022	 -5.53327	 -0.98172	 29.93722	704.13702	 23.00	
 20.392	 92.440	 23.38135	  9.26346	  9.77458	 28.84699	 -5.57937	 -0.89904	 29.95827	704.24701	 23.00	
 20.403	 97.332	 23.40350	  7.72913	 11.35634	 28.74358	 -5.49910	 -0.87904	 29.95703	703.96802	 23.00	
 20.394	102.132	 23.42698	  6.47993	 12.90837	 28.49636	 -5.34874	 -0.87958	 29.95600	703.97498	 23.00	
 20.398	107.004	 23.45276	  5.02070	 14.43502	 28.10207	 -5.07643	 -0.94529	 29.95031	703.99103	 23.00	
 20.413	111.900	 23.44029	  3.72410	 16.00852	 27.57772	 -4.84406	 -0.98771	 29.93456	704.12402	 23.00	
 20.403	116.741	 23.48811	  2.53254	 17.58164	 26.93355	 -4.34923	 -1.07973	 29.96048	704.17700	 23.00	
 20.400	121.604	 23.48368	  1.37615	 19.02143	 26.13902	 -3.73822	 -1.15575	 29.94463	704.06201	 23.00	
 20.410	126.511	 23.50629	  0.24119	 20.49858	 25.22262	 -3.02590	 -1.23443	 29.95161	704.09302	 23.00	
 20.408	131.372	 23.51824	 -0.81556	 21.85402	 24.15819	 -2.22164	 -1.27898	 29.94810	703.98901	 23.00	
 20.396	136.227	 23.55010	 -1.74304	 23.12548	 22.98482	 -1.33936	 -1.30476	 29.96250	704.02301	 23.00	
 20.392	141.062	 23.53824	 -2.60996	 24.28461	 21.72696	 -0.41913	 -1.34158	 29.95945	704.02802	 23.00	
 20.397	145.903	 23.48224	 -3.37966	 25.28631	 20.45067	  0.60194	 -1.37485	 29.90664	704.10101	 23.00	
 20.405	150.835	 23.48006	 -4.12793	 26.24253	 18.90065	  1.74830	 -1.40969	 29.92575	704.10400	 23.00	
 20.401	155.705	 23.48643	 -4.79193	 27.03554	 17.48149	  2.92367	 -1.38454	 29.95769	704.10901	 23.00	
 20.392	160.496	 23.48534	 -5.30607	 27.68351	 15.87744	  4.10421	 -1.37286	 29.97023	704.10699	 23.00	
 20.410	165.423	 23.44764	 -5.62858	 28.18297	 14.24572	  5.50961	 -1.35317	 29.95803	704.04199	 23.00	
 20.407	170.264	 23.41106	 -5.89285	 28.50933	 12.78855	  6.89370	 -1.33020	 29.93334	704.06799	 23.00	
 20.401	175.153	 23.42297	 -6.08104	 28.76461	 11.32482	  8.27647	 -1.29500	 29.96852	704.10901	 23.00	
  0.141	 45.000	 29.96754	 15.50422	 15.17562	 15.51381	 15.56450	  0.44199	 29.92108	704.16803	 23.00	
  4.001	128.691	 29.89572	 12.72256	 17.37132	 18.30201	 12.36399	  0.34311	 29.94608	704.14600	 23.00	
  4.002	 76.995	 29.87157	 16.09684	 14.08646	 18.98734	 11.66321	  0.33381	 29.94055	704.12299	 23.00	
  4.002	 25.892	 29.86783	 18.77667	 11.48644	 16.84470	 13.69669	  0.33326	 29.93541	703.99701	 23.00	
  4.002	-25.892	 29.91281	 18.79237	 11.55249	 13.51308	 17.09292	  0.30740	 29.98263	703.98199	 23.00	
  4.002	-76.995	 29.90242	 16.00750	 14.21477	 11.38664	 19.26700	  0.29872	 29.96249	704.07800	 23.00	
  4.001	-128.691	 29.87597	 12.63200	 17.50210	 12.17389	 18.50793	  0.30772	 29.93077	703.97803	 23.00	
  4.000	180.000	 29.86850	 11.35150	 18.94566	 15.18522	 15.42351	  0.33130	 29.92019	703.89502	 23.00	
  8.000	180.000	 29.29541	  7.24762	 22.07721	 14.48311	 14.69515	 -0.17498	 29.97240	704.03400	 23.00	
  7.991	-152.370	 29.28766	  7.93688	 21.18729	 10.96745	 18.39759	 -0.17298	 29.97620	703.92603	 23.00	
  7.997	-124.550	 29.25846	 10.13748	 18.83794	  8.38033	 21.10835	 -0.20168	 29.94448	703.97803	 23.00	
  8.006	-96.837	 29.26038	 13.24335	 15.30657	  7.25922	 22.34289	 -0.27919	 29.95741	703.97803	 23.00	
  7.988	-69.228	 29.23646	 17.10646	 11.58873	  7.64282	 21.86920	 -0.28689	 29.94485	704.01398	 23.00	
  7.997	-41.563	 29.23204	 20.27269	  8.83931	  9.46467	 19.91971	 -0.24264	 29.96070	704.04199	 23.00	
  8.008	-13.821	 29.23215	 21.92840	  7.30805	 12.44690	 16.57174	 -0.21063	 29.95645	703.94098	 23.00	
  8.008	 13.821	 29.19447	 21.95178	  7.25719	 16.26412	 12.70685	 -0.19522	 29.92592	703.95502	 23.00	
  7.997	 41.563	 29.22174	 20.40861	  8.67478	 19.59734	  9.76462	 -0.12965	 29.96643	704.02698	 23.00	
  7.988	 69.228	 29.25492	 17.31631	 11.39749	 21.61621	  7.88288	 -0.11532	 29.97999	703.89801	 23.00	
  8.006	 96.837	 29.25290	 13.51730	 15.03531	 22.09617	  7.47735	 -0.17850	 29.95441	703.96600	 23.00	
  7.997	124.550	 29.25595	 10.32907	 18.62524	 20.73773	  8.64212	 -0.16038	 29.91657	703.97998	 23.00	
  7.991	152.370	 29.26859	  8.05353	 21.05902	 18.13238	 11.13875	 -0.14120	 29.92744	703.96802	 23.00	
 12.009	161.059	 28.02940	  3.60519	 24.11540	 17.11059	  9.86515	 -0.68843	 29.95993	703.84198	 23.00	
 12.013	142.081	 28.00597	  5.00990	 22.16722	 20.50560	  6.71240	 -0.67457	 29.92668	703.88098	 23.00	
 12.006	123.113	 28.02758	  7.42604	 19.24628	 23.00902	  4.87200	 -0.77955	 29.95246	703.97198	 23.00	
 12.007	104.200	 27.98968	 10.69793	 15.70173	 24.53645	  3.54144	 -0.81237	 29.95915	703.92902	 23.00	
 11.989	 85.301	 27.98286	 14.30607	 11.85716	 24.79871	  3.35690	 -0.76361	 29.96850	703.97101	 23.00	
 12.013	 66.294	 27.89759	 18.11913	  8.43173	 23.76771	  4.07677	 -0.63522	 29.92052	703.91901	 23.00	
 12.012	 47.388	 27.88288	 21.30236	  5.58820	 21.62746	  5.82025	 -0.64418	 29.93350	704.00299	 23.00	
 11.990	 28.440	 27.88710	 23.55963	  3.65828	 18.76753	  8.32263	 -0.77990	 29.93498	703.93201	 23.00	
 11.991	  9.464	 27.91026	 24.78524	  2.88122	 15.10423	 11.62329	 -0.81353	 29.96249	704.05103	 23.00	
 11.991	 -9.464	 27.89897	 24.69713	  2.92115	 11.26910	 15.37637	 -0.81415	 29.91709	704.07501	 23.00	
 11.990	-28.440	 27.92802	 23.42963	  3.82133	  7.97395	 19.07559	 -0.82371	 29.95792	703.97803	 23.00	
 12.012	-47.388	 27.93231	 21.07450	  5.81734	  5.21827	 22.04613	 -0.85589	 29.94166	704.04199	 23.00	
 12.013	-66.294	 27.93708	 17.80023	  8.75417	  3.65511	 24.14808	 -0.90082	 29.95738	704.12598	 23.00	
 11.989	-85.301	 27.93638	 13.83814	 12.17551	  3.08828	 25.03072	 -0.89552	 29.91247	704.09198	 23.00	
 12.007	-104.200	 27.97960	 10.36442	 16.07003	  3.28386	 24.78724	 -0.88516	 29.96600	703.85602	 23.00	
 12.006	-123.113	 27.95489	  7.12714	 19.56842	  4.36259	 23.18562	 -0.73412	 29.93138	703.97101	 23.00	
 12.013	-142.081	 27.94271	  4.77453	 22.36671	  6.55611	 20.58684	 -0.71789	 29.92010	703.93298	 23.00	
 12.009	-161.059	 27.96197	  3.49196	 24.17118	  9.70707	 17.22089	 -0.75507	 29.91675	703.96802	 23.00	
 16.000	180.000	 26.12344	 -1.21167	 27.06173	 11.79540	 11.81419	 -1.23290	 29.93163	704.02698	 23.00	
 15.990	-165.604	 26.11364	 -0.91318	 26.58445	  8.25989	 15.53950	 -1.23483	 29.92555	703.89301	 23.00	
 16.002	-151.165	 26.09470	  0.04608	 25.20178	  5.12650	 19.21606	 -1.23487	 29.95469	703.95099	 23.00	
 16.002	-136.836	 26.07715	  1.79785	 22.85143	  2.52891	 22.29413	 -1.15885	 29.94050	703.91602	 23.00	
 15.995	-122.439	 26.06843	  4.16836	 19.81392	  0.57415	 24.80630	 -1.15026	 29.91153	704.01099	 23.00	
 15.993	-107.966	 26.06813	  7.01614	 16.37047	 -0.66932	 26.54489	 -1.18227	 29.94324	704.00500	 23.00	
 16.005	-93.629	 26.02827	 10.46473	 12.59015	 -1.27159	 27.28843	 -1.04613	 29.93128	703.99597	 23.00	
 15.992	-79.234	 26.03800	 14.12460	  8.94252	 -1.05380	 27.09003	 -0.95748	 29.97348	704.05798	 23.00	
 16.009	-64.774	 26.01432	 17.91985	  5.60273	 -0.22992	 25.89300	 -1.01574	 29.93967	704.02002	 23.00	
 15.997	-50.364	 26.05743	 21.34842	  3.03559	  1.38809	 23.81667	 -1.05096	 29.96704	704.04199	 23.00	
 15.997	-36.045	 26.03066	 24.05816	  0.82662	  3.56876	 21.03029	 -1.05240	 29.96895	704.11200	 23.00	
 16.000	-21.597	 26.01199	 25.97422	 -0.55464	  6.28882	 17.60909	 -1.08668	 29.92332	703.97101	 23.00	
 16.003	 -7.169	 25.98556	 27.01997	 -1.30569	  9.72746	 13.78737	 -1.07810	 29.91236	704.02301	 23.00	
 16.003	  7.169	 25.98067	 27.08640	 -1.38214	 13.26521	 10.18849	 -1.01462	 29.92617	704.16803	 23.00	
 16.000	 21.597	 25.94796	 26.15387	 -0.79662	 17.13673	  6.94944	 -1.06456	 29.93510	703.98602	 23.00	
 15.997	 36.045	 25.94513	 24.28969	  0.59272	 20.47323	  4.00215	 -1.10280	 29.92607	704.10602	 23.00	
 15.997	 50.364	 25.96312	 21.65116	  2.64189	 23.36299	  1.74785	 -1.05953	 29.93761	704.06097	 23.00	
 16.009	 64.774	 26.01890	 18.43640	  5.14496	 25.56473	  0.07915	 -1.11104	 29.97639	704.09302	 23.00	
 15.992	 79.234	 26.01259	 14.63427	  8.44606	 26.82627	 -0.79004	 -1.15595	 29.92240	704.02698	 23.00	
 16.005	 93.629	 26.08018	 11.03033	 12.07806	 27.11045	 -0.98501	 -1.11090	 29.95089	704.02698	 23.00	
 15.993	107.966	 26.14951	  7.48516	 15.91147	 26.41130	 -0.47004	 -1.16532	 29.95709	703.98901	 23.00	
 15.995	122.439	 26.18204	  4.58309	 19.47914	 24.73954	  0.74747	 -1.24317	 29.95408	704.10101	 23.00	
 16.002	136.836	 26.19695	  2.15394	 22.60428	 22.27714	  2.66902	 -1.18274	 29.96844	704.16101	 22.90	
 16.002	151.165	 26.14275	  0.31466	 24.94742	 19.22834	  5.37001	 -1.18806	 29.91638	704.21698	 23.00	
 15.990	165.604	 26.15091	 -0.80163	 26.49950	 15.58842	  8.25831	 -1.21627	 29.93101	704.22498	 23.00	
 20.003	168.362	 23.67343	 -5.35671	 28.24704	 13.46866	  6.61165	 -1.34717	 29.90295	704.21399	 22.90	
 20.008	156.764	 23.71584	 -4.48782	 27.05793	 17.22178	  3.44743	 -1.39816	 29.93121	704.09302	 23.00	
 20.000	145.147	 23.75540	 -2.86089	 25.06736	 20.67901	  0.79933	 -1.37819	 29.90992	704.05103	 22.90	
 19.995	133.545	 23.79176	 -0.87673	 22.40182	 23.58351	 -1.44701	 -1.29918	 29.93517	704.15198	 22.90	
 20.009	121.926	 23.73595	  1.61100	 19.15008	 25.97708	 -3.30032	 -1.18720	 29.91153	703.98199	 22.90	
 20.005	110.327	 23.70037	  4.39821	 15.59373	 27.63278	 -4.53623	 -0.97163	 29.93253	704.15698	 23.00	
 19.989	 98.733	 23.67177	  7.54164	 11.96271	 28.52025	 -5.01496	 -0.87821	 29.92116	704.08502	 22.90	
 19.999	 87.075	 23.59911	 11.09490	  8.33012	 28.64038	 -5.11085	 -1.00940	 29.90675	704.01898	 22.90	
 19.992	 75.457	 23.59056	 14.60792	  5.12426	 28.02133	 -4.59270	 -1.27530	 29.90047	704.02698	 22.90	
 20.009	 63.844	 23.51053	 18.19662	  2.20797	 26.64268	 -3.77365	 -1.31037	 29.88854	704.05298	 23.00	
 19.989	 52.269	 23.52007	 21.51690	 -0.41220	 24.53539	 -2.25293	 -1.23072	 29.92789	704.07599	 22.90	
 19.999	 40.602	 23.46095	 24.33230	 -2.51871	 21.68879	 -0.23303	 -1.07129	 29.88177	704.03003	 22.90	
 20.004	 29.051	 23.52119	 26.56505	 -4.00004	 18.49081	  2.37050	 -0.94566	 29.93688	704.18799	 22.90	
 20.005	 17.433	 23.49829	 27.98383	 -5.00889	 14.91064	  5.21348	 -0.88590	 29.91593	704.12598	 22.90	
 20.006	  5.780	 23.49387	 28.67851	 -5.61627	 11.33540	  8.39043	 -0.85946	 29.92043	704.08899	 22.90	
 20.006	 -5.780	 23.52426	 28.64883	 -5.61782	  7.84879	 11.89971	 -0.91339	 29.93517	704.21600	 22.90	
 20.005	-17.433	 23.56918	 27.83864	 -4.94114	  4.66904	 15.51075	 -0.92979	 29.92625	704.11499	 22.90	
 20.004	-29.051	 23.58168	 26.25955	 -3.80122	  1.89845	 19.10340	 -0.94902	 29.92953	704.05798	 22.90	
 19.999	-40.602	 23.59443	 23.96176	 -2.12910	 -0.55826	 22.21603	 -0.93432	 29.91964	703.98798	 22.90	
 19.989	-52.269	 23.60770	 21.02919	  0.08531	 -2.61576	 24.97860	 -0.90723	 29.94507	704.09302	 22.90	
 20.009	-63.844	 23.60177	 17.65438	  2.68009	 -4.11686	 27.01289	 -0.84703	 29.93361	704.01300	 22.90	
 19.992	-75.457	 23.56438	 13.95953	  5.58899	 -5.00470	 28.25370	 -0.80234	 29.89248	704.09003	 22.90	
 19.999	-87.075	 23.55710	 10.35205	  8.93415	 -5.43067	 28.77419	 -0.78354	 29.88392	704.06702	 22.90	
 19.989	-98.733	 23.57228	  7.02265	 12.55606	 -5.34676	 28.59969	 -0.86843	 29.90653	704.00299	 22.90	
 20.005	-110.327	 23.63438	  3.85063	 16.09901	 -4.56228	 27.66051	 -1.13016	 29.91806	703.96399	 22.90	
 20.009	-121.926	 23.68418	  1.13601	 19.57985	 -3.33318	 25.94570	 -1.32485	 29.91847	704.11499	 22.90	
 19.995	-133.545	 23.69292	 -1.24483	 22.72181	 -1.52404	 23.51786	 -1.33035	 29.93782	704.05298	 22.90	
 20.000	-145.147	 23.64107	 -3.12531	 25.27496	  0.82501	 20.51357	 -1.27270	 29.88763	704.01898	 22.90	
 20.008	-156.764	 23.61820	 -4.69085	 27.20862	  3.56262	 17.10160	 -1.18264	 29.90326	704.05402	 22.90	
 20.003	-168.362	 23.62699	 -5.50412	 28.31946	  6.50044	 13.45221	 -1.15950	 29.90883	704.09900	 22.90	
 20.000	180.000	 23.63755	 -5.65832	 28.65620	  9.99172	  9.85982	 -1.24262	 29.90377	704.03003	 22.90	
