FileType=PCF
NHL=14
Date=05/29/19	12:14:12
Facility=APL
Serial=16071-11
Customer=NASA
NP=6
Mach=0.550000
Calibration=1:1
CalPts=490
TstPts=95
PortNumbering=AP Standard
Units=Torr C m/s kg/m^3 deg mm 
Theta[deg]	Phi[deg]	P1[Torr]	P2[Torr]	P3[Torr]	P4[Torr]	P5[Torr]	P6[Torr]	Pt[Torr]	Ps[Abs,Torr]	Ts[C]	
  0.000	  0.000	160.87103	 76.33707	 76.18585	 71.20731	 75.70486	  6.28471	160.74036	701.90997	 43.20	
  1.691	128.401	160.94875	 71.33530	 81.03089	 77.63625	 69.00215	  6.18558	160.83292	701.92999	 43.20	
  1.692	 77.194	160.92912	 77.83913	 74.49241	 79.37366	 67.18504	  6.23298	160.82034	701.79999	 43.20	
  1.699	 26.182	160.97748	 83.05613	 69.09798	 75.12961	 71.77859	  6.21099	160.87234	701.85999	 43.20	
  1.699	-26.182	160.98169	 83.09136	 68.99886	 67.79666	 78.82185	  6.18610	160.87886	701.90002	 43.20	
  1.692	-77.194	160.99255	 77.99078	 74.25014	 63.42021	 82.86344	  6.12242	160.90202	701.84003	 43.20	
  1.691	-128.401	161.03842	 71.48195	 80.82542	 64.70520	 81.49751	  6.11587	160.94891	701.95001	 43.30	
  1.700	180.000	161.02110	 68.50001	 83.83763	 70.95904	 75.61843	  6.09565	160.90228	701.96002	 43.30	
  3.400	180.000	160.88028	 59.60196	 91.64382	 70.25781	 75.24339	  5.61030	160.93930	701.87000	 43.30	
  3.388	-152.325	160.85362	 61.67813	 89.37835	 62.46054	 82.23785	  5.61878	160.94429	701.78003	 43.30	
  3.397	-124.529	160.84787	 67.03498	 84.06910	 56.98825	 88.00018	  5.65250	160.95000	701.77002	 43.30	
  3.399	-96.763	160.82178	 74.21065	 77.02320	 54.72196	 90.64132	  5.68368	160.95996	701.91998	 43.30	
  3.394	-69.283	160.82336	 81.23859	 69.66940	 55.96555	 89.57246	  5.69787	160.97040	701.81000	 43.30	
  3.400	-41.398	160.79529	 87.69206	 63.50583	 60.51201	 84.85568	  5.72512	160.96344	701.79999	 43.40	
  3.401	-14.021	160.79446	 91.15691	 60.30584	 67.34801	 78.43602	  5.76534	160.95776	701.83002	 43.50	
  3.401	 14.021	160.82568	 91.03300	 60.42067	 75.43214	 70.55167	  5.84431	160.96440	701.90002	 43.60	
  3.400	 41.398	160.84076	 87.35918	 63.88692	 82.29088	 63.66059	  5.86989	160.96529	701.92999	 43.60	
  3.394	 69.283	160.91379	 81.14549	 70.28278	 86.54910	 59.65846	  5.91457	160.97899	701.94000	 43.50	
  3.399	 96.763	160.94482	 73.98005	 77.84096	 87.21555	 58.95994	  5.88907	160.99791	701.90002	 43.50	
  3.397	124.529	160.91852	 66.99287	 84.66150	 84.25708	 61.53745	  5.78326	160.95767	701.94000	 43.50	
  3.388	152.325	160.98206	 61.60311	 89.74023	 78.17450	 67.25677	  5.69882	161.00679	701.85999	 43.50	
  5.099	161.165	160.37527	 52.76266	 97.81650	 77.41473	 66.10418	  4.99760	161.00813	701.87000	 43.50	
  5.109	142.013	160.44846	 56.06116	 94.03781	 84.84182	 59.53932	  5.10057	161.05786	701.75000	 43.50	
  5.095	123.033	160.39299	 62.00068	 87.85120	 90.56851	 54.44986	  5.23143	161.03607	701.77002	 43.60	
  5.105	104.191	160.40599	 69.35063	 81.01342	 94.19269	 51.42751	  5.26493	161.06149	701.71002	 43.70	
  5.093	 85.207	160.35609	 76.99722	 73.14205	 94.93946	 50.85896	  5.30725	161.07896	701.81000	 43.70	
  5.104	 66.290	160.31297	 84.34187	 65.31211	 93.16494	 52.51001	  5.32549	161.10039	701.72998	 43.70	
  5.094	 47.331	160.27596	 91.00803	 59.04578	 88.71920	 56.41030	  5.31281	161.09888	701.76001	 43.70	
  5.089	 28.397	160.27637	 95.86626	 54.69661	 82.51735	 61.99459	  5.30396	161.13507	701.79999	 43.70	
  5.096	  9.576	160.18045	 98.67219	 52.15705	 74.87692	 68.93471	  5.23570	161.09880	701.76001	 43.70	
  5.096	 -9.576	160.13388	 98.75546	 51.93747	 66.59263	 77.66100	  5.22586	161.05969	701.67999	 43.80	
  5.089	-28.397	160.11569	 96.15585	 54.22226	 59.16349	 84.49693	  5.14950	161.03220	701.67999	 43.80	
  5.094	-47.331	160.18321	 91.13088	 58.45469	 53.00619	 91.14054	  5.17691	161.11647	701.64001	 43.80	
  5.104	-66.290	160.18851	 84.50535	 64.31189	 48.63990	 95.90198	  5.11158	161.11618	701.77002	 43.80	
  5.093	-85.207	160.20949	 77.06780	 72.25014	 46.70341	 98.06458	  5.08003	161.07999	701.78003	 43.90	
  5.105	-104.191	160.23630	 69.48880	 79.91354	 47.00093	 97.46742	  5.02203	161.06310	701.70001	 43.90	
  5.095	-123.033	160.34056	 61.74751	 87.11932	 50.00712	 94.28480	  5.02570	161.11208	701.71997	 44.00	
  5.109	-142.013	160.43398	 56.40983	 93.40484	 54.45849	 88.93268	  5.01829	161.13718	701.90997	 44.00	
  5.099	-161.165	160.44331	 53.12583	 97.39455	 61.08840	 81.83485	  4.96571	161.09198	701.89001	 44.00	
  5.100	180.000	160.57509	 51.83847	 98.90755	 69.29470	 74.60523	  4.93368	161.21570	701.78998	 44.00	
  6.800	180.000	159.50510	 43.87534	105.68103	 67.82860	 73.56285	  4.36665	161.19504	701.82001	 44.10	
  6.796	-166.229	159.48436	 44.79675	104.57950	 60.11241	 80.95132	  4.43787	161.20512	701.78998	 44.10	
  6.808	-152.311	159.37259	 47.31483	101.57175	 52.95064	 87.99789	  4.49156	161.13631	701.92999	 44.10	
  6.795	-138.383	159.32628	 51.21635	 96.98180	 47.32757	 94.49010	  4.53259	161.20352	701.84998	 44.00	
  6.792	-124.591	159.27716	 56.03851	 90.80804	 43.11976	 99.73923	  4.52527	161.19698	701.83002	 44.00	
  6.787	-110.754	159.18713	 62.55911	 83.85960	 39.89922	103.35346	  4.55057	161.20892	701.85999	 44.00	
  6.800	-96.985	159.02582	 70.47550	 76.49872	 38.06318	105.21045	  4.59346	161.14270	701.90997	 44.00	
  6.800	-83.015	158.98506	 77.94276	 68.53430	 38.33537	105.11393	  4.63857	161.17659	701.84998	 44.10	
  6.787	-69.246	158.98026	 85.11678	 61.28207	 40.28339	102.98235	  4.65744	161.19618	701.89001	 44.10	
  6.792	-55.409	158.96275	 91.84901	 55.26928	 43.67175	 99.15469	  4.68096	161.21332	701.91998	 44.10	
  6.795	-41.617	158.94331	 97.96189	 50.27539	 48.53928	 93.50797	  4.72592	161.18549	701.85999	 44.10	
  6.808	-27.689	158.98955	102.58511	 46.49621	 54.67331	 86.72453	  4.71522	161.21375	701.77002	 44.10	
  6.796	-13.771	158.96884	105.32935	 44.10669	 62.23338	 79.82700	  4.77236	161.18837	701.88000	 44.10	
  6.800	  0.000	159.01323	106.18252	 43.45831	 69.98283	 71.65101	  4.74565	161.20859	701.83002	 44.00	
  6.796	 13.771	159.03525	105.17876	 44.43702	 77.69461	 64.10178	  4.71347	161.22757	701.84003	 44.00	
  6.808	 27.689	159.09888	102.29639	 47.03124	 85.08208	 57.32703	  4.71949	161.25044	701.84003	 44.10	
  6.795	 41.617	159.11357	 97.85810	 50.99724	 91.56596	 51.57916	  4.73086	161.24680	701.76001	 44.10	
  6.792	 55.409	159.17476	 91.73169	 55.84662	 96.80383	 47.35963	  4.65154	161.22211	701.89001	 44.10	
  6.787	 69.246	159.24942	 84.96865	 62.37733	100.40957	 44.34955	  4.67617	161.24507	701.87000	 44.20	
  6.800	 83.015	159.31473	 77.77169	 70.17345	102.26939	 42.57983	  4.67514	161.24107	701.88000	 44.30	
  6.800	 96.985	159.44218	 70.19509	 78.01073	102.07180	 42.69826	  4.65460	161.26495	701.83002	 44.30	
  6.787	110.754	159.55644	 62.82233	 85.22200	100.01024	 44.62430	  4.71856	161.30557	701.84998	 44.30	
  6.792	124.591	159.53653	 55.61618	 91.98129	 96.05442	 47.89177	  4.70290	161.26395	701.85999	 44.30	
  6.795	138.383	159.57170	 50.86231	 97.99969	 90.43266	 52.49084	  4.61369	161.27606	701.91998	 44.40	
  6.808	152.311	159.58987	 47.01992	102.35019	 83.60793	 58.68079	  4.48265	161.27643	701.87000	 44.40	
  6.796	166.229	159.60652	 44.69666	104.92371	 76.09813	 65.50353	  4.42760	161.28311	701.84003	 44.30	
  8.491	168.704	158.06372	 36.34273	112.16458	 74.65560	 64.19459	  4.20222	161.31039	701.84998	 44.30	
  8.502	157.493	158.07127	 38.11619	109.82853	 82.39895	 57.07232	  4.26788	161.30991	701.87000	 44.30	
  8.494	146.194	158.06700	 41.50064	105.81086	 89.63835	 50.49676	  4.31084	161.30260	701.84003	 44.30	
  8.495	135.039	157.99236	 45.79158	100.81052	 96.32269	 44.89205	  4.38532	161.24986	701.78998	 44.30	
  8.487	123.723	157.96461	 51.23911	 94.60629	101.79916	 40.37321	  4.37659	161.30428	701.77002	 44.30	
  8.492	112.575	157.89757	 56.83657	 87.91020	105.75922	 36.99857	  4.29444	161.27467	701.84003	 44.30	
  8.510	101.220	157.82475	 64.79446	 80.37811	108.42680	 34.72827	  4.15634	161.29211	701.91998	 44.20	
  8.500	 90.000	157.70604	 72.62832	 72.52956	109.34211	 34.13288	  4.13413	161.25417	701.83002	 44.20	
  8.510	 78.780	157.61702	 80.27943	 64.70424	108.82561	 34.64014	  4.15972	161.29912	701.89001	 44.20	
  8.492	 67.425	157.56335	 87.60210	 57.15607	106.36658	 36.78686	  4.15224	161.30597	701.90002	 44.20	
  8.487	 56.277	157.50188	 94.52887	 51.19869	102.46629	 39.97987	  4.23266	161.29132	701.94000	 44.20	
  8.495	 44.961	157.41394	100.76405	 45.78237	 97.30013	 44.08078	  4.27518	161.29071	701.85999	 44.20	
  8.494	 33.806	157.35283	105.97428	 41.38052	 90.87856	 49.17276	  4.34623	161.26762	701.78003	 44.30	
  8.502	 22.507	157.31261	109.80412	 37.98146	 83.97527	 55.25025	  4.41654	161.29292	701.87000	 44.30	
  8.491	 11.296	157.22037	112.08521	 35.91088	 76.39310	 62.34388	  4.43930	161.26944	701.85999	 44.30	
  8.500	  0.000	157.22374	112.91729	 35.24215	 68.48196	 69.91502	  4.52730	161.26140	701.90002	 44.30	
  8.491	-11.296	157.25092	112.04465	 35.68158	 60.55854	 78.34223	  4.57502	161.27940	701.79999	 44.30	
  8.502	-22.507	157.19983	109.84211	 37.50624	 52.68066	 85.54303	  4.57447	161.24744	701.78003	 44.20	
  8.494	-33.806	157.18721	106.03368	 40.68529	 46.49848	 92.56440	  4.55421	161.22861	701.89001	 44.20	
  8.495	-44.961	157.22954	100.99219	 44.87973	 40.86544	 99.10463	  4.59088	161.27258	701.90997	 44.30	
  8.487	-56.277	157.27820	 94.43591	 50.14413	 36.24670	104.75146	  4.56489	161.30983	701.81000	 44.20	
  8.492	-67.425	157.21803	 87.75636	 55.69864	 32.75766	108.57829	  4.47467	161.24326	701.84003	 44.30	
  8.510	-78.780	157.29303	 80.47799	 62.94075	 30.54176	111.34417	  4.45610	161.28642	701.78998	 44.30	
  8.500	-90.000	157.31972	 72.88383	 70.58614	 29.92338	112.16875	  4.44672	161.28438	701.91998	 44.30	
  8.510	-101.220	157.40092	 65.14117	 78.54372	 30.25807	111.44741	  4.39936	161.26343	701.84003	 44.30	
  8.492	-112.575	157.59119	 57.48075	 86.03155	 32.40691	109.11021	  4.35345	161.27441	701.81000	 44.30	
  8.487	-123.723	157.69957	 51.68659	 93.10111	 35.59137	105.45267	  4.30366	161.27432	701.82001	 44.30	
  8.495	-135.039	157.84282	 46.38222	 99.61388	 39.78925	100.31670	  4.29514	161.31039	701.85999	 44.30	
  8.494	-146.194	157.86279	 41.92912	104.80008	 45.27913	 94.04904	  4.32965	161.23816	701.84998	 44.30	
  8.502	-157.493	157.95006	 38.64988	108.97182	 51.07226	 87.09177	  4.33428	161.25763	701.76001	 44.40	
  8.491	-168.704	158.02531	 36.50848	111.70638	 58.37165	 80.09141	  4.22331	161.27023	701.81000	 44.50	
  8.500	180.000	157.99652	 35.72990	112.75281	 66.51569	 72.17491	  4.20355	161.24423	701.71002	 44.60	
 10.200	180.000	156.03867	 27.91409	118.97459	 64.62973	 70.32291	  4.32361	161.28633	701.71002	 44.70	
 10.191	-170.497	155.99242	 28.33539	118.03898	 56.22484	 78.54974	  4.38192	161.27147	701.78003	 44.70	
 10.210	-161.034	155.95145	 29.92910	115.80640	 49.11937	 86.11434	  4.42983	161.28763	701.83002	 44.80	
 10.194	-151.526	155.90182	 32.69770	112.40792	 42.84715	 92.98965	  4.39522	161.32300	701.78998	 44.80	
 10.190	-142.105	155.81575	 36.60445	107.41034	 37.04946	 99.70263	  4.41082	161.29373	701.84998	 44.80	
 10.215	-132.646	155.72971	 41.05283	101.87152	 31.97644	105.83284	  4.47035	161.35036	701.87000	 44.80	
 10.203	-123.092	155.60017	 46.81551	 95.02931	 27.00137	110.78083	  4.50887	161.33174	701.81000	 44.80	
 10.192	-113.678	155.46263	 52.86996	 88.03146	 24.26994	114.60258	  4.48083	161.36917	701.69000	 44.70	
 10.208	-104.249	155.26199	 59.05539	 80.33147	 22.32917	117.39256	  4.49324	161.33453	701.75000	 44.70	
 10.210	-94.801	155.13124	 67.24894	 72.28628	 21.48109	118.73632	  4.51658	161.35417	701.75000	 44.60	
 10.210	-85.199	154.99057	 75.17556	 64.34367	 21.46606	118.60550	  4.55960	161.32280	701.72998	 44.60	
 10.208	-75.751	154.95006	 82.70904	 56.83987	 22.49899	117.07456	  4.59217	161.34483	701.77002	 44.50	
 10.192	-66.322	154.92413	 89.97278	 50.57147	 24.89321	113.99266	  4.64673	161.34511	701.84998	 44.50	
 10.203	-56.908	154.91815	 96.79508	 44.67081	 28.30170	109.94463	  4.64923	161.33420	701.72998	 44.50	
 10.215	-47.354	154.84489	103.47885	 39.10620	 32.73413	104.68958	  4.69906	161.31389	701.71002	 44.50	
 10.190	-37.895	154.94507	108.93280	 34.82909	 38.24294	 98.21990	  4.68214	161.30847	701.73999	 44.60	
 10.194	-28.474	154.95949	113.25519	 31.32646	 44.24273	 91.47513	  4.65537	161.33179	701.66998	 44.60	
 10.210	-18.966	154.93111	116.77659	 28.79144	 50.94366	 84.12400	  4.69733	161.31525	701.65002	 44.70	
 10.191	 -9.503	154.98441	118.98775	 27.39820	 58.58403	 76.23662	  4.68081	161.35870	701.62000	 44.70	
 10.200	  0.000	154.99432	119.59447	 27.13276	 66.65351	 68.08752	  4.58491	161.34895	701.71002	 44.70	
 10.191	  9.503	155.04964	118.66366	 27.73586	 74.83015	 60.45387	  4.53726	161.37772	701.66998	 44.70	
 10.210	 18.966	155.05727	116.50460	 29.42109	 82.54384	 53.22772	  4.48325	161.35965	701.75000	 44.60	
 10.194	 28.474	155.09087	113.21111	 32.20282	 89.69341	 46.71568	  4.40631	161.34502	701.77002	 44.60	
 10.190	 37.895	155.16721	108.68828	 36.01484	 96.73341	 41.09085	  4.25376	161.38913	701.78003	 44.70	
 10.215	 47.354	155.20575	103.20287	 40.56467	102.79741	 36.49730	  4.21361	161.36296	701.81000	 44.70	
 10.203	 56.908	155.30861	 96.41351	 46.23396	108.11263	 32.60411	  4.11448	161.36658	701.65997	 44.80	
 10.192	 66.322	155.34186	 89.66982	 52.33171	111.88090	 29.46103	  4.02677	161.34389	701.75000	 44.80	
 10.208	 75.751	155.47060	 82.44859	 59.13052	114.79883	 27.18380	  4.01542	161.38710	701.65997	 44.90	
 10.210	 85.199	155.57269	 74.64152	 66.92438	116.17649	 26.05326	  4.01939	161.39455	701.70001	 44.90	
 10.210	 94.801	155.68005	 66.65257	 74.81805	116.02869	 26.09945	  4.00970	161.37704	701.75000	 44.90	
 10.208	104.249	155.73764	 58.57579	 82.70735	114.39465	 27.21715	  4.06321	161.35905	701.79999	 44.90	
 10.192	113.678	155.89891	 52.11300	 90.39008	111.37490	 29.54445	  4.27674	161.37836	701.83002	 44.90	
 10.203	123.092	155.96704	 46.19240	 96.99716	107.22681	 32.76560	  4.33030	161.38864	701.79999	 44.90	
 10.215	132.646	156.00839	 40.46728	103.39418	101.89492	 37.13248	  4.39609	161.38000	701.81000	 45.00	
 10.190	142.105	156.09508	 35.96021	108.89420	 95.42855	 42.50672	  4.44918	161.37352	701.73999	 45.10	
 10.194	151.526	156.18423	 32.36231	113.53534	 88.20456	 48.53832	  4.42385	161.40404	701.81000	 45.10	
 10.210	161.034	156.11638	 29.63074	116.75554	 80.77249	 55.27389	  4.33308	161.37785	701.78998	 45.10	
 10.191	170.497	156.15453	 28.46928	118.53690	 72.79289	 62.65295	  4.27979	161.38869	701.82001	 45.10	
 11.899	171.783	153.63203	 20.04327	124.75784	 70.43794	 60.71819	  4.50389	161.40714	701.73999	 45.10	
 11.890	163.610	153.62244	 21.23227	123.15740	 78.51149	 53.30185	  4.51922	161.40744	701.84998	 45.10	
 11.889	155.445	153.68285	 23.54977	120.14517	 86.23753	 46.41461	  4.70990	161.39555	701.72998	 45.10	
 11.909	147.299	153.57552	 26.56459	116.34314	 93.67183	 40.02539	  4.70705	161.40189	701.77002	 45.20	
 11.902	139.148	153.61343	 30.58402	111.28439	100.73099	 34.41423	  4.75072	161.44179	701.71002	 45.20	
 11.894	130.867	153.56844	 35.49984	105.29840	107.06893	 29.41336	  4.48437	161.44916	701.76001	 45.10	
 11.897	122.732	153.45778	 40.61311	 98.91219	112.39814	 25.26193	  4.44820	161.47809	701.62000	 45.10	
 11.903	114.597	153.25047	 46.64605	 92.08471	116.56103	 21.85178	  4.44693	161.39017	701.71002	 45.10	
 11.893	106.346	153.18039	 53.46220	 84.52893	119.88849	 19.49892	  4.23304	161.42101	701.71002	 45.10	
 11.892	 98.155	153.07045	 60.54847	 76.41377	121.90969	 18.17238	  4.19383	161.38832	701.72998	 45.10	
 11.900	 90.000	152.95908	 68.25668	 68.65530	122.65452	 17.73160	  4.21388	161.43536	701.84998	 45.20	
 11.892	 81.845	152.83463	 76.22742	 61.07528	122.14064	 18.03128	  4.16728	161.43163	701.71002	 45.20	
 11.893	 73.654	152.71852	 84.10917	 53.66261	120.37391	 19.46483	  4.32196	161.43578	701.66998	 45.30	
 11.903	 65.403	152.58182	 91.37032	 46.76652	117.25394	 21.79004	  4.29254	161.40128	701.72998	 45.30	
 11.897	 57.268	152.59247	 98.37265	 40.71237	112.94569	 24.66717	  4.29913	161.42690	701.75000	 45.30	
 11.894	 49.133	152.54288	105.18846	 35.16661	107.84248	 28.62532	  4.45202	161.47696	701.76001	 45.30	
 11.902	 40.852	152.42723	111.11378	 30.34641	101.71133	 33.39234	  4.49509	161.43073	701.71997	 45.30	
 11.909	 32.701	152.33414	116.10066	 26.15577	 95.08028	 38.17550	  4.53942	161.44096	701.79999	 45.30	
 11.889	 24.555	152.36903	120.24582	 23.13172	 87.94559	 44.15450	  4.61126	161.46249	701.84998	 45.30	
 11.890	 16.390	152.27960	123.36292	 20.59612	 80.44807	 50.88755	  4.73465	161.47130	701.77002	 45.30	
 11.899	  8.217	152.19574	125.17404	 19.07070	 72.48093	 58.26873	  4.72678	161.43721	701.84998	 45.30	
 11.900	  0.000	152.23567	125.87181	 18.69147	 64.35370	 65.89697	  4.75954	161.46361	701.82001	 45.20	
 11.899	 -8.217	152.21504	125.25122	 18.83198	 56.38784	 73.60531	  4.85699	161.42035	701.81000	 45.20	
 11.890	-16.390	152.21870	123.47194	 19.98380	 48.90092	 81.82777	  4.89217	161.44165	701.73999	 45.20	
 11.889	-24.555	152.22908	120.40182	 22.15707	 42.01762	 89.44860	  4.88190	161.44464	701.65002	 45.20	
 11.909	-32.701	152.14967	116.34450	 24.87914	 35.47635	 96.75858	  4.87808	161.48665	701.71002	 45.20	
 11.902	-40.852	152.14651	111.44758	 28.85336	 29.66166	103.56264	  4.90916	161.44096	701.67999	 45.20	
 11.894	-49.133	152.13271	105.44544	 33.42063	 24.67033	109.77914	  4.82789	161.41623	701.71002	 45.20	
 11.897	-57.268	152.02974	 98.60429	 38.74650	 20.35398	114.85030	  4.78056	161.35240	701.75000	 45.20	
 11.903	-65.403	152.07597	 91.62586	 44.71555	 17.05060	119.18160	  4.80968	161.41608	701.66998	 45.10	
 11.893	-73.654	152.09973	 84.28545	 51.51397	 14.58426	122.47284	  4.77909	161.37228	701.69000	 45.10	
 11.892	-81.845	152.25255	 76.50587	 58.20884	 13.34200	124.55781	  4.76101	161.41342	701.65002	 45.10	
 11.900	-90.000	152.30635	 68.85936	 65.69754	 13.10847	125.13744	  4.71525	161.40219	701.75000	 45.10	
 11.892	-98.155	152.49478	 60.87973	 73.37810	 13.22475	124.73923	  4.70861	161.49265	701.73999	 45.10	
 11.893	-106.346	152.62292	 54.07897	 81.69691	 14.23723	123.00128	  4.71610	161.45644	701.66998	 45.10	
 11.903	-114.597	152.83722	 47.47254	 89.44446	 16.07867	120.03666	  4.69997	161.49026	701.64001	 45.10	
 11.897	-122.732	153.03992	 41.21347	 96.73643	 19.69816	115.92970	  4.78345	161.50623	701.65002	 45.10	
 11.894	-130.867	153.19365	 35.81672	103.54951	 23.81720	110.92041	  4.72663	161.45250	701.57001	 45.20	
 11.902	-139.148	153.31252	 31.03852	109.86362	 28.72130	104.99001	  4.55246	161.45944	701.70001	 45.20	
 11.909	-147.299	153.39839	 27.05786	114.99610	 34.11779	 98.33788	  4.55184	161.44875	701.72998	 45.30	
 11.889	-155.445	153.53981	 23.82407	119.02921	 40.40788	 91.80834	  4.64742	161.44345	701.66998	 45.30	
 11.890	-163.610	153.67526	 21.53367	122.35468	 47.20817	 84.38388	  4.60665	161.46672	701.76001	 45.40	
 11.899	-171.783	153.68593	 20.14685	124.39780	 54.11927	 76.43623	  4.67407	161.46234	701.63000	 45.40	
 11.900	180.000	153.70096	 19.87054	125.15377	 62.43856	 68.25338	  4.51210	161.45747	701.65002	 45.40	
 13.600	180.000	150.65385	 11.28640	130.57635	 59.48215	 65.62920	  4.69672	161.44228	701.71997	 45.40	
 13.608	-172.853	150.60698	 11.40102	129.90424	 52.04670	 73.34203	  4.85623	161.44310	701.75000	 45.50	
 13.611	-165.583	150.65834	 12.62015	128.20801	 44.67467	 81.83958	  4.84340	161.48097	701.77002	 45.50	
 13.601	-158.353	150.49127	 14.58458	125.41136	 37.61305	 89.50705	  4.74780	161.44702	701.76001	 45.50	
 13.609	-151.210	150.37581	 17.35009	121.55565	 31.15076	 96.48009	  4.73931	161.42682	701.77002	 45.60	
 13.611	-143.999	150.34038	 21.10435	116.78162	 25.29686	103.45004	  4.73765	161.47133	701.76001	 45.60	
 13.601	-136.825	150.21347	 25.52286	111.25222	 20.22130	109.85848	  4.73663	161.46715	701.67999	 45.60	
 13.596	-129.640	150.00984	 30.23649	104.84171	 15.56749	115.53609	  4.88064	161.45090	701.69000	 45.60	
 13.611	-122.431	149.81436	 35.70224	 97.70960	 11.48922	120.60349	  4.93542	161.49573	701.72998	 45.60	
 13.604	-115.211	149.61638	 41.57168	 90.26038	  8.41281	124.82056	  4.86821	161.47377	701.76001	 45.60	
 13.595	-108.042	149.44041	 48.08173	 82.67413	  6.04415	127.79361	  4.90369	161.48058	701.67999	 45.50	
 13.607	-100.793	149.25017	 55.20560	 74.13090	  3.55178	129.56714	  4.75613	161.46693	701.76001	 45.50	
 13.601	-93.617	149.05444	 62.37048	 65.99097	  3.81767	130.37419	  4.68912	161.41675	701.69000	 45.50	
 13.601	-86.383	148.91690	 69.78083	 59.04322	  4.03964	130.39969	  4.80272	161.40590	701.63000	 45.50	
 13.607	-79.207	148.82451	 77.89513	 51.87569	  4.68506	129.33682	  4.79623	161.43475	701.70001	 45.50	
 13.595	-71.958	148.74258	 85.51665	 44.96346	  6.41548	127.07571	  4.80572	161.39999	701.82001	 45.60	
 13.604	-64.789	148.69426	 92.81679	 38.48183	  8.90258	123.82806	  4.84625	161.41135	701.78003	 45.60	
 13.611	-57.569	148.65550	 99.97040	 32.48915	 12.26899	119.42815	  4.88826	161.40808	701.73999	 45.60	
 13.596	-50.360	148.68806	107.05244	 27.25685	 16.28508	114.32903	  4.92152	161.42346	701.75000	 45.60	
 13.601	-43.175	148.72133	113.05577	 22.67952	 21.11492	108.43356	  4.90951	161.39908	701.71002	 45.60	
 13.611	-36.001	148.74181	118.39452	 18.65221	 26.48914	101.58835	  4.97150	161.36240	701.65002	 45.60	
 13.609	-28.790	148.73885	123.19264	 15.30089	 32.52571	 94.43964	  4.92664	161.38948	701.82001	 45.60	
 13.601	-21.647	148.82332	126.73015	 12.83888	 39.40406	 86.71514	  4.89452	161.41048	701.78003	 45.60	
 13.611	-14.417	148.76906	129.18665	 10.92464	 46.53537	 78.56780	  4.90962	161.39801	701.84998	 45.50	
 13.608	 -7.147	148.79117	130.68752	  9.97768	 54.24272	 70.61884	  4.89224	161.38612	701.81000	 45.40	
 13.600	  0.000	148.84947	130.98541	 10.24912	 61.68121	 63.28059	  4.90198	161.38980	701.66998	 45.40	
 13.608	  7.147	148.79361	130.60793	 10.31970	 69.59556	 55.75663	  4.89967	161.39388	701.76001	 45.40	
 13.611	 14.417	148.84854	129.15942	 11.44549	 77.85193	 48.25256	  4.84097	161.45493	701.78998	 45.40	
 13.601	 21.647	148.90244	126.71165	 13.65971	 85.67909	 41.34030	  4.80696	161.42064	701.70001	 45.40	
 13.609	 28.790	148.92296	123.06852	 16.44971	 92.81036	 35.40970	  4.67747	161.39989	701.76001	 45.40	
 13.611	 36.001	148.98615	118.21288	 19.97985	100.08962	 29.83860	  4.65263	161.40433	701.84998	 45.50	
 13.601	 43.175	149.12456	112.84746	 24.25126	106.60423	 24.90043	  4.63940	161.45311	701.72998	 45.50	
 13.596	 50.360	149.16896	106.68264	 29.25525	112.63519	 20.47919	  4.55975	161.41693	701.84003	 45.60	
 13.611	 57.569	149.21707	 99.76784	 34.80133	117.79437	 16.66253	  4.48242	161.39929	701.84003	 45.60	
 13.604	 64.789	149.36876	 92.53062	 41.06574	122.19159	 13.75131	  4.48534	161.46132	701.82001	 45.60	
 13.595	 71.958	149.52609	 85.41883	 47.80653	125.32010	 11.42152	  4.46689	161.46121	701.81000	 45.60	
 13.607	 79.207	149.58342	 77.48487	 54.92010	127.40751	  9.70693	  4.45222	161.45897	701.73999	 45.50	
 13.601	 86.383	149.68945	 69.33567	 62.44312	128.27675	  8.96517	  4.28329	161.45227	701.76001	 45.50	
 13.601	 93.617	149.88603	 61.87727	 69.91798	128.19868	  9.34151	  4.40662	161.44579	701.78003	 45.50	
 13.607	100.793	149.94226	 54.78588	 77.65872	126.96605	  9.78999	  4.34104	161.41899	701.84003	 45.50	
 13.595	108.042	150.11217	 47.51138	 86.02123	124.77633	 11.55527	  4.48370	161.45734	701.81000	 45.60	
 13.604	115.211	150.25984	 41.04215	 93.36768	121.43097	 14.08509	  4.43229	161.44202	701.77002	 45.60	
 13.611	122.431	150.34760	 35.01241	100.42228	116.92975	 17.47673	  4.32752	161.44470	701.69000	 45.60	
 13.596	129.640	150.44618	 29.63132	107.08974	111.60878	 21.67592	  4.25231	161.43327	701.70001	 45.60	
 13.601	136.825	150.53467	 24.83211	113.18414	105.45367	 26.44392	  4.57327	161.41098	701.78998	 45.60	
 13.611	143.999	150.60216	 20.65318	118.49208	 98.83707	 31.73980	  4.66550	161.44156	701.72998	 45.60	
 13.609	151.210	150.69901	 17.19856	122.94115	 91.43755	 37.67211	  4.86113	161.45728	701.77002	 45.60	
 13.601	158.353	150.68414	 14.47801	126.44577	 83.87537	 43.84154	  4.72929	161.39738	701.78003	 45.60	
 13.611	165.583	150.62837	 12.32594	128.99785	 75.61828	 50.86133	  4.54937	161.41634	701.77002	 45.60	
 13.608	172.853	150.59900	 11.20627	130.40588	 67.26575	 58.39250	  4.47757	161.42880	701.83002	 45.50	
 15.298	173.587	147.18600	  2.42427	135.62506	 63.99400	 55.51587	  4.59377	161.43582	701.81000	 45.60	
 15.291	167.167	147.27937	  3.35611	134.43452	 72.34379	 48.09620	  4.61500	161.49078	701.70001	 45.50	
 15.307	160.676	147.27657	  5.11335	132.11313	 80.74393	 41.51871	  4.76077	161.43538	701.77002	 45.50	
 15.300	154.261	147.32277	  7.53540	129.04805	 88.74346	 35.05190	  4.92540	161.48969	701.82001	 45.40	
 15.288	147.854	147.21451	 10.64858	124.99575	 96.06995	 28.92329	  4.86452	161.43517	701.84998	 45.40	
 15.293	141.428	147.18448	 14.49900	120.02143	103.38773	 23.28312	  4.70564	161.43301	701.77002	 45.30	
 15.299	134.985	147.07109	 18.88688	114.38393	109.99824	 17.93095	  4.35083	161.44682	701.83002	 45.40	
 15.305	128.583	147.00557	 23.60889	108.20084	116.13277	 13.22644	  4.23153	161.44672	701.91998	 45.40	
 15.309	122.142	146.88470	 29.00083	101.35172	121.25462	  9.37098	  4.38215	161.40689	701.78998	 45.50	
 15.304	115.711	146.70944	 35.17675	 94.05524	125.72067	  5.98883	  4.49740	161.37659	701.77002	 45.50	
 15.297	109.291	146.52425	 41.72130	 86.80903	129.09390	  3.37050	  4.64251	161.39546	701.82001	 45.40	
 15.293	102.897	146.48605	 48.54128	 78.62184	131.61440	  1.42239	  4.54848	161.44954	701.83002	 45.40	
 15.293	 96.458	146.28195	 55.64290	 70.39120	133.16711	  0.47037	  4.61361	161.43880	701.81000	 45.40	
 15.300	 90.000	146.12393	 62.62216	 63.27236	133.73351	  0.14539	  4.61909	161.41403	701.78003	 45.40	
 15.293	 83.542	146.01985	 70.04323	 55.96655	133.31299	  0.22551	  4.60816	161.40298	701.85999	 45.50	
 15.293	 77.103	145.92590	 78.43208	 48.59843	131.94653	  1.33869	  4.59454	161.39854	701.81000	 45.50	
 15.297	 70.709	145.78766	 86.31424	 41.58762	129.54199	  3.20615	  4.54648	161.36186	701.84003	 45.60	
 15.304	 64.289	145.70570	 93.44059	 35.04033	126.44590	  5.66741	  4.59215	161.39131	701.83002	 45.60	
 15.309	 57.858	145.51549	100.83210	 28.79808	122.17921	  8.62457	  4.63619	161.40059	701.82001	 45.60	
 15.305	 51.417	145.40057	107.68960	 23.25707	116.96223	 12.26591	  4.67041	161.40038	701.83002	 45.60	
 15.299	 45.015	145.33534	114.06825	 18.31043	111.01573	 16.55825	  4.67959	161.36533	701.75000	 45.60	
 15.293	 38.572	145.39268	119.71834	 14.02939	104.56000	 21.45518	  4.72350	161.41228	701.79999	 45.60	
 15.288	 32.146	145.25238	125.06717	 10.20291	 97.41189	 26.76969	  4.69061	161.41191	701.77002	 45.60	
 15.300	 25.739	145.16354	129.08621	  7.14510	 90.02162	 32.72404	  4.67054	161.41661	701.76001	 45.60	
 15.307	 19.324	145.08661	132.07155	  4.51532	 82.81475	 38.95173	  4.64888	161.44550	701.64001	 45.70	
 15.291	 12.833	145.02864	134.46408	  2.53031	 74.59063	 45.56688	  4.69918	161.42154	701.73999	 45.70	
 15.298	  6.413	144.96828	135.85228	  1.41697	 66.32175	 52.93047	  4.70836	161.38831	701.71997	 45.70	
 15.300	  0.000	144.99040	136.23439	  1.18828	 58.66698	 60.34125	  4.71141	161.35654	701.71002	 45.70	
 15.298	 -6.413	145.00798	135.81825	  1.00963	 51.50286	 67.45338	  4.77495	161.36989	701.65997	 45.70	
 15.291	-12.833	144.98720	134.52490	  1.77866	 43.99528	 75.31606	  4.72522	161.35846	701.69000	 45.70	
 15.307	-19.324	144.93275	132.30055	  3.37379	 36.55396	 83.50216	  4.68789	161.39679	701.72998	 45.70	
 15.300	-25.739	145.04575	128.99574	  5.68441	 29.74557	 91.55177	  4.71909	161.39063	701.67999	 45.70	
 15.288	-32.146	145.05698	125.17807	  8.66269	 23.44038	 98.88981	  4.78659	161.37437	701.70001	 45.70	
 15.293	-38.572	144.98938	119.90788	 12.25754	 17.72634	105.97111	  4.79982	161.36295	701.59003	 45.70	
 15.299	-45.015	144.85049	114.33199	 16.35926	 12.53638	112.62955	  4.80839	161.41618	701.75000	 45.70	
 15.305	-51.417	144.84422	107.97723	 20.92727	  8.07500	118.48004	  4.82422	161.44365	701.71002	 45.60	
 15.309	-57.858	144.83157	100.88582	 26.16333	  4.08524	123.62120	  4.80297	161.42903	701.72998	 45.60	
 15.304	-64.289	144.87076	 93.74821	 32.01760	  0.83100	127.81863	  4.75366	161.34238	701.71997	 45.60	
 15.297	-70.709	144.90642	 86.32026	 38.35370	 -1.78774	131.12891	  4.70822	161.36070	701.77002	 45.50	
 15.293	-77.103	144.97862	 78.47578	 45.34879	 -3.68796	133.65611	  4.69648	161.38631	701.84003	 45.60	
 15.293	-83.542	145.16785	 70.38698	 52.56376	 -4.81537	135.26341	  4.73857	161.40643	701.58002	 45.60	
 15.300	-90.000	145.33771	 63.04130	 59.16605	 -5.13801	135.86852	  4.66923	161.42688	701.70001	 45.60	
 15.293	-96.458	145.41870	 56.17392	 66.45912	 -6.35381	135.40721	  4.65617	161.42015	701.77002	 45.60	
 15.293	-102.897	145.52878	 48.83720	 74.86591	 -5.10944	134.15965	  4.71268	161.42744	701.73999	 45.70	
 15.297	-109.291	145.78297	 42.18913	 83.19868	 -2.45259	131.93378	  4.76888	161.42979	701.71002	 45.70	
 15.304	-115.711	145.89769	 36.06514	 90.87282	  0.00456	128.90286	  4.85052	161.42043	701.66998	 45.70	
 15.309	-122.142	146.08394	 29.87095	 98.24905	  3.10988	124.91847	  4.81942	161.42766	701.72998	 45.70	
 15.305	-128.583	146.36928	 24.32137	105.54906	  7.06983	119.76674	  4.75632	161.44951	701.72998	 45.70	
 15.299	-134.985	146.61700	 19.31656	111.95233	 11.57914	114.24165	  4.71127	161.43690	701.76001	 45.80	
 15.293	-141.428	146.83069	 14.87180	117.98281	 16.70073	107.94794	  4.64318	161.44516	701.77002	 45.90	
 15.288	-147.854	146.95848	 11.18691	123.14485	 22.21925	100.95846	  4.59744	161.42105	701.84003	 45.90	
 15.300	-154.261	146.98885	  7.92974	127.61094	 28.17797	 93.77881	  4.60144	161.43024	701.89001	 45.90	
 15.307	-160.676	147.03212	  5.24753	130.99921	 34.61395	 86.61298	  4.64383	161.37801	701.88000	 45.90	
 15.291	-167.167	147.20543	  3.50504	133.60225	 41.96226	 78.41160	  4.77224	161.45279	701.89001	 46.00	
 15.298	-173.587	147.17239	  2.50039	135.16266	 49.29624	 70.14353	  4.75543	161.45802	701.83002	 46.00	
 15.300	180.000	147.21175	  2.44934	135.74481	 56.69968	 62.65376	  4.66273	161.42274	701.81000	 46.00	
 17.000	180.000	143.22800	 -6.48596	140.64127	 53.62049	 59.39816	  4.65077	161.44305	701.81000	 46.00	
 16.990	-174.179	143.16621	 -6.49648	140.08467	 46.27227	 66.89779	  4.69442	161.43671	701.75000	 46.00	
 17.009	-168.383	143.16470	 -5.52048	138.59358	 38.77322	 74.72403	  4.69155	161.41339	701.77002	 46.00	
 17.000	-162.596	143.11317	 -3.97251	136.22652	 31.61054	 83.11244	  4.57948	161.43530	701.79999	 45.90	
 16.990	-156.759	143.06462	 -1.66473	133.00104	 25.05448	 90.94826	  4.45014	161.45561	701.81000	 46.00	
 16.995	-150.919	142.96907	  1.21802	128.99321	 18.92340	 98.19095	  4.49009	161.44414	701.78998	 46.10	
 16.988	-145.161	142.82430	  4.50191	124.26302	 13.13113	105.21773	  4.56842	161.44226	701.76001	 46.10	
 17.014	-139.343	142.71193	  8.55483	118.83351	  7.66030	112.07865	  4.56892	161.47743	701.84998	 46.20	
 17.007	-133.546	142.49724	 12.93225	112.56161	  2.90876	118.12914	  4.61191	161.45949	701.84998	 46.20	
 17.001	-127.699	142.25208	 18.02986	106.03661	 -1.45309	123.75507	  4.68052	161.46288	701.84003	 46.20	
 17.006	-121.937	141.93881	 23.52119	 98.70787	 -5.24398	128.62973	  4.70068	161.42000	701.83002	 46.20	
 17.002	-116.134	141.67938	 29.69888	 91.36243	 -8.22906	132.64427	  4.69270	161.45251	701.72998	 46.20	
 17.001	-110.310	141.42113	 36.24576	 83.41013	-10.85012	135.88374	  4.65967	161.44116	701.78003	 46.20	
 16.988	-104.517	141.22343	 42.59911	 75.25435	-12.84139	138.37843	  4.53863	161.42354	701.78998	 46.20	
 17.008	-98.662	140.98117	 49.47546	 67.05817	-14.36046	140.07503	  4.54892	161.43881	701.78003	 46.20	
 16.996	-92.909	140.85332	 56.61597	 59.44423	-14.52612	140.72343	  4.52863	161.42851	701.83002	 46.30	
 16.996	-87.091	140.75891	 62.90750	 53.02519	-14.08285	140.72607	  4.64123	161.41875	701.83002	 46.40	
 17.012	-81.253	140.61647	 70.67831	 45.48438	-13.58939	139.69974	  4.60272	161.42494	701.87000	 46.40	
 16.988	-75.483	140.52647	 78.88846	 38.57609	-12.02770	137.75922	  4.60573	161.43828	701.87000	 46.50	
 17.001	-69.690	140.45296	 86.71962	 31.72546	-10.05446	135.02907	  4.56511	161.42487	701.78003	 46.50	
 17.002	-63.866	140.44913	 94.38341	 25.38062	 -7.39732	131.65730	  4.62899	161.43657	701.82001	 46.50	
 17.006	-58.063	140.38841	101.37533	 19.60762	 -4.22891	127.33662	  4.64289	161.40048	701.76001	 46.50	
 17.001	-52.301	140.42650	108.35575	 14.59795	 -0.42484	122.17142	  4.65764	161.39828	701.89001	 46.50	
 17.007	-46.454	140.45699	114.92808	  9.93964	  3.90399	116.56138	  4.63129	161.40536	701.87000	 46.60	
 17.014	-40.657	140.45993	120.81665	  5.47359	  8.76413	110.17767	  4.65051	161.39438	701.83002	 46.60	
 16.988	-34.839	140.58289	126.39498	  1.82287	 14.24558	103.14558	  4.61090	161.41905	701.81000	 46.70	
 16.995	-29.081	140.52760	130.77354	 -1.39274	 20.01381	 95.94625	  4.60487	161.37364	701.88000	 46.70	
 16.990	-23.241	140.57762	134.44031	 -3.97798	 26.59019	 88.12003	  4.58438	161.36842	701.77002	 46.70	
 17.000	-17.404	140.59903	137.44524	 -6.17317	 33.63271	 79.95834	  4.56179	161.38057	701.90002	 46.70	
 17.009	-11.617	140.59546	139.62999	 -7.81236	 40.94930	 71.82362	  4.60861	161.43800	701.98999	 46.70	
 16.990	 -5.821	140.73145	140.74695	 -8.26493	 48.64437	 63.86144	  4.64714	161.44107	701.84998	 46.70	
 17.000	  0.000	140.64429	141.01746	 -7.94657	 55.51047	 56.94477	  4.66535	161.37900	701.84998	 46.70	
 16.990	  5.821	140.61758	140.65697	 -7.54141	 63.06443	 49.78073	  4.60995	161.36845	701.90997	 46.70	
 17.009	 11.617	140.57904	139.45627	 -6.64608	 70.96797	 42.77952	  4.54226	161.36731	701.95001	 46.70	
 17.000	 17.404	140.67828	137.23212	 -4.85332	 79.38092	 35.85800	  4.52386	161.38739	701.95001	 46.70	
 16.990	 23.241	140.77676	134.23090	 -2.54209	 87.23949	 29.38295	  4.51831	161.38046	701.96997	 46.60	
 16.995	 29.081	140.80807	130.71309	  0.48470	 94.51543	 23.38132	  4.63135	161.36160	701.85999	 46.60	
 16.988	 34.839	140.89398	126.20947	  3.87243	101.94629	 17.83613	  4.63600	161.40988	701.96002	 46.60	
 17.014	 40.657	140.85312	120.80801	  7.73169	108.79078	 12.53804	  4.62893	161.40114	701.96002	 46.60	
 17.007	 46.454	140.99681	114.73562	 12.41569	115.22733	  8.05349	  4.59852	161.38837	701.90002	 46.60	
 17.001	 52.301	141.04439	108.26540	 17.41481	120.96570	  3.98053	  4.58940	161.39795	701.92999	 46.60	
 17.006	 58.063	141.18156	101.29773	 22.85574	126.07869	  0.39175	  4.55679	161.42690	701.89001	 46.60	
 17.002	 63.866	141.34216	 94.11995	 28.71103	130.18196	 -2.62546	  4.54709	161.41689	701.87000	 46.60	
 17.001	 69.690	141.40723	 86.78590	 35.26163	133.74002	 -5.17895	  4.52021	161.41435	701.85999	 46.60	
 16.988	 75.483	141.48409	 78.68275	 42.03305	136.23296	 -7.06033	  4.50140	161.39928	701.75000	 46.60	
 17.012	 81.253	141.48918	 70.53561	 49.15021	138.14926	 -8.68074	  4.43778	161.39160	701.82001	 46.60	
 16.996	 87.091	141.74588	 62.70539	 56.79673	138.95215	 -9.13349	  4.48608	161.44519	701.81000	 46.60	
 16.996	 92.909	141.85088	 56.15242	 63.55544	138.85942	 -8.95630	  4.53097	161.44527	701.84998	 46.70	
 17.008	 98.662	141.94107	 49.37988	 70.77621	137.86095	 -8.64110	  4.62655	161.40480	701.85999	 46.70	
 16.988	104.517	142.18877	 42.27757	 79.17108	135.86278	 -6.99800	  4.70452	161.42001	701.85999	 46.70	
 17.001	110.310	142.42322	 35.39148	 87.14764	133.07275	 -4.87185	  4.62122	161.38123	701.83002	 46.60	
 17.002	116.134	142.64468	 28.75903	 94.74266	129.45723	 -1.99746	  4.49365	161.41919	701.87000	 46.60	
 17.006	121.937	142.76295	 22.77328	101.93797	125.23537	  1.13959	  4.31705	161.42084	701.87000	 46.50	
 17.001	127.699	142.94620	 17.39367	108.84346	119.88782	  4.91225	  4.19244	161.41414	701.82001	 46.50	
 17.007	133.546	142.96407	 12.38767	115.31772	113.98491	  9.32250	  4.16944	161.39758	701.81000	 46.50	
 17.014	139.343	143.06911	  8.08870	121.11400	107.43967	 14.25513	  4.37824	161.40842	701.84003	 46.50	
 16.988	145.161	143.21620	  4.22423	126.34573	100.25694	 19.97437	  4.69154	161.41812	701.84998	 46.60	
 16.995	150.919	143.28932	  0.93257	130.70747	 92.94627	 25.88875	  4.80643	161.40121	701.87000	 46.70	
 16.990	156.759	143.34048	 -1.69290	134.31377	 85.23087	 32.21579	  4.77678	161.37199	701.84003	 46.70	
 17.000	162.596	143.23024	 -4.16970	137.31519	 76.89435	 39.05177	  4.64014	161.39442	701.83002	 46.80	
 17.009	168.383	143.22659	 -5.77643	139.38213	 68.47222	 45.64426	  4.49030	161.42970	701.88000	 46.80	
 16.990	174.179	143.24969	 -6.60876	140.41115	 60.61185	 52.59500	  4.51250	161.45116	701.77002	 46.90	
 18.709	174.675	138.53177	-15.60586	144.81699	 56.76749	 49.58958	  4.46162	161.40846	701.84003	 46.90	
 18.703	169.441	138.57419	-14.99599	143.89226	 64.52310	 42.76824	  4.45563	161.40877	701.84998	 46.80	
 18.691	164.085	138.68910	-13.50825	142.05141	 72.82455	 35.77172	  4.48874	161.40742	701.94000	 46.80	
 18.706	158.818	138.78471	-11.44623	139.42941	 81.16271	 29.03242	  4.56816	161.42081	701.94000	 46.80	
 18.695	153.537	138.79831	 -8.79747	135.96478	 89.20177	 22.75689	  4.72420	161.39278	702.00000	 46.80	
 18.704	148.255	138.75105	 -5.35589	131.90321	 96.68347	 16.52841	  4.63232	161.38695	701.95001	 46.90	
 18.698	142.952	138.67694	 -2.01008	127.16568	104.20233	 10.72707	  4.38089	161.40106	701.89001	 46.90	
 18.699	137.625	138.58826	  1.99246	121.70135	111.08297	  5.45449	  4.13745	161.37349	701.92999	 46.90	
 18.705	132.343	138.45120	  6.31233	115.69735	117.57447	  0.68168	  4.06984	161.37216	701.96997	 46.80	
 18.713	127.067	138.30438	 11.08579	109.22740	123.42542	 -3.55779	  4.11542	161.37985	701.90997	 46.80	
 18.700	121.794	138.20561	 16.51562	102.22629	128.61423	 -7.11855	  4.25824	161.37386	701.84003	 46.70	
 18.698	116.504	138.11754	 22.42558	 95.10862	132.82651	-10.32581	  4.37965	161.44221	701.84003	 46.70	
 18.707	111.165	137.85368	 28.88523	 87.32413	136.61481	-13.18082	  4.54805	161.40031	701.91998	 46.70	
 18.690	105.863	137.68961	 35.59758	 79.23875	139.61940	-15.23488	  4.59620	161.43549	702.03003	 46.70	
 18.696	100.583	137.41370	 42.67799	 71.24309	141.72792	-16.99688	  4.50621	161.39784	701.90002	 46.70	
 18.700	 95.309	137.18158	 49.57996	 63.56044	143.06221	-17.96205	  4.42384	161.38194	701.92999	 46.70	
 18.700	 90.000	137.12668	 55.33172	 57.38065	143.56964	-18.36911	  4.45537	161.43874	702.03998	 46.70	
 18.700	 84.691	137.01044	 62.85761	 49.80307	143.23158	-18.13898	  4.39339	161.43192	702.01001	 46.70	
 18.696	 79.417	136.81888	 70.65125	 42.32912	142.10999	-17.23628	  4.35515	161.41385	702.03998	 46.80	
 18.690	 74.137	136.75165	 78.72193	 35.31966	140.14680	-15.60768	  4.39540	161.42789	701.97998	 46.70	
 18.707	 68.835	136.58534	 86.71820	 28.69332	137.41150	-13.68412	  4.38356	161.39388	701.91998	 46.70	
 18.698	 63.496	136.52998	 94.33601	 22.49177	133.73843	-11.06616	  4.38818	161.38388	701.82001	 46.60	
 18.700	 58.206	136.45523	101.44017	 16.65922	129.43822	 -8.04875	  4.40209	161.41281	701.94000	 46.60	
 18.713	 52.933	136.30026	108.44386	 11.14284	124.40942	 -4.69120	  4.39981	161.34738	701.87000	 46.50	
 18.705	 47.657	136.25983	115.16205	  6.07088	118.68633	 -0.62689	  4.40809	161.38661	701.78998	 46.50	
 18.699	 42.375	136.21991	121.18803	  1.56186	112.53747	  3.93116	  4.49456	161.39389	701.92999	 46.60	
 18.698	 37.048	136.14207	126.95349	 -2.64879	105.66852	  8.80074	  4.50207	161.39339	701.87000	 46.60	
 18.704	 31.745	136.08246	131.82248	 -6.28998	 98.36096	 14.30180	  4.55030	161.43199	701.90002	 46.60	
 18.695	 26.463	136.13795	135.79260	-10.29054	 91.10992	 20.24727	  4.48710	161.42001	701.87000	 46.60	
 18.706	 21.182	136.02599	139.30005	-13.48523	 83.46122	 26.28159	  4.37566	161.41664	701.89001	 46.70	
 18.691	 15.915	136.00089	141.96587	-14.29039	 75.38070	 32.74958	  4.36673	161.41588	702.01001	 46.70	
 18.703	 10.559	135.87633	143.96826	-15.56907	 67.08980	 39.70271	  4.44094	161.41631	701.90997	 46.70	
 18.709	  5.325	135.88808	145.08214	-16.54075	 59.26602	 46.90036	  4.53379	161.41083	701.79999	 46.70	
 18.700	  0.000	135.84506	145.49045	-17.08345	 52.60624	 53.09015	  4.58477	161.39435	701.90997	 46.70	
 18.709	 -5.325	135.85924	145.22522	-17.48251	 45.32621	 60.17044	  4.57543	161.43661	701.87000	 46.80	
 18.703	-10.559	135.89034	144.11487	-17.10490	 37.86742	 68.04862	  4.51329	161.40746	701.87000	 46.80	
 18.691	-15.915	135.80327	142.16397	-15.89941	 30.32093	 76.26405	  4.47090	161.39185	701.92999	 46.80	
 18.706	-21.182	135.70792	139.52029	-13.81420	 23.35520	 84.22458	  4.48432	161.39626	701.87000	 46.80	
 18.695	-26.463	135.76544	135.95306	-11.26325	 16.95332	 92.21284	  4.53868	161.39932	701.98999	 46.90	
 18.704	-31.745	135.66663	131.86873	 -8.49827	 10.76203	 99.69220	  4.54047	161.37961	701.94000	 46.90	
 18.698	-37.048	135.72687	126.98260	 -5.18764	  5.12654	106.82290	  4.55074	161.39690	701.96997	 46.90	
 18.699	-42.375	135.69406	121.28014	 -1.24041	 -0.02020	113.64207	  4.55484	161.37891	701.95001	 46.80	
 18.705	-47.657	135.63416	115.31560	  3.13335	 -4.67517	119.87454	  4.56959	161.40564	701.89001	 46.80	
 18.713	-52.933	135.58621	108.62990	  7.87450	 -8.85314	125.61415	  4.57042	161.39615	701.94000	 46.80	
 18.700	-58.206	135.63385	101.58938	 13.09533	-12.49158	130.63774	  4.50840	161.40865	701.90002	 46.90	
 18.698	-63.496	135.56877	 94.55195	 18.78720	-15.62407	134.77246	  4.49935	161.36497	702.03003	 46.90	
 18.707	-68.835	135.59280	 86.86616	 25.07142	-18.29790	138.42641	  4.50195	161.37312	701.96997	 46.90	
 18.690	-74.137	135.77379	 78.62696	 31.80576	-20.15210	141.23720	  4.50192	161.36151	701.83002	 47.00	
 18.696	-79.417	135.87325	 70.49442	 38.66919	-21.69171	143.34241	  4.49170	161.40033	701.84998	 47.00	
 18.700	-84.691	135.90492	 62.88853	 45.94707	-22.73365	144.68137	  4.52285	161.38087	701.90997	 47.00	
 18.700	-90.000	135.96774	 55.50048	 53.15480	-22.99103	145.13651	  4.52480	161.39204	701.84003	 47.00	
 18.700	-95.309	136.09656	 49.78246	 59.55752	-22.97733	144.84018	  4.44367	161.38466	701.83002	 47.10	
 18.696	-100.583	136.25073	 43.04433	 67.37122	-22.34397	143.82106	  4.46947	161.37560	701.83002	 47.10	
 18.690	-105.863	136.49706	 36.09552	 75.24504	-20.86371	142.03589	  4.50314	161.37842	701.85999	 47.20	
 18.707	-111.165	136.70207	 29.50301	 83.30146	-19.01712	139.40521	  4.55668	161.37201	701.90997	 47.30	
 18.698	-116.504	136.98201	 23.02752	 91.25480	-16.46896	135.93544	  4.63948	161.38989	701.98999	 47.40	
 18.700	-121.794	137.30475	 17.14998	 98.64406	-13.56616	131.89812	  4.59506	161.39406	701.94000	 47.40	
 18.713	-127.067	137.49702	 11.57224	105.93328	-10.14757	127.16696	  4.56594	161.41457	701.94000	 47.40	
 18.705	-132.343	137.87463	  6.55718	112.73100	 -5.91884	121.41959	  4.54098	161.47336	701.94000	 47.40	
 18.699	-137.625	138.06915	  2.04132	119.22008	 -1.24444	115.57745	  4.49265	161.47856	701.90997	 47.40	
 18.698	-142.952	138.25827	 -1.83727	124.82232	  3.88593	108.86777	  4.46017	161.44354	701.87000	 47.40	
 18.704	-148.255	138.37794	 -5.36857	129.95000	  9.49637	101.87114	  4.44293	161.45351	701.90002	 47.40	
 18.695	-153.537	138.50389	 -8.42918	134.30220	 15.48403	 94.48295	  4.34597	161.42482	701.92999	 47.40	
 18.706	-158.818	138.49474	-11.15245	138.02106	 21.69610	 87.10583	  4.40792	161.46136	701.84998	 47.40	
 18.691	-164.085	138.64525	-13.08937	141.00877	 28.46901	 79.08800	  4.51374	161.48013	701.90002	 47.30	
 18.703	-169.441	138.58638	-14.59280	143.15720	 35.57588	 70.97425	  4.59770	161.40521	701.96002	 47.30	
 18.709	-174.675	138.54140	-15.45939	144.52126	 42.84753	 63.09149	  4.61912	161.41823	701.96002	 47.30	
 18.700	180.000	138.56253	-15.45302	145.00432	 49.81881	 56.02270	  4.56108	161.43497	701.96997	 47.30	
 20.400	180.000	133.71992	-24.43788	148.77827	 45.74515	 52.62207	  4.48980	161.38756	701.96997	 47.20	
 20.401	-175.153	133.66275	-24.56696	148.30603	 39.37770	 58.94545	  4.55460	161.39125	702.04999	 47.20	
 20.407	-170.264	133.76097	-23.73981	147.08820	 32.07920	 66.80746	  4.54509	161.39787	701.91998	 47.10	
 20.410	-165.423	133.73805	-22.42588	145.21213	 24.92525	 74.65261	  4.48146	161.43840	701.94000	 47.10	
 20.392	-160.496	133.66098	-20.54482	142.47604	 18.09891	 82.53757	  4.40494	161.39523	701.92999	 47.00	
 20.401	-155.705	133.66051	-18.15613	139.02118	 11.66402	 90.53199	  4.36005	161.40076	701.96002	 47.10	
 20.405	-150.835	133.50829	-15.56276	134.96793	  5.54977	 97.99240	  4.39035	161.41649	702.03998	 47.20	
 20.397	-145.903	133.39339	-12.27529	130.13466	 -0.33128	105.30183	  4.38104	161.39949	701.91998	 47.30	
 20.392	-141.062	133.30360	 -8.56283	124.78000	 -5.50606	112.12322	  4.46121	161.43401	701.90997	 47.40	
 20.396	-136.227	132.99965	 -4.71518	118.90173	-10.50328	118.48342	  4.45816	161.40689	701.91998	 47.40	
 20.408	-131.372	132.75928	 -0.07177	112.43716	-14.88487	124.32113	  4.48388	161.39529	701.94000	 47.40	
 20.410	-126.511	132.44463	  4.97475	105.49498	-18.78437	130.02354	  4.49943	161.42348	701.90002	 47.50	
 20.400	-121.604	132.24696	 10.36866	 98.16334	-22.12488	134.83788	  4.50195	161.37143	701.98999	 47.50	
 20.403	-116.741	131.92204	 16.20149	 90.67388	-24.96611	138.92645	  4.49052	161.39772	701.90997	 47.50	
 20.413	-111.900	131.61452	 22.39629	 82.94185	-27.42567	142.41249	  4.51028	161.41148	701.90997	 47.50	
 20.398	-107.004	131.31735	 28.96750	 74.77672	-29.27251	145.15201	  4.38352	161.37697	701.98999	 47.50	
 20.394	-102.132	131.00972	 35.83574	 66.87505	-30.82853	147.07138	  4.42737	161.37230	701.97998	 47.50	
 20.403	-97.332	130.84235	 42.88676	 59.05757	-31.81833	148.33183	  4.34120	161.36969	701.98999	 47.50	
 20.392	-92.440	130.66803	 49.41769	 52.02004	-32.11192	148.93680	  4.43392	161.39253	701.91998	 47.50	
 20.392	-87.560	130.64949	 55.22147	 45.97423	-32.02837	148.79674	  4.50206	161.38783	701.81000	 47.50	
 20.403	-82.668	130.47011	 62.61379	 38.60060	-31.53348	148.07195	  4.44766	161.39702	701.81000	 47.50	
 20.394	-77.868	130.42630	 70.31603	 31.64614	-30.22886	146.51448	  4.39576	161.40570	701.85999	 47.60	
 20.398	-72.996	130.33446	 78.31611	 24.74165	-28.62304	144.26805	  4.39584	161.36653	701.89001	 47.60	
 20.413	-68.100	130.22777	 86.35415	 17.98939	-26.70912	141.43466	  4.41118	161.35675	701.84003	 47.60	
 20.403	-63.259	130.17807	 94.04938	 11.76543	-24.22298	137.67972	  4.41724	161.35210	701.91998	 47.50	
 20.400	-58.396	130.26295	101.08343	  6.06609	-21.14554	133.46989	  4.43205	161.40778	701.92999	 47.50	
 20.410	-53.489	130.20218	108.23384	  0.59490	-17.66320	128.41974	  4.48996	161.39609	701.90002	 47.50	
 20.408	-48.628	130.24396	115.01105	 -4.15734	-13.61534	122.70618	  4.48823	161.41289	701.87000	 47.40	
 20.396	-43.773	130.42326	121.17612	 -8.22337	 -8.98676	116.65495	  4.47510	161.38681	701.82001	 47.40	
 20.392	-38.938	130.47134	126.98553	-12.13367	 -4.15263	110.02013	  4.42652	161.39819	701.66998	 47.40	
 20.397	-34.097	130.39851	132.12564	-15.59854	  1.09975	103.14809	  4.46326	161.36557	701.85999	 47.40	
 20.405	-29.165	130.34247	136.68152	-18.60948	  6.91525	 95.75440	  4.48094	161.35696	701.77002	 47.50	
 20.401	-24.295	130.42671	140.66376	-21.00180	 13.23237	 88.06873	  4.47462	161.41431	701.84998	 47.50	
 20.392	-19.504	130.49394	143.82042	-22.90862	 19.82382	 80.20129	  4.46120	161.38696	701.89001	 47.50	
 20.410	-14.577	130.47165	146.35406	-24.61886	 26.87454	 71.93117	  4.44294	161.40559	701.90002	 47.50	
 20.407	 -9.736	130.55196	147.93834	-25.58800	 34.24515	 63.98215	  4.48754	161.35510	701.87000	 47.40	
 20.401	 -4.847	130.53708	148.88960	-26.07640	 41.84531	 56.35919	  4.52794	161.36598	701.85999	 47.40	
 20.400	  0.000	130.58299	149.14738	-25.82291	 48.24587	 49.91515	  4.54189	161.37978	701.77002	 47.40	
 20.401	  4.847	130.60884	148.72932	-25.25416	 55.03822	 43.45622	  4.50365	161.34976	701.84003	 47.30	
 20.407	  9.736	130.56712	147.81908	-24.47058	 62.91460	 36.26298	  4.43620	161.38802	701.89001	 47.20	
 20.410	 14.577	130.67625	146.19162	-23.33050	 70.81721	 29.28697	  4.41890	161.43768	701.84998	 47.20	
 20.392	 19.504	130.73239	143.65633	-22.47392	 79.18214	 22.46478	  4.31130	161.39937	701.78998	 47.20	
 20.401	 24.295	130.79816	140.48367	-20.63689	 87.07706	 16.23290	  4.45547	161.40988	701.88000	 47.20	
 20.405	 29.165	130.80643	136.56343	-16.85922	 94.48672	 10.27551	  4.47079	161.40024	701.92999	 47.20	
 20.397	 34.097	130.85252	132.06760	-12.93740	101.95704	  4.43631	  4.44696	161.41295	701.90997	 47.30	
 20.392	 38.938	130.92635	126.90895	 -9.11889	109.25612	 -0.70590	  4.41595	161.42081	701.88000	 47.30	
 20.396	 43.773	131.01784	121.21151	 -4.95846	115.90457	 -5.41893	  4.38420	161.45592	701.81000	 47.40	
 20.408	 48.628	131.01260	114.92275	 -0.48237	122.06393	 -9.91932	  4.33103	161.42528	701.89001	 47.40	
 20.410	 53.489	131.11830	108.12329	  4.47693	127.61690	-13.72322	  4.28256	161.43268	701.83002	 47.40	
 20.400	 58.396	131.21753	100.98530	  9.94121	132.60866	-17.04187	  4.30569	161.42288	701.89001	 47.40	
 20.403	 63.259	131.31854	 93.91099	 15.85383	136.85713	-19.92323	  4.27057	161.39377	701.90002	 47.40	
 20.413	 68.100	131.35786	 86.16792	 22.04593	140.44585	-22.33164	  4.23399	161.38863	701.96997	 47.40	
 20.398	 72.996	131.50809	 78.12953	 28.66517	143.40070	-24.37731	  4.24487	161.41902	701.96002	 47.40	
 20.394	 77.868	131.64612	 70.35792	 35.31401	145.46710	-25.90739	  4.29770	161.37869	701.83002	 47.40	
 20.403	 82.668	131.64706	 62.52846	 42.32564	146.88866	-27.23381	  4.24518	161.37546	701.88000	 47.40	
 20.392	 87.560	131.79584	 55.09860	 49.92079	147.58539	-27.63573	  4.34540	161.39316	702.02002	 47.30	
 20.392	 92.440	131.98550	 47.78384	 57.50137	147.48528	-27.49784	  4.36157	161.42729	702.03003	 47.30	
 20.403	 97.332	132.16216	 42.19741	 63.62921	146.69888	-26.82240	  4.37721	161.44426	702.00000	 47.30	
 20.394	102.132	132.44615	 35.57674	 70.88358	145.13908	-25.56315	  4.45130	161.44067	701.91998	 47.30	
 20.398	107.004	132.73755	 28.81929	 78.80269	142.81200	-23.71148	  4.41068	161.42604	701.94000	 47.20	
 20.413	111.900	132.92654	 22.03537	 86.84675	139.74451	-21.61983	  4.34203	161.40398	701.96997	 47.20	
 20.403	116.741	133.23393	 15.89056	 94.84482	135.85252	-18.85759	  4.35013	161.39813	701.88000	 47.20	
 20.400	121.604	133.38954	 10.11051	102.03033	131.57518	-15.71302	  4.23142	161.39133	701.92999	 47.20	
 20.410	126.511	133.53786	  4.65719	108.94076	126.48300	-12.18369	  4.11688	161.39272	701.91998	 47.30	
 20.408	131.372	133.60182	 -0.43260	115.74304	120.58719	 -8.19761	  4.05298	161.38248	701.94000	 47.30	
 20.396	136.227	133.71114	 -4.91515	121.91434	114.23002	 -3.56215	  4.03336	161.37584	701.87000	 47.40	
 20.392	141.062	133.85811	 -8.84980	127.50571	107.57153	  1.48330	  4.19628	161.42239	701.89001	 47.40	
 20.397	145.903	133.90985	-12.35028	132.48895	100.27472	  6.98382	  4.40461	161.39160	701.84003	 47.40	
 20.405	150.835	133.93178	-15.42429	136.90994	 92.77879	 12.85617	  4.53732	161.37378	701.91998	 47.40	
 20.401	155.705	133.97025	-18.20037	140.74261	 84.75819	 19.05921	  4.56421	161.35913	701.94000	 47.50	
 20.392	160.496	133.95001	-20.41928	143.72046	 76.73792	 25.42531	  4.46073	161.35191	701.90002	 47.50	
 20.410	165.423	133.85754	-22.32628	146.16687	 68.31203	 32.37671	  4.45763	161.37909	701.96002	 47.40	
 20.407	170.264	133.73180	-23.60960	147.72733	 60.51852	 39.23403	  4.44075	161.35709	701.92999	 47.40	
 20.401	175.153	133.66779	-24.37651	148.59264	 52.43447	 46.41529	  4.44903	161.36920	701.90997	 47.40	
  0.141	 45.000	161.58177	 77.33578	 76.07286	 72.18990	 75.46293	  6.14309	161.40266	701.78998	 47.30	
  4.001	128.691	161.23735	 64.02381	 87.31969	 85.79646	 60.12117	  5.40620	161.38177	701.88000	 47.30	
  4.002	 76.995	161.19154	 79.80255	 71.74143	 90.09859	 56.49270	  5.53884	161.40305	701.78003	 47.40	
  4.002	 25.892	161.03343	 92.45797	 59.06005	 79.86045	 65.76801	  5.48790	161.35973	701.71997	 47.30	
  4.002	-25.892	161.02307	 92.57124	 58.86755	 62.95354	 82.36075	  5.35594	161.38206	701.78003	 47.40	
  4.002	-76.995	161.08766	 80.05102	 71.02106	 52.63386	 92.99853	  5.31516	161.40324	701.75000	 47.40	
  4.001	-128.691	161.17868	 64.47905	 86.73814	 55.45063	 89.44820	  5.28231	161.40866	701.76001	 47.40	
  4.000	180.000	161.26274	 57.21407	 94.56835	 70.37556	 75.16732	  5.26001	161.44360	701.84998	 47.40	
  8.000	180.000	158.62804	 38.12431	110.95235	 67.03528	 72.69655	  3.99573	161.37486	701.82001	 47.50	
  7.991	-152.370	158.58510	 42.40488	105.70415	 49.56347	 89.80315	  4.14981	161.38861	701.78998	 47.40	
  7.997	-124.550	158.32588	 52.65043	 92.84952	 38.04197	103.71353	  4.10186	161.36301	701.78998	 47.40	
  8.006	-96.837	158.07623	 69.09389	 75.91605	 32.41521	110.10973	  4.20510	161.39856	701.79999	 47.40	
  7.988	-69.228	157.96536	 86.27395	 58.21933	 34.78237	107.46017	  4.28360	161.36647	701.79999	 47.40	
  7.997	-41.563	157.95825	101.34357	 45.51426	 44.33645	 96.30931	  4.37768	161.40485	701.90002	 47.40	
  8.008	-13.821	157.94777	110.05697	 38.37974	 59.95636	 80.08656	  4.33941	161.39606	701.82001	 47.30	
  8.008	 13.821	157.95020	109.84380	 38.70561	 78.16086	 61.76585	  4.20776	161.37517	701.90997	 47.30	
  7.997	 41.563	158.09703	101.02091	 46.40877	 94.53483	 47.29555	  4.12303	161.39499	701.83002	 47.20	
  7.988	 69.228	158.28720	 86.05148	 59.52933	105.22670	 38.63892	  4.07676	161.47383	701.72998	 47.20	
  8.006	 96.837	158.50645	 68.53020	 77.73357	107.14802	 36.83480	  4.08151	161.47440	701.83002	 47.10	
  7.997	124.550	158.62683	 52.38962	 94.42290	 99.97584	 42.87027	  4.21694	161.42126	701.77002	 47.10	
  7.991	152.370	158.72609	 41.99662	106.53114	 85.17752	 55.54928	  4.10396	161.43457	701.78998	 47.10	
 12.009	161.059	153.53488	 21.60520	122.73164	 81.00431	 50.80067	  4.39029	161.44092	701.84003	 47.10	
 12.013	142.081	153.41057	 28.78139	113.57535	 98.54566	 36.00171	  4.56780	161.43808	701.90997	 47.10	
 12.006	123.113	153.29532	 40.24247	 99.32240	112.36926	 24.95237	  4.23073	161.44077	701.91998	 47.10	
 12.007	104.200	152.94685	 55.23704	 82.33990	120.92029	 18.45239	  3.96851	161.40715	701.76001	 47.20	
 11.989	 85.301	152.69350	 72.65942	 64.06583	122.81905	 17.30438	  4.04456	161.40689	701.87000	 47.20	
 12.013	 66.294	152.43454	 90.66158	 47.14494	118.00368	 20.97806	  4.11543	161.43225	701.96002	 47.20	
 12.012	 47.388	152.25764	106.54181	 33.62392	106.81960	 29.21618	  4.28333	161.36661	701.85999	 47.20	
 11.990	 28.440	152.17775	118.61737	 24.02297	 91.33238	 40.94581	  4.42865	161.40800	701.84998	 47.10	
 11.991	  9.464	152.00334	125.19775	 18.80777	 73.67336	 56.86903	  4.50594	161.39337	701.81000	 47.10	
 11.991	 -9.464	152.10062	125.38177	 18.57863	 55.12648	 74.75072	  4.70045	161.45009	701.92999	 47.10	
 11.990	-28.440	152.00992	118.87118	 22.93952	 38.45621	 93.08311	  4.69186	161.42033	701.83002	 47.10	
 12.012	-47.388	151.95222	106.96885	 31.91689	 25.23904	108.76983	  4.69231	161.40356	701.78998	 47.10	
 12.013	-66.294	151.93854	 90.94347	 45.07999	 16.32166	119.82296	  4.63278	161.42181	701.84998	 47.10	
 11.989	-85.301	152.11308	 73.21580	 61.17885	 12.69471	125.22392	  4.54686	161.41310	701.76001	 47.20	
 12.007	-104.200	152.36554	 55.52185	 79.53516	 13.37540	123.84742	  4.53549	161.36884	701.78998	 47.30	
 12.006	-123.113	152.79631	 40.57101	 97.12041	 19.37192	115.89925	  4.64327	161.42210	701.82001	 47.30	
 12.013	-142.081	153.13306	 29.18044	111.99450	 30.24576	102.79996	  4.41190	161.40282	701.78998	 47.30	
 12.009	-161.059	153.39738	 21.80218	121.81721	 44.67498	 86.69305	  4.41971	161.41975	701.90002	 47.30	
 16.000	180.000	145.65544	 -1.18755	137.83763	 55.46318	 61.34787	  4.67543	161.41087	701.90002	 47.30	
 15.990	-165.604	145.66653	  0.37399	134.88359	 38.14787	 79.83463	  4.67425	161.37737	701.85999	 47.30	
 16.002	-151.165	145.37808	  5.89873	127.15178	 22.69341	 97.52022	  4.57631	161.38522	701.75000	 47.40	
 16.002	-136.836	145.04124	 14.81742	114.70246	  9.99999	113.50323	  4.62976	161.42729	701.84998	 47.40	
 15.995	-122.439	144.42554	 26.93536	 98.89282	 -0.02367	126.20105	  4.73756	161.38739	701.85999	 47.40	
 15.993	-107.966	143.91556	 41.55754	 81.03912	 -6.60180	134.36003	  4.71446	161.39568	701.82001	 47.40	
 16.005	-93.629	143.47893	 57.95480	 61.92775	 -9.87800	137.83060	  4.66091	161.35896	701.79999	 47.50	
 15.992	-79.234	143.26659	 74.86166	 45.78583	 -7.86267	136.35114	  4.69777	161.35919	701.79999	 47.50	
 16.009	-64.774	143.03096	 93.25321	 29.88519	 -3.04951	129.87743	  4.66654	161.35588	701.75000	 47.50	
 15.997	-50.364	143.11021	109.64404	 17.24515	  5.58952	118.73924	  4.72418	161.36665	701.82001	 47.50	
 15.997	-36.045	143.25046	123.46359	  7.46890	 17.05570	103.86345	  4.72642	161.39767	701.82001	 47.60	
 16.000	-21.597	143.25078	132.96062	  0.56439	 31.77932	 86.28748	  4.60123	161.36186	701.84003	 47.50	
 16.003	 -7.169	143.27495	137.78967	 -2.72226	 49.09754	 67.24304	  4.67427	161.37178	701.83002	 47.40	
 16.003	  7.169	143.34505	137.73473	 -2.05100	 66.45525	 50.26450	  4.67621	161.40872	701.84998	 47.40	
 16.000	 21.597	143.35863	132.77475	  1.82132	 85.39934	 34.35157	  4.57062	161.38811	701.84003	 47.40	
 15.997	 36.045	143.45789	123.33520	  9.25984	102.56214	 20.61108	  4.69755	161.37395	701.77002	 47.40	
 15.997	 50.364	143.58768	109.50883	 19.73250	117.38354	  9.79822	  4.65862	161.35364	701.75000	 47.40	
 16.009	 64.774	143.88969	 92.95862	 33.09408	128.46303	  1.90556	  4.60262	161.37198	701.72998	 47.50	
 15.992	 79.234	144.11444	 74.66405	 49.22397	134.54910	 -2.82300	  4.54683	161.35454	701.73999	 47.50	
 16.005	 93.629	144.35223	 57.37750	 65.99832	135.71883	 -3.59333	  4.62577	161.38042	701.79999	 47.50	
 15.993	107.966	144.76866	 41.07443	 84.70329	131.49638	 -0.60384	  4.66081	161.33604	701.79999	 47.50	
 15.995	122.439	145.26645	 26.17827	102.13034	122.54037	  6.30845	  4.37612	161.38889	701.78003	 47.50	
 16.002	136.836	145.46333	 14.54235	117.22721	108.99812	 16.42358	  4.38171	161.35310	701.76001	 47.40	
 16.002	151.165	145.62108	  5.60735	128.77881	 92.47383	 29.51903	  4.90834	161.37144	701.81000	 47.40	
 15.990	165.604	145.73425	  0.31773	135.80127	 73.63929	 44.77515	  4.65416	161.40056	701.83002	 47.40	
 20.003	168.362	134.96625	-21.01353	146.35452	 64.27760	 37.65758	  4.38086	161.36139	701.81000	 47.40	
 20.008	156.764	135.08273	-16.76720	140.69800	 83.31667	 21.80059	  4.56419	161.35036	701.75000	 47.30	
 20.000	145.147	135.09015	 -9.71636	131.14838	101.32894	  7.78363	  4.39108	161.36243	701.71002	 47.30	
 19.995	133.545	134.85716	 -0.46239	118.23454	117.45202	 -4.24921	  4.08609	161.35513	701.81000	 47.20	
 20.009	121.926	134.52989	 11.29709	102.51109	130.68617	-13.59611	  4.27222	161.40164	701.77002	 47.20	
 20.005	110.327	134.11697	 25.50966	 84.71016	140.05397	-20.24307	  4.42733	161.43346	701.70001	 47.20	
 19.989	 98.733	133.51402	 41.65445	 66.30347	145.31012	-24.24209	  4.38780	161.35052	701.79999	 47.10	
 19.999	 87.075	133.07094	 56.58183	 50.12861	146.63556	-25.40496	  4.32918	161.38754	701.75000	 47.10	
 19.992	 75.457	132.81255	 74.70576	 33.18774	143.66563	-23.05444	  4.31205	161.36469	701.65997	 47.10	
 20.009	 63.844	132.51346	 93.21485	 18.09048	136.57230	-18.09890	  4.27007	161.35722	701.67999	 47.10	
 19.989	 52.269	132.42998	109.71624	  5.10282	125.68716	-10.58554	  4.34932	161.39063	701.66998	 47.10	
 19.999	 40.602	132.23058	124.52806	 -5.90880	111.23924	 -0.38832	  4.47832	161.39166	701.71997	 47.10	
 20.004	 29.051	132.08023	136.03369	-15.01588	 94.33786	 12.12097	  4.48244	161.34171	701.64001	 47.10	
 20.005	 17.433	131.96339	144.07475	-20.67780	 76.12825	 26.68409	  4.42476	161.37430	701.65997	 47.10	
 20.006	  5.780	131.85329	147.81099	-23.13671	 57.26749	 43.11306	  4.48236	161.36990	701.71997	 47.20	
 20.006	 -5.780	131.81325	147.87953	-24.00254	 41.39034	 58.64171	  4.54526	161.34236	701.65997	 47.20	
 20.005	-17.433	131.78285	144.20105	-21.66955	 24.07198	 77.26361	  4.45437	161.40714	701.69000	 47.20	
 20.004	-29.051	131.65717	136.15456	-16.53679	  8.77059	 95.59350	  4.43751	161.32747	701.69000	 47.20	
 19.999	-40.602	131.66702	124.54945	 -8.88621	 -3.92884	112.05302	  4.48480	161.28387	701.60999	 47.20	
 19.989	-52.269	131.56555	109.84592	  1.47441	-14.51389	126.45207	  4.49158	161.34514	701.63000	 47.20	
 20.009	-63.844	131.49925	 93.42800	 14.12090	-22.42684	137.41664	  4.42619	161.31110	701.72998	 47.20	
 19.992	-75.457	131.69693	 74.83351	 29.44492	-27.32189	144.55942	  4.43151	161.30482	701.73999	 47.20	
 19.999	-87.075	131.87576	 56.62580	 46.24081	-29.86532	147.88852	  4.53558	161.35678	701.64001	 47.20	
 19.989	-98.733	132.16936	 41.93203	 62.21776	-29.41584	147.14268	  4.48539	161.34764	701.71002	 47.20	
 20.005	-110.327	132.75758	 25.92792	 80.76164	-25.95813	142.52022	  4.49569	161.33607	701.71002	 47.20	
 20.009	-121.926	133.38472	 11.57912	 98.61101	-19.95289	133.88316	  4.53230	161.28879	701.81000	 47.20	
 19.995	-133.545	134.04591	 -0.33638	114.98454	-11.06000	121.45313	  4.49361	161.30464	701.71002	 47.20	
 20.000	-145.147	134.53029	 -9.58582	128.74644	  0.60515	106.13295	  4.42197	161.28539	701.76001	 47.30	
 20.008	-156.764	134.64131	-16.81343	139.02191	 14.53015	 89.00405	  4.32134	161.27574	701.75000	 47.40	
 20.003	-168.362	134.81516	-21.13748	145.48648	 30.33058	 70.46414	  4.48497	161.25902	701.65997	 47.40	
 20.000	180.000	134.80019	-22.28859	147.82782	 46.31902	 53.65262	  4.50127	161.29619	701.64001	 47.40	
