FileType=PCF
NHL=14
Date=03/12/19	09:48:32
Facility=APL
Serial=16071-11
Customer=NASA
NP=6
Mach=0.450000
Calibration=1:1
CalPts=490
TstPts=95
PortNumbering=AP Standard
Units=Torr C m/s kg/m^3 deg mm 
Theta[deg]	Phi[deg]	P1[Torr]	P2[Torr]	P3[Torr]	P4[Torr]	P5[Torr]	P6[Torr]	Pt[Torr]	Ps[Abs,Torr]	Ts[C]	
  0.000	  0.000	 92.39463	 40.84851	 40.64534	 40.83818	 39.08318	  2.10625	 92.26093	712.50000	 21.50	
  1.691	128.401	 92.48756	 37.73317	 43.67687	 44.75353	 35.19503	  2.00875	 92.36767	712.41998	 21.70	
  1.692	 77.194	 92.54804	 41.81988	 39.54815	 45.80461	 34.28691	  2.12391	 92.45100	712.28998	 21.90	
  1.699	 26.182	 92.63710	 45.19003	 36.31890	 43.01134	 36.88892	  2.18159	 92.51851	712.34998	 22.00	
  1.699	-26.182	 92.63269	 45.26175	 36.29794	 38.78450	 41.22821	  2.09514	 92.49883	712.40997	 22.20	
  1.692	-77.194	 92.67751	 42.01741	 39.56026	 36.24844	 43.89776	  1.97924	 92.54971	712.45001	 22.30	
  1.691	-128.401	 92.73884	 37.92884	 43.80397	 37.15980	 43.01261	  1.92460	 92.60501	712.39001	 22.40	
  1.700	180.000	 92.74081	 36.01611	 46.04955	 40.81609	 39.12873	  1.92119	 92.61870	712.40997	 22.60	
  3.400	180.000	 92.69551	 30.83361	 50.64497	 40.43647	 38.62157	  1.58753	 92.72903	712.46002	 22.70	
  3.388	-152.325	 92.74572	 32.04124	 49.46943	 36.01829	 43.43767	  1.56513	 92.73325	712.47998	 22.90	
  3.397	-124.529	 92.79866	 35.18808	 46.39170	 32.55945	 47.03022	  1.57968	 92.75181	712.40997	 23.00	
  3.399	-96.763	 92.83530	 39.62306	 41.54322	 31.06149	 48.92140	  1.66151	 92.77333	712.38000	 23.10	
  3.394	-69.283	 92.85582	 44.25946	 36.99366	 31.69757	 48.29749	  1.75988	 92.80814	712.40997	 23.30	
  3.400	-41.398	 92.80904	 48.32537	 33.23231	 34.28392	 45.37617	  1.87051	 92.80820	712.42999	 23.40	
  3.401	-14.021	 92.78582	 50.76355	 31.12628	 38.40158	 41.14806	  1.98328	 92.82072	712.46002	 23.60	
  3.401	 14.021	 92.79791	 50.73727	 31.09589	 43.13815	 36.36491	  2.05546	 92.88203	712.48999	 23.70	
  3.400	 41.398	 92.77763	 48.15115	 33.17772	 47.58381	 32.25230	  2.04706	 92.89630	712.52002	 23.90	
  3.394	 69.283	 92.78081	 44.02647	 36.91691	 50.52046	 29.54149	  1.98905	 92.92452	712.54999	 24.00	
  3.399	 96.763	 92.84540	 39.41048	 41.55823	 51.12314	 29.04630	  1.89952	 92.96342	712.37000	 24.10	
  3.397	124.529	 92.89869	 35.03329	 46.38287	 49.17524	 30.83055	  1.77759	 92.99026	712.47998	 24.30	
  3.388	152.325	 92.97461	 32.03373	 49.49833	 45.45728	 34.21853	  1.65339	 93.02628	712.51001	 24.40	
  5.099	161.165	 92.56641	 26.13461	 54.61648	 45.00704	 33.25505	  1.16707	 93.05933	712.45001	 24.50	
  5.109	142.013	 92.43621	 28.28513	 51.93055	 49.61816	 28.93361	  1.22090	 92.98811	712.47998	 24.60	
  5.095	123.033	 92.41949	 31.95174	 48.29816	 53.32906	 25.78594	  1.39955	 93.05792	712.53998	 24.80	
  5.105	104.191	 92.35627	 36.28165	 43.48925	 55.53725	 23.99257	  1.49707	 93.04703	712.48999	 24.90	
  5.093	 85.207	 92.34728	 41.14977	 38.62379	 56.00936	 23.61451	  1.60892	 93.07993	712.46002	 25.00	
  5.104	 66.290	 92.35993	 45.99451	 34.04089	 54.79086	 24.68484	  1.69375	 93.10383	712.51001	 25.10	
  5.094	 47.331	 92.41242	 50.41037	 30.03234	 51.91215	 27.17333	  1.77005	 93.12259	712.52002	 25.30	
  5.089	 28.397	 92.46034	 53.89928	 27.06591	 47.67580	 31.12702	  1.80266	 93.12428	712.46997	 25.40	
  5.096	  9.576	 92.55322	 55.77818	 25.54015	 42.83271	 35.68792	  1.75895	 93.16401	712.42999	 25.50	
  5.096	 -9.576	 92.61802	 55.83607	 25.54919	 38.07028	 40.58148	  1.68837	 93.13137	712.46002	 25.60	
  5.089	-28.397	 92.72438	 54.17755	 27.17117	 33.47505	 45.37859	  1.58478	 93.16746	712.44000	 25.70	
  5.094	-47.331	 92.81700	 50.89045	 30.17244	 29.80514	 49.51430	  1.46151	 93.20227	712.47998	 25.80	
  5.104	-66.290	 92.92650	 46.58014	 34.20420	 27.20115	 52.59113	  1.35572	 93.23740	712.59998	 25.90	
  5.093	-85.207	 92.92614	 41.80378	 38.72396	 26.07140	 53.85318	  1.25745	 93.20016	712.51001	 26.10	
  5.105	-104.191	 92.97910	 36.89679	 43.64140	 26.38013	 53.46572	  1.16961	 93.23482	712.53998	 26.20	
  5.095	-123.033	 93.00674	 32.43874	 48.56247	 28.19650	 51.25997	  1.10545	 93.26245	712.70001	 26.30	
  5.109	-142.013	 92.92982	 28.74928	 52.22212	 31.31932	 47.51297	  1.08751	 93.21762	712.53003	 26.40	
  5.099	-161.165	 92.97022	 26.35687	 54.82956	 35.37597	 43.05168	  1.09846	 93.31770	712.47998	 26.50	
  5.100	180.000	 92.88583	 25.53636	 55.68065	 40.13060	 38.19342	  1.11735	 93.30531	712.51001	 26.60	
  6.800	180.000	 92.17864	 20.15858	 60.02715	 39.27565	 37.25829	  0.51705	 93.29836	712.39001	 26.80	
  6.796	-166.229	 92.24580	 20.75659	 59.48971	 34.65188	 42.10225	  0.48376	 93.27962	712.53998	 26.90	
  6.808	-152.311	 92.34556	 22.44419	 57.70487	 30.35192	 46.80508	  0.50763	 93.30784	712.45001	 26.90	
  6.795	-138.383	 92.37591	 25.10150	 54.71429	 26.55689	 51.04266	  0.51391	 93.27859	712.40997	 27.00	
  6.792	-124.591	 92.45168	 28.62669	 50.88535	 23.70490	 54.66534	  0.50822	 93.32098	712.53003	 27.10	
  6.787	-110.754	 92.46471	 32.95357	 46.57465	 21.78771	 57.15661	  0.51778	 93.35189	712.56000	 27.20	
  6.800	-96.985	 92.44411	 37.57933	 41.57765	 20.77984	 58.43143	  0.60209	 93.35605	712.51001	 27.30	
  6.800	-83.015	 92.41687	 42.44530	 36.79016	 20.76167	 58.47380	  0.64592	 93.36646	712.52002	 27.40	
  6.787	-69.246	 92.43405	 47.12098	 32.38286	 21.86743	 57.17417	  0.75119	 93.41341	712.47998	 27.50	
  6.792	-55.409	 92.32468	 51.55717	 28.10987	 23.87595	 54.67437	  0.85007	 93.38889	712.44000	 27.60	
  6.795	-41.617	 92.27006	 55.45597	 24.74891	 26.93018	 51.11605	  0.93868	 93.38667	712.53003	 27.70	
  6.808	-27.689	 92.18009	 58.34683	 22.22843	 30.89025	 46.92350	  1.07808	 93.41090	712.45001	 27.80	
  6.796	-13.771	 92.08962	 60.05552	 20.65550	 35.20698	 42.18462	  1.21056	 93.39488	712.54999	 27.90	
  6.800	  0.000	 91.99630	 60.58283	 20.07886	 39.94356	 37.30582	  1.30086	 93.41682	712.53003	 28.00	
  6.796	 13.771	 91.93732	 59.89558	 20.64254	 44.78680	 32.54688	  1.34939	 93.43270	712.53003	 28.10	
  6.808	 27.689	 91.82294	 57.97779	 22.14685	 49.54613	 27.93829	  1.36580	 93.40829	712.46997	 28.10	
  6.795	 41.617	 91.78809	 54.87000	 24.64736	 53.73924	 24.21959	  1.33204	 93.40835	712.54999	 28.20	
  6.792	 55.409	 91.72636	 50.82708	 28.00453	 57.09924	 21.26741	  1.26686	 93.41345	712.57001	 28.30	
  6.787	 69.246	 91.78267	 46.34018	 32.28491	 59.44081	 19.20716	  1.20754	 93.47319	712.51001	 28.40	
  6.800	 83.015	 91.74187	 41.56704	 36.73655	 60.60485	 18.09962	  1.10450	 93.44456	712.59003	 28.50	
  6.800	 96.985	 91.81357	 36.74823	 41.57722	 60.59695	 18.17781	  1.01744	 93.45384	712.59998	 28.60	
  6.787	110.754	 91.85110	 32.17211	 46.40371	 59.30409	 19.25675	  0.91792	 93.41756	712.56000	 28.70	
  6.792	124.591	 92.00348	 27.98076	 50.78168	 56.93319	 21.32702	  0.82493	 93.49725	712.50000	 28.80	
  6.795	138.383	 92.07122	 24.66262	 54.57633	 53.48562	 24.18952	  0.70273	 93.46529	712.46002	 28.80	
  6.808	152.311	 92.20415	 22.19818	 57.61773	 49.15781	 27.98463	  0.61133	 93.50063	712.52002	 28.90	
  6.796	166.229	 92.27361	 20.72700	 59.45864	 44.11431	 32.50603	  0.57054	 93.46599	712.56000	 29.00	
  8.491	168.704	 91.26363	 15.59811	 63.60838	 43.16434	 31.22291	 -0.14670	 93.49593	712.47998	 29.10	
  8.502	157.493	 91.17296	 16.45921	 62.09595	 48.28807	 26.78639	 -0.09565	 93.53322	712.53998	 29.20	
  8.494	146.194	 91.05360	 18.46482	 59.65097	 52.93082	 22.66919	 -0.01081	 93.50726	712.53003	 29.30	
  8.495	135.039	 90.95676	 21.15668	 56.38804	 56.96956	 19.40089	  0.09363	 93.50865	712.59003	 29.30	
  8.487	123.723	 90.80813	 24.56842	 52.25156	 60.31190	 16.76531	 -0.10738	 93.48573	712.57001	 29.40	
  8.492	112.575	 90.73767	 28.53023	 47.91232	 62.60831	 14.70053	  0.19825	 93.51978	712.54999	 29.50	
  8.510	101.220	 90.60071	 33.14389	 42.99471	 64.32338	 13.30861	  0.30243	 93.50619	712.40997	 29.50	
  8.500	 90.000	 90.53083	 37.98190	 38.10580	 64.87597	 12.92023	  0.40015	 93.50960	712.59003	 29.60	
  8.510	 78.780	 90.48332	 42.87563	 33.24768	 64.41746	 13.21408	  0.43318	 93.51300	712.50000	 29.70	
  8.492	 67.425	 90.47823	 47.77803	 28.56673	 62.78559	 14.34676	  0.50784	 93.48807	712.56000	 29.80	
  8.487	 56.277	 90.52296	 52.39584	 24.59578	 60.54630	 16.27492	  0.61622	 93.48480	712.51001	 29.80	
  8.495	 44.961	 90.59013	 56.66817	 21.18036	 57.38694	 19.11995	  0.60260	 93.50243	712.57001	 29.90	
  8.494	 33.806	 90.63746	 60.04569	 18.47351	 53.41091	 22.62283	  0.75620	 93.51299	712.59003	 30.00	
  8.502	 22.507	 90.73390	 62.44869	 16.43563	 48.77548	 26.80090	  0.75063	 93.52692	712.54999	 30.00	
  8.491	 11.296	 90.85203	 63.93969	 15.28361	 43.88375	 31.32067	  0.72506	 93.57996	712.56000	 30.10	
  8.500	  0.000	 90.89970	 64.56014	 14.85667	 38.99484	 36.15902	  0.65509	 93.53014	712.53998	 30.20	
  8.491	-11.296	 90.96906	 64.09809	 15.16351	 34.16990	 41.22892	  0.56763	 93.50271	712.51001	 30.20	
  8.502	-22.507	 91.09308	 62.75212	 16.37241	 29.60444	 46.06271	  0.41982	 93.50491	712.65997	 30.30	
  8.494	-33.806	 91.28041	 60.63359	 18.56696	 25.39934	 50.57059	  0.26339	 93.54221	712.51001	 30.40	
  8.495	-44.961	 91.32901	 57.40623	 21.31100	 21.87204	 54.69051	  0.16799	 93.49448	712.57001	 30.40	
  8.487	-56.277	 91.40070	 53.30759	 24.68901	 19.02079	 58.20294	  0.03501	 93.49534	712.51001	 30.50	
  8.492	-67.425	 91.50021	 48.82685	 28.74448	 16.97885	 60.75310	 -0.06015	 93.52400	712.56000	 30.50	
  8.510	-78.780	 91.51630	 44.05307	 33.44100	 15.63567	 62.14434	 -0.16546	 93.50910	712.52002	 30.60	
  8.500	-90.000	 91.57185	 39.25016	 38.09135	 15.24362	 62.54080	 -0.17905	 93.48120	712.56000	 30.70	
  8.510	-101.220	 91.63276	 34.33459	 43.02996	 15.59914	 62.08548	 -0.22135	 93.51610	712.52002	 30.70	
  8.492	-112.575	 91.67837	 29.56001	 48.11006	 16.89800	 60.74915	 -0.29557	 93.51384	712.53998	 30.80	
  8.487	-123.723	 91.67587	 25.46672	 52.42522	 18.84216	 58.29081	 -0.47984	 93.49322	712.47998	 30.80	
  8.495	-135.039	 91.64752	 21.88153	 56.52234	 21.54693	 54.76480	 -0.28815	 93.47726	712.59003	 30.90	
  8.494	-146.194	 91.59085	 18.99235	 59.77799	 24.83347	 50.59425	 -0.23634	 93.45340	712.53998	 30.90	
  8.502	-157.493	 91.54584	 16.68895	 62.18180	 28.94487	 46.17597	 -0.27276	 93.49596	712.62000	 31.00	
  8.491	-168.704	 91.44327	 15.58432	 63.67430	 33.65707	 41.27802	 -0.26073	 93.47924	712.51001	 31.10	
  8.500	180.000	 91.34840	 15.13956	 64.20037	 38.28898	 36.27701	 -0.20468	 93.48106	712.54999	 31.10	
 10.200	180.000	 89.98998	  9.86198	 68.21888	 37.06211	 34.86725	 -1.01186	 93.48275	712.60999	 31.20	
 10.191	-170.497	 90.10897	 10.32247	 67.79900	 32.16910	 39.74001	 -1.05105	 93.49252	712.53998	 31.20	
 10.210	-161.034	 90.14857	 11.38824	 66.51946	 27.30320	 45.04918	 -1.20507	 93.44766	712.48999	 31.30	
 10.194	-151.526	 90.26151	 13.29634	 64.30126	 23.21502	 49.54552	 -1.08410	 93.45004	712.64001	 31.30	
 10.190	-142.105	 90.30707	 15.59058	 61.42978	 19.59035	 54.16426	 -1.08257	 93.42870	712.56000	 31.40	
 10.215	-132.646	 90.33106	 18.54039	 57.92368	 16.40423	 58.20997	 -1.15571	 93.44458	712.52002	 31.50	
 10.203	-123.092	 90.30586	 22.17400	 53.61250	 13.75606	 61.50562	 -1.43975	 93.41085	712.50000	 31.50	
 10.192	-113.678	 90.34062	 26.26449	 49.23541	 11.90021	 63.91138	 -1.09301	 93.48140	712.53003	 31.60	
 10.208	-104.249	 90.22148	 30.61740	 44.24149	 10.53924	 65.57907	 -1.08000	 93.40118	712.54999	 31.70	
 10.210	-94.801	 90.20103	 35.58704	 39.28575	  9.88649	 66.48598	 -1.03517	 93.42587	712.46997	 31.70	
 10.210	-85.199	 90.13816	 40.60917	 34.31070	  9.94022	 66.42486	 -0.99896	 93.40808	712.51001	 31.80	
 10.208	-75.751	 90.04927	 45.41611	 29.50407	 10.60747	 65.56168	 -1.00422	 93.39632	712.53003	 31.80	
 10.192	-66.322	 90.00763	 50.05390	 25.08155	 12.06412	 63.83853	 -0.88616	 93.40758	712.63000	 31.90	
 10.203	-56.908	 89.93692	 54.67803	 21.17929	 14.05899	 61.40434	 -0.79538	 93.42775	712.66998	 31.90	
 10.215	-47.354	 89.81892	 58.89302	 17.79056	 16.72150	 58.01512	 -0.77025	 93.40557	712.54999	 32.00	
 10.190	-37.895	 89.76856	 62.20258	 14.93473	 20.11865	 53.88512	 -0.80919	 93.40923	712.62000	 32.00	
 10.194	-28.474	 89.69051	 64.90269	 12.63815	 23.84892	 49.45535	 -0.57468	 93.47360	712.57001	 32.00	
 10.210	-18.966	 89.48842	 66.93245	 10.89120	 28.15678	 44.67045	 -0.71153	 93.38937	712.47998	 32.10	
 10.191	 -9.503	 89.42874	 68.16249	  9.93437	 33.16150	 39.63827	 -0.30293	 93.45071	712.65997	 32.10	
 10.200	  0.000	 89.27328	 68.46564	  9.55555	 37.88309	 34.47224	 -0.17772	 93.40256	712.60999	 32.20	
 10.191	  9.503	 89.16468	 67.90912	  9.78867	 42.77990	 29.58657	 -0.61259	 93.44846	712.59003	 32.20	
 10.210	 18.966	 89.02277	 66.48534	 10.66240	 47.99417	 24.83968	 -0.26711	 93.44153	712.65002	 32.30	
 10.194	 28.474	 88.94500	 64.27599	 12.44340	 52.50241	 20.69763	 -0.25983	 93.42583	712.62000	 32.30	
 10.190	 37.895	 88.90450	 61.52778	 14.81390	 56.90562	 17.20318	 -0.68526	 93.45260	712.50000	 32.40	
 10.215	 47.354	 88.81456	 57.89148	 17.58302	 60.81312	 13.91693	 -0.81566	 93.46046	712.53003	 32.40	
 10.203	 56.908	 88.73353	 53.46357	 20.97154	 63.83036	 11.23829	 -0.98287	 93.42634	712.59003	 32.50	
 10.192	 66.322	 88.70367	 48.71088	 24.99612	 66.29016	  9.23369	 -1.08887	 93.40859	712.53998	 32.50	
 10.208	 75.751	 88.65877	 43.82773	 29.34678	 68.03432	  7.77513	 -1.15108	 93.38799	712.46997	 32.60	
 10.210	 85.199	 88.71243	 38.92659	 34.07921	 68.94243	  7.08070	 -0.53274	 93.41730	712.50000	 32.60	
 10.210	 94.801	 88.82389	 33.92336	 39.15865	 68.92192	  7.05114	 -0.73358	 93.47903	712.51001	 32.70	
 10.208	104.249	 88.83396	 28.96195	 44.05819	 67.81567	  7.79328	 -0.61614	 93.36536	712.57001	 32.70	
 10.192	113.678	 88.97195	 24.69678	 48.92022	 66.02579	  9.26391	 -0.74584	 93.38188	712.53998	 32.70	
 10.203	123.092	 89.09422	 21.15432	 53.37841	 63.47192	 11.35536	 -1.42704	 93.39078	712.59003	 32.80	
 10.215	132.646	 89.21700	 17.75899	 57.67206	 60.30415	 14.02438	 -0.83728	 93.37105	712.47998	 32.80	
 10.190	142.105	 89.34766	 14.85542	 61.18475	 56.32380	 17.36100	 -1.48086	 93.36155	712.50000	 32.90	
 10.194	151.526	 89.45522	 12.56098	 64.06429	 51.85894	 21.04324	 -0.96600	 93.33876	712.59998	 32.90	
 10.210	161.034	 89.58839	 10.98225	 66.28848	 47.11237	 25.13039	 -1.39097	 93.35406	712.50000	 33.00	
 10.191	170.497	 89.79329	 10.15325	 67.60316	 41.84941	 29.87225	 -1.10648	 93.37562	712.56000	 33.00	
 11.899	171.783	 88.03872	  4.44424	 71.40436	 40.31668	 28.41484	 -2.19622	 93.30444	712.56000	 33.00	
 11.890	163.610	 87.94535	  5.39165	 70.19111	 45.42270	 23.81463	 -2.44331	 93.33531	712.60999	 33.10	
 11.889	155.445	 87.78295	  6.74858	 68.23349	 50.39937	 19.59813	 -2.57583	 93.31509	712.58002	 33.10	
 11.909	147.299	 87.63424	  8.56155	 65.68726	 55.03519	 15.55886	 -2.26257	 93.32937	712.60999	 33.20	
 11.902	139.148	 87.50237	 11.08629	 62.46975	 59.39931	 12.05319	 -2.23196	 93.33300	712.57001	 33.20	
 11.894	130.867	 87.33998	 14.11694	 58.65784	 63.12273	  8.81975	 -1.84692	 93.32502	712.58002	 33.30	
 11.897	122.732	 87.14741	 17.63896	 54.31387	 66.29005	  6.05651	 -2.41876	 93.24179	712.62000	 33.40	
 11.903	114.597	 87.06898	 21.48158	 49.89996	 68.89342	  3.81136	 -2.41954	 93.29710	712.60999	 33.40	
 11.893	106.346	 87.03365	 25.57525	 45.00526	 70.88297	  2.39628	 -1.55217	 93.33478	712.52002	 33.40	
 11.892	 98.155	 86.86790	 29.92685	 39.97399	 72.20307	  1.48600	 -2.45475	 93.31290	712.59998	 33.50	
 11.900	 90.000	 86.77059	 34.86517	 34.98527	 72.67120	  1.21697	 -2.17367	 93.32491	712.57001	 33.50	
 11.892	 81.845	 86.68552	 39.82461	 30.16562	 72.26694	  1.50189	 -2.25177	 93.30231	712.56000	 33.60	
 11.893	 73.654	 86.66556	 44.81309	 25.61881	 71.08906	  2.33348	 -2.16948	 93.30996	712.48999	 33.60	
 11.903	 65.403	 86.64327	 49.64759	 21.23304	 69.24490	  3.75184	 -2.22508	 93.29833	712.53998	 33.70	
 11.897	 57.268	 86.61788	 54.27568	 17.54091	 66.74033	  6.00278	 -2.17266	 93.27837	712.63000	 33.70	
 11.894	 49.133	 86.60321	 58.70230	 13.98627	 63.58115	  8.60229	 -1.95693	 93.27081	712.70001	 33.70	
 11.902	 40.852	 86.63541	 62.52275	 10.91840	 60.04132	 11.71381	 -1.73421	 93.22093	712.46997	 33.80	
 11.909	 32.701	 86.72899	 65.61941	  8.44143	 55.82991	 15.31594	 -1.72063	 93.23083	712.51001	 33.80	
 11.889	 24.555	 86.85951	 68.24882	  6.34896	 51.21552	 19.23300	 -1.77918	 93.27077	712.51001	 33.80	
 11.890	 16.390	 87.01417	 70.28777	  4.96985	 46.45416	 23.26155	 -1.76586	 93.24340	712.45001	 33.80	
 11.899	  8.217	 87.09414	 71.56118	  3.96275	 41.23454	 28.02300	 -1.73022	 93.22239	712.51001	 33.90	
 11.900	  0.000	 87.22767	 72.09218	  3.63568	 36.39642	 32.82055	 -1.64646	 93.23375	712.39001	 33.90	
 11.899	 -8.217	 87.32486	 71.84263	  4.01776	 31.47260	 37.96804	 -1.58550	 93.20955	712.46002	 34.00	
 11.890	-16.390	 87.46986	 70.78234	  5.15955	 26.64274	 43.07162	 -1.80100	 93.21640	712.57001	 34.00	
 11.889	-24.555	 87.59870	 69.03010	  6.65013	 22.44644	 47.86100	 -1.92396	 93.21703	712.60999	 34.00	
 11.909	-32.701	 87.68117	 66.51976	  8.67078	 18.46148	 52.37711	 -2.02514	 93.19252	712.47998	 34.10	
 11.902	-40.852	 87.82063	 63.49399	 11.17780	 14.86355	 57.02928	 -2.04956	 93.21423	712.65002	 34.10	
 11.894	-49.133	 87.85281	 59.89780	 14.20688	 11.70956	 60.89191	 -1.89311	 93.16437	712.64001	 34.10	
 11.897	-57.268	 87.96292	 55.72719	 17.70958	  9.23273	 63.97815	 -1.74623	 93.14759	712.60999	 34.20	
 11.903	-65.403	 88.00720	 51.05896	 21.34820	  7.00900	 66.61948	 -1.79908	 93.12334	712.53998	 34.20	
 11.893	-73.654	 88.08100	 46.33741	 25.53385	  5.38738	 68.72365	 -1.82793	 93.13475	712.51001	 34.20	
 11.892	-81.845	 88.17354	 41.48172	 30.21365	  4.40931	 69.93310	 -1.88337	 93.16176	712.59998	 34.20	
 11.900	-90.000	 88.18378	 36.55625	 35.09738	  4.11247	 70.28661	 -1.85350	 93.10337	712.59998	 34.30	
 11.892	-98.155	 88.30843	 31.62516	 39.98391	  4.32732	 69.93443	 -1.86796	 93.16846	712.62000	 34.30	
 11.893	-106.346	 88.34272	 26.94955	 44.97435	  5.29190	 68.73481	 -2.12022	 93.13462	712.46002	 34.30	
 11.903	-114.597	 88.41090	 22.60582	 50.02294	  6.77990	 66.81912	 -1.97144	 93.12962	712.57001	 34.40	
 11.897	-122.732	 88.47414	 18.70482	 54.47675	  8.83991	 64.23574	 -2.27724	 93.13335	712.58002	 34.40	
 11.894	-130.867	 88.46822	 15.25583	 58.76237	 11.22615	 61.08799	 -2.05229	 93.13137	712.53998	 34.40	
 11.902	-139.148	 88.45441	 12.08018	 62.52021	 14.11825	 57.24252	 -1.95205	 93.16694	712.50000	 34.50	
 11.909	-147.299	 88.37312	  9.48735	 65.71604	 17.54852	 52.63406	 -2.06901	 93.11623	712.53998	 34.50	
 11.889	-155.445	 88.35909	  7.36561	 68.31022	 21.42645	 48.18300	 -2.00933	 93.17531	712.52002	 34.60	
 11.890	-163.610	 88.24660	  5.85030	 70.13405	 25.62615	 43.40325	 -2.51883	 93.12122	712.58002	 34.60	
 11.899	-171.783	 88.10149	  4.83373	 71.27151	 30.30592	 38.38724	 -2.30405	 93.09936	712.51001	 34.70	
 11.900	180.000	 88.02574	  4.32205	 71.69901	 35.49825	 33.00170	 -2.04987	 93.14999	712.54999	 34.70	
 13.600	180.000	 85.99596	 -1.05618	 75.16473	 33.62695	 31.54792	 -2.90930	 93.09977	712.56000	 34.70	
 13.608	-172.853	 86.14973	 -0.72279	 74.92062	 28.77360	 36.53606	 -3.20845	 93.14626	712.62000	 34.80	
 13.611	-165.583	 86.24869	  0.14795	 73.88074	 24.13252	 41.60995	 -3.11845	 93.11250	712.50000	 34.80	
 13.601	-158.353	 86.35856	  1.55666	 72.19118	 19.88025	 46.51717	 -2.93475	 93.10094	712.54999	 34.80	
 13.609	-151.210	 86.44268	  3.31772	 69.82637	 15.86960	 50.98074	 -2.77852	 93.09714	712.56000	 34.90	
 13.611	-143.999	 86.49429	  5.75349	 66.92689	 12.13053	 55.96173	 -2.61511	 93.09670	712.59003	 34.90	
 13.601	-136.825	 86.51289	  8.49172	 63.48028	  8.88229	 60.12751	 -2.59200	 93.09492	712.59998	 34.90	
 13.596	-129.640	 86.57433	 11.71915	 59.72321	  6.04802	 63.77389	 -2.62681	 93.11638	712.53998	 34.90	
 13.611	-122.431	 86.50328	 15.28768	 55.29430	  3.31682	 66.94308	 -2.67290	 93.07256	712.53998	 35.00	
 13.604	-115.211	 86.47035	 19.19674	 50.75053	  1.21563	 69.75159	 -2.61292	 93.08357	712.54999	 35.00	
 13.595	-108.042	 86.41739	 23.21721	 45.78242	 -0.02314	 71.78547	 -2.53063	 93.12814	712.65997	 35.00	
 13.607	-100.793	 86.27307	 27.69770	 40.69620	 -1.03620	 73.20149	 -2.47906	 93.10993	712.53003	 35.00	
 13.601	-93.617	 86.15881	 32.34129	 35.76562	 -1.46256	 73.85615	 -2.42320	 93.05593	712.53998	 35.10	
 13.601	-86.383	 86.08255	 37.35737	 30.71848	 -1.51187	 73.85680	 -2.46913	 93.02510	712.59998	 35.10	
 13.607	-79.207	 86.00168	 42.28596	 26.00714	 -1.24881	 73.18381	 -2.63034	 93.05143	712.59003	 35.20	
 13.595	-71.958	 85.87457	 47.15734	 21.91441	 -0.53268	 71.63143	 -2.44467	 92.99225	712.53003	 35.20	
 13.604	-64.789	 85.78842	 51.79134	 17.69570	  1.10553	 69.53460	 -2.64600	 93.01029	712.59003	 35.20	
 13.611	-57.569	 85.72556	 56.56035	 13.75993	  3.65628	 66.83054	 -2.47886	 93.03511	712.60999	 35.30	
 13.596	-50.360	 85.63187	 60.89310	 10.23764	  6.46085	 63.51439	 -2.58050	 93.00295	712.58002	 35.30	
 13.601	-43.175	 85.53731	 64.54539	  7.10550	  9.40374	 59.88906	 -2.64538	 93.03442	712.58002	 35.40	
 13.611	-36.001	 85.47128	 67.76659	  4.39422	 12.86236	 55.60516	 -2.73030	 93.03848	712.59998	 35.40	
 13.609	-28.790	 85.40796	 70.63062	  1.97890	 16.74370	 50.79671	 -2.71292	 93.06604	712.57001	 35.40	
 13.601	-21.647	 85.28839	 72.78082	  0.12729	 20.83286	 46.13841	 -2.64316	 93.04294	712.53003	 35.40	
 13.611	-14.417	 85.09130	 74.40479	 -1.24480	 25.09393	 41.13656	 -2.53145	 93.00838	712.45001	 35.50	
 13.608	 -7.147	 84.93002	 75.28972	 -1.86673	 29.73440	 35.86795	 -2.46681	 92.96782	712.53003	 35.50	
 13.600	  0.000	 84.83376	 75.52467	 -2.19808	 34.65420	 31.01131	 -2.51956	 93.02074	712.50000	 35.50	
 13.608	  7.147	 84.68813	 75.07160	 -2.29505	 39.32183	 26.27193	 -2.59578	 93.00400	712.53003	 35.50	
 13.611	 14.417	 84.56329	 73.86049	 -1.52486	 44.41940	 21.85714	 -2.68586	 93.00572	712.53003	 35.60	
 13.601	 21.647	 84.47182	 72.05486	 -0.39792	 49.51209	 17.61168	 -2.69878	 93.04152	712.62000	 35.60	
 13.609	 28.790	 84.28384	 69.54563	  1.32922	 54.04563	 13.43158	 -2.67143	 92.96512	712.48999	 35.60	
 13.611	 36.001	 84.18365	 66.55830	  4.22056	 58.64747	  9.54239	 -2.70563	 93.00664	712.56000	 35.60	
 13.601	 43.175	 84.12302	 63.21005	  6.98950	 62.54821	  6.05367	 -2.79242	 93.01079	712.51001	 35.60	
 13.596	 50.360	 84.12162	 59.35240	 10.13069	 66.05316	  3.08275	 -3.02632	 93.02930	712.53998	 35.70	
 13.611	 57.569	 84.03596	 54.78807	 13.65721	 69.19380	  0.56576	 -3.22419	 92.96815	712.56000	 35.70	
 13.604	 64.789	 84.02771	 50.02971	 17.58126	 71.88634	 -1.36904	 -3.25982	 93.01453	712.53003	 35.70	
 13.595	 71.958	 84.03083	 45.30965	 21.66573	 73.88139	 -2.67817	 -3.20453	 93.03938	712.47998	 35.70	
 13.607	 79.207	 84.04883	 40.32355	 25.89594	 75.20934	 -3.54127	 -3.27624	 93.02635	712.44000	 35.80	
 13.601	 86.383	 84.03932	 35.28413	 30.51106	 75.77905	 -4.29197	 -3.32668	 92.92528	712.47998	 35.80	
 13.601	 93.617	 84.16822	 30.44071	 35.35275	 75.74421	 -4.31776	 -3.38471	 92.94399	712.47998	 35.80	
 13.607	100.793	 84.28381	 25.77982	 40.34764	 75.01855	 -4.00726	 -3.55626	 92.94026	712.38000	 35.90	
 13.595	108.042	 84.41355	 21.71508	 45.37759	 73.59341	 -2.90695	 -3.19707	 92.93351	712.46997	 35.90	
 13.604	115.211	 84.54896	 17.63840	 50.25235	 71.52363	 -1.51195	 -3.54015	 92.93861	712.50000	 35.90	
 13.611	122.431	 84.65437	 13.71622	 54.80462	 68.70835	  0.53883	 -3.48998	 92.88333	712.45001	 35.90	
 13.596	129.640	 84.80721	 10.15929	 59.16365	 65.44357	  3.17942	 -3.49581	 92.90030	712.50000	 35.90	
 13.601	136.825	 84.91100	  6.99371	 63.00941	 61.89955	  6.25196	 -3.48826	 92.87749	712.48999	 36.00	
 13.611	143.999	 85.07557	  4.35824	 66.45981	 57.79712	  9.86482	 -3.52357	 92.87832	712.60999	 36.00	
 13.609	151.210	 85.20869	  2.27796	 69.44981	 53.08504	 13.76565	 -3.52862	 92.86607	712.44000	 36.00	
 13.601	158.353	 85.39948	  0.65598	 71.83080	 48.49039	 17.80551	 -3.39263	 92.93289	712.44000	 36.10	
 13.611	165.583	 85.52338	 -0.36192	 73.58644	 43.40337	 22.17420	 -3.28076	 92.89085	712.50000	 36.10	
 13.608	172.853	 85.68359	 -0.98150	 74.64113	 38.34718	 26.83455	 -3.27479	 92.88476	712.52002	 36.20	
 15.298	173.587	 83.36550	 -6.35694	 77.76631	 36.44054	 25.22057	 -3.73605	 92.85221	712.47998	 36.20	
 15.291	167.167	 83.28948	 -5.90141	 76.83720	 41.34758	 20.64507	 -3.84815	 92.88581	712.64001	 36.20	
 15.307	160.676	 83.05650	 -4.96419	 75.27515	 46.28241	 16.09934	 -4.02329	 92.84422	712.53998	 36.20	
 15.300	154.261	 82.93439	 -3.65108	 73.18050	 51.40867	 11.89881	 -4.14591	 92.85456	712.53998	 36.30	
 15.288	147.854	 82.80573	 -1.87155	 70.46641	 55.92357	  7.77497	 -4.28194	 92.85409	712.58002	 36.30	
 15.293	141.428	 82.65134	  0.28070	 67.22771	 60.43704	  3.91095	 -4.30293	 92.85562	712.45001	 36.30	
 15.299	134.985	 82.52664	  2.90426	 63.64790	 64.30223	  0.76172	 -4.27750	 92.86984	712.58002	 36.30	
 15.305	128.583	 82.35066	  5.99712	 59.65675	 67.92044	 -2.17803	 -4.28012	 92.83739	712.51001	 36.40	
 15.309	122.142	 82.15893	  9.59884	 55.24707	 71.19048	 -4.72229	 -4.30096	 92.85520	712.53998	 36.40	
 15.304	115.711	 82.02647	 13.56532	 50.63286	 73.95353	 -6.12420	 -4.35884	 92.86449	712.50000	 36.40	
 15.297	109.291	 81.85255	 17.73740	 45.70016	 76.05661	 -7.47531	 -4.50315	 92.83906	712.52002	 36.50	
 15.293	102.897	 81.77437	 22.04957	 40.83125	 77.56384	 -8.51491	 -4.50839	 92.87024	712.52002	 36.50	
 15.293	 96.458	 81.66557	 26.36111	 35.70689	 78.49267	 -9.07415	 -4.38521	 92.86288	712.46002	 36.50	
 15.300	 90.000	 81.57479	 30.82187	 30.91307	 78.86238	 -9.22208	 -4.27553	 92.85897	712.45001	 36.50	
 15.293	 83.542	 81.45400	 35.51814	 26.48023	 78.60344	 -9.24400	 -4.26031	 92.87710	712.34003	 36.50	
 15.293	 77.103	 81.35172	 40.62253	 22.10093	 77.68096	 -8.72107	 -4.25370	 92.83813	712.48999	 36.60	
 15.297	 70.709	 81.36763	 45.51020	 17.72674	 76.29051	 -7.88435	 -4.21636	 92.88707	712.48999	 36.60	
 15.304	 64.289	 81.41249	 50.33662	 13.54299	 74.25765	 -6.40100	 -4.23005	 92.89082	712.53003	 36.60	
 15.309	 57.858	 81.40807	 55.08273	  9.57530	 71.53191	 -4.38139	 -4.23136	 92.83595	712.52002	 36.60	
 15.305	 51.417	 81.42434	 59.66813	  5.90947	 68.34328	 -1.95421	 -4.05142	 92.82404	712.57001	 36.60	
 15.299	 45.015	 81.49833	 63.69282	  2.67603	 64.75706	  0.71153	 -3.83764	 92.85001	712.54999	 36.70	
 15.293	 38.572	 81.52474	 67.14874	 -0.25589	 61.06870	  3.63187	 -3.69007	 92.83749	712.45001	 36.70	
 15.288	 32.146	 81.60114	 70.42023	 -2.82923	 56.74096	  7.29255	 -3.61479	 92.84270	712.56000	 36.70	
 15.300	 25.739	 81.68877	 73.27647	 -4.82548	 52.05005	 11.32228	 -3.54464	 92.86691	712.53003	 36.70	
 15.307	 19.324	 81.82787	 75.49104	 -6.25682	 47.30617	 15.55958	 -3.53545	 92.86795	712.44000	 36.70	
 15.291	 12.833	 81.94308	 77.02383	 -7.15190	 42.14572	 20.13903	 -3.46857	 92.81316	712.53998	 36.80	
 15.298	  6.413	 82.03350	 78.06979	 -7.61213	 37.27562	 24.71987	 -3.35007	 92.83819	712.46997	 36.80	
 15.300	  0.000	 82.15623	 78.43435	 -7.80168	 32.31663	 29.11559	 -3.24382	 92.78860	712.44000	 36.80	
 15.298	 -6.413	 82.29298	 78.26746	 -7.63415	 27.67491	 33.84203	 -3.17125	 92.78465	712.46002	 36.90	
 15.291	-12.833	 82.38107	 77.53875	 -7.34518	 23.23692	 38.90253	 -3.14024	 92.77951	712.40002	 36.90	
 15.307	-19.324	 82.47565	 76.16397	 -6.18038	 18.90400	 43.89644	 -3.19823	 92.72739	712.47998	 36.90	
 15.300	-25.739	 82.65827	 74.22187	 -4.54910	 14.82478	 48.84031	 -3.20036	 92.79109	712.46997	 36.90	
 15.288	-32.146	 82.76636	 71.65932	 -2.65731	 10.91571	 53.46633	 -3.15768	 92.76302	712.53003	 36.90	
 15.293	-38.572	 82.88544	 68.53810	 -0.12729	  7.21914	 58.17818	 -3.07696	 92.76942	712.52002	 36.90	
 15.299	-45.015	 82.96620	 65.03802	  2.69746	  3.79453	 62.28218	 -2.92783	 92.74651	712.50000	 36.90	
 15.305	-51.417	 83.00479	 61.28042	  5.95607	  0.79123	 65.87938	 -2.85232	 92.74364	712.40997	 37.00	
 15.309	-57.858	 83.06754	 56.92978	  9.62086	 -1.76273	 69.20129	 -2.83160	 92.74380	712.51001	 37.00	
 15.304	-64.289	 83.15949	 52.11827	 13.60127	 -3.66599	 71.99449	 -2.78570	 92.73968	712.45001	 37.00	
 15.297	-70.709	 83.20974	 47.45166	 17.83131	 -5.12695	 74.13017	 -2.79775	 92.69394	712.48999	 37.00	
 15.293	-77.103	 83.30534	 42.65197	 22.25414	 -6.22655	 75.68037	 -2.76955	 92.68135	712.51001	 37.10	
 15.293	-83.542	 83.45704	 37.68442	 26.45452	 -6.66615	 76.60726	 -2.64920	 92.70467	712.46002	 37.10	
 15.300	-90.000	 83.53788	 32.75154	 31.09801	 -6.75596	 76.91897	 -2.59224	 92.71861	712.40997	 37.10	
 15.293	-96.458	 83.60175	 28.15493	 36.12540	 -6.86308	 76.65733	 -2.59450	 92.73919	712.50000	 37.10	
 15.293	-102.897	 83.67893	 23.57956	 41.09669	 -6.48888	 75.73811	 -2.63691	 92.73351	712.46997	 37.10	
 15.297	-109.291	 83.76529	 19.46874	 46.00072	 -5.60740	 74.26147	 -2.67826	 92.73042	712.50000	 37.10	
 15.304	-115.711	 83.81664	 15.41089	 50.93299	 -4.23615	 72.14491	 -2.69838	 92.67264	712.51001	 37.20	
 15.309	-122.142	 83.90625	 11.46804	 55.52185	 -2.13630	 69.44948	 -2.72216	 92.74065	712.59998	 37.20	
 15.305	-128.583	 83.95642	  7.86271	 59.96165	  0.34257	 66.17265	 -2.72263	 92.72491	712.47998	 37.20	
 15.299	-134.985	 83.95490	  4.61569	 63.85415	  3.16341	 62.54951	 -2.72414	 92.67468	712.52002	 37.20	
 15.293	-141.428	 83.98089	  1.79443	 67.47653	  6.39832	 58.54921	 -2.79672	 92.71966	712.54999	 37.20	
 15.288	-147.854	 83.90060	 -0.72767	 70.65552	 10.02837	 53.77084	 -2.87796	 92.71072	712.51001	 37.20	
 15.300	-154.261	 83.80653	 -2.73050	 73.31573	 13.97854	 49.23192	 -3.05888	 92.69623	712.59998	 37.30	
 15.307	-160.676	 83.71783	 -4.40022	 75.33960	 18.11082	 44.43343	 -3.28306	 92.68533	712.65997	 37.30	
 15.291	-167.167	 83.64111	 -5.52023	 76.79189	 22.54231	 39.44705	 -3.42487	 92.68263	712.53998	 37.30	
 15.298	-173.587	 83.50742	 -6.11144	 77.67097	 27.03287	 34.34759	 -3.48545	 92.70979	712.56000	 37.30	
 15.300	180.000	 83.33574	 -6.54297	 77.95295	 31.34479	 29.66910	 -3.56911	 92.69343	712.47998	 37.40	
 17.000	180.000	 80.80379	-11.82989	 80.80820	 29.36773	 27.79645	 -3.77254	 92.69421	712.56000	 37.40	
 16.990	-174.179	 80.96594	-11.55475	 80.55120	 25.05060	 32.26593	 -3.59569	 92.69173	712.65997	 37.40	
 17.009	-168.383	 81.06513	-11.65782	 79.76940	 20.53976	 37.12863	 -3.52246	 92.66423	712.65002	 37.40	
 17.000	-162.596	 81.23388	-10.85033	 78.49449	 16.17737	 42.18841	 -3.28504	 92.69962	712.50000	 37.50	
 16.990	-156.759	 81.26637	 -8.84113	 76.62501	 11.82836	 47.14971	 -3.10633	 92.67575	712.51001	 37.50	
 16.995	-150.919	 81.29085	 -7.03451	 74.22476	  7.72011	 51.88840	 -2.96960	 92.62836	712.53003	 37.50	
 16.988	-145.161	 81.35045	 -4.84944	 71.33900	  4.02596	 56.50500	 -2.81296	 92.61334	712.57001	 37.50	
 17.014	-139.343	 81.38499	 -2.40029	 68.03496	  0.71117	 60.91877	 -2.74940	 92.64527	712.59003	 37.60	
 17.007	-133.546	 81.36562	  0.44924	 64.21317	 -2.23884	 64.87911	 -2.64599	 92.61522	712.54999	 37.60	
 17.001	-127.699	 81.34481	  3.69731	 60.16041	 -4.94920	 68.48951	 -2.63434	 92.63334	712.56000	 37.60	
 17.006	-121.937	 81.24507	  7.38029	 55.71320	 -7.28135	 71.66959	 -2.60312	 92.60976	712.66998	 37.60	
 17.002	-116.134	 81.20343	 11.36800	 51.20394	 -9.14585	 74.38921	 -2.59891	 92.60081	712.59998	 37.60	
 17.001	-110.310	 81.18159	 15.52981	 46.20232	-10.55598	 76.58396	 -2.64217	 92.64834	712.46002	 37.60	
 16.988	-104.517	 81.03348	 19.78094	 41.26709	-11.54951	 78.14577	 -2.64711	 92.59003	712.51001	 37.70	
 17.008	-98.662	 80.88658	 24.10858	 36.25697	-12.25981	 79.26289	 -2.58217	 92.60003	712.53998	 37.70	
 16.996	-92.909	 80.85062	 28.47107	 31.17653	-12.45464	 79.78261	 -2.53850	 92.62125	712.63000	 37.70	
 16.996	-87.091	 80.80620	 32.85712	 26.99710	-12.55345	 79.75977	 -2.54690	 92.59173	712.60999	 37.70	
 17.012	-81.253	 80.62479	 37.81068	 22.54279	-12.65213	 79.22369	 -2.61660	 92.57503	712.63000	 37.80	
 16.988	-75.483	 80.54581	 42.79790	 18.05138	-12.22941	 78.04919	 -2.70631	 92.56774	712.65997	 37.80	
 17.001	-69.690	 80.43320	 47.63040	 13.63514	-11.09761	 76.42775	 -2.73652	 92.57484	712.63000	 37.80	
 17.002	-63.866	 80.33842	 52.29403	  9.31402	 -8.99692	 74.17235	 -2.78138	 92.54066	712.54999	 37.80	
 17.006	-58.063	 80.22679	 57.02227	  5.19424	 -7.00527	 71.41046	 -2.84263	 92.55280	712.62000	 37.80	
 17.001	-52.301	 79.96806	 61.35385	  1.79650	 -4.69367	 68.22209	 -2.91895	 92.55106	712.59003	 37.80	
 17.007	-46.454	 79.97128	 65.31600	 -1.32286	 -1.94150	 64.58372	 -3.06742	 92.55764	712.58002	 37.90	
 17.014	-40.657	 79.88879	 68.97202	 -4.32879	  1.12869	 60.54482	 -3.21854	 92.52892	712.63000	 37.90	
 16.988	-34.839	 79.78208	 72.25117	 -6.83373	  4.78008	 55.80652	 -3.33229	 92.49426	712.62000	 37.90	
 16.995	-29.081	 79.59723	 75.00552	 -8.77836	  8.54755	 51.30239	 -3.42454	 92.46214	712.51001	 37.90	
 16.990	-23.241	 79.54265	 77.22644	 -9.93085	 12.70169	 46.41255	 -3.48378	 92.44719	712.51001	 37.90	
 17.000	-17.404	 79.41660	 78.96507	-11.17469	 16.97545	 41.31488	 -3.53583	 92.45309	712.56000	 37.90	
 17.009	-11.617	 79.32582	 80.17189	-12.08544	 21.23857	 36.19899	 -3.58093	 92.44359	712.48999	 38.00	
 16.990	 -5.821	 79.26454	 80.82834	-12.46753	 25.72368	 31.60934	 -3.69073	 92.45098	712.51001	 38.00	
 17.000	  0.000	 79.09144	 80.98766	-12.90855	 29.77101	 27.20029	 -3.95358	 92.44752	712.62000	 38.00	
 16.990	  5.821	 78.99500	 80.60419	-12.87091	 34.76146	 22.52725	 -4.07939	 92.48193	712.50000	 38.00	
 17.009	 11.617	 78.82261	 79.66082	-12.38725	 39.77719	 17.72867	 -4.19949	 92.45411	712.58002	 38.00	
 17.000	 17.404	 78.79903	 78.16068	-11.98650	 44.64771	 13.41459	 -4.29615	 92.42929	712.46997	 38.00	
 16.990	 23.241	 78.66395	 76.22606	-10.62898	 49.63869	  8.99464	 -4.39299	 92.44791	712.59003	 38.00	
 16.995	 29.081	 78.62551	 73.72833	 -8.98221	 54.32574	  5.01725	 -4.51788	 92.48140	712.46997	 38.10	
 16.988	 34.839	 78.51515	 70.68451	 -6.93608	 58.82903	  1.53281	 -4.64903	 92.46741	712.53003	 38.10	
 17.014	 40.657	 78.37273	 67.25917	 -4.59320	 62.94981	 -1.76050	 -4.77257	 92.44152	712.52002	 38.10	
 17.007	 46.454	 78.34330	 63.60480	 -1.60692	 66.73220	 -4.59244	 -4.96549	 92.47425	712.46997	 38.10	
 17.001	 52.301	 78.26089	 59.37729	  1.71981	 70.28128	 -7.13429	 -5.13920	 92.38641	712.51001	 38.10	
 17.006	 58.063	 78.22787	 54.80064	  5.12567	 73.41900	 -9.35719	 -5.29760	 92.41612	712.53003	 38.20	
 17.002	 63.866	 78.26765	 50.08305	  9.09906	 75.99146	-11.09760	 -5.29745	 92.41942	712.44000	 38.20	
 17.001	 69.690	 78.33707	 45.30821	 13.32443	 78.13852	-12.52627	 -5.26143	 92.46552	712.40002	 38.20	
 16.988	 75.483	 78.31746	 40.40511	 17.66242	 79.70863	-13.66087	 -5.30185	 92.45630	712.50000	 38.20	
 17.012	 81.253	 78.28035	 35.31543	 22.15181	 80.80094	-14.47343	 -5.33343	 92.46339	712.65997	 38.30	
 16.996	 87.091	 78.32660	 30.46594	 26.73000	 81.26997	-14.75295	 -5.30642	 92.41634	712.56000	 38.30	
 16.996	 92.909	 78.44598	 26.37020	 30.74399	 81.22480	-14.72543	 -5.42103	 92.40658	712.56000	 38.30	
 17.008	 98.662	 78.55680	 22.09793	 35.58060	 80.67333	-14.58459	 -5.52367	 92.42972	712.47998	 38.30	
 16.988	104.517	 78.69189	 17.60046	 40.68143	 79.57466	-13.80608	 -5.49789	 92.44357	712.50000	 38.30	
 17.001	110.310	 78.84232	 13.30094	 45.56542	 77.90340	-13.68206	 -5.34926	 92.43511	712.59998	 38.40	
 17.002	116.134	 78.83533	  9.02906	 50.46015	 75.75255	-12.18383	 -5.19095	 92.41263	712.66998	 38.40	
 17.006	121.937	 79.07767	  5.11525	 55.10720	 73.14331	-10.27819	 -5.08855	 92.45412	712.52002	 38.40	
 17.001	127.699	 79.23004	  1.80307	 59.50353	 69.89542	 -7.85948	 -5.09824	 92.42577	712.59998	 38.40	
 17.007	133.546	 79.35512	 -1.15182	 63.63677	 66.25462	 -5.18409	 -5.08236	 92.43928	712.54999	 38.40	
 17.014	139.343	 79.50788	 -3.74960	 67.38432	 62.43891	 -2.06263	 -5.09462	 92.38680	712.56000	 38.50	
 16.988	145.161	 79.65845	 -5.95644	 70.70471	 58.17806	  1.42010	 -5.00345	 92.35698	712.46997	 38.50	
 16.995	150.919	 79.80785	 -7.79677	 73.66329	 53.56963	  5.25831	 -4.91728	 92.40993	712.54999	 38.50	
 16.990	156.759	 79.93495	 -9.45955	 76.11782	 48.69741	  9.70229	 -4.67199	 92.39198	712.53998	 38.50	
 17.000	162.596	 80.12344	-10.65596	 78.06016	 43.69282	 14.09125	 -4.44095	 92.41389	712.48999	 38.50	
 17.009	168.383	 80.30637	-11.45020	 79.43449	 38.99903	 18.50555	 -4.24973	 92.41455	712.62000	 38.50	
 16.990	174.179	 80.39086	-11.87654	 80.18946	 33.82772	 23.13411	 -3.99909	 92.34801	712.65997	 38.50	
 18.709	174.675	 77.64007	-17.25726	 82.89998	 31.32593	 20.98631	 -4.04353	 92.43411	712.51001	 38.50	
 18.703	169.441	 77.44331	-16.88053	 82.07998	 36.29849	 16.33552	 -4.31842	 92.35320	712.60999	 38.50	
 18.691	164.085	 77.24393	-16.06593	 80.85594	 41.26109	 11.84992	 -4.53576	 92.39584	712.53998	 38.50	
 18.706	158.818	 77.04549	-14.90800	 79.08559	 45.99647	  7.24457	 -4.84524	 92.37307	712.56000	 38.50	
 18.695	153.537	 76.94847	-13.40340	 76.86920	 51.17787	  3.11725	 -5.12136	 92.38455	712.58002	 38.60	
 18.704	148.255	 76.83118	-11.72171	 74.18630	 55.68893	 -0.73119	 -5.31266	 92.37796	712.58002	 38.60	
 18.698	142.952	 76.72717	 -9.74482	 71.06885	 60.24926	 -4.17242	 -5.45663	 92.40588	712.53998	 38.60	
 18.699	137.625	 76.48270	 -7.45831	 67.45387	 64.33859	 -7.47708	 -5.50729	 92.29042	712.62000	 38.70	
 18.705	132.343	 76.30795	 -4.83246	 63.60200	 68.19752	 -9.57846	 -5.52926	 92.31924	712.51001	 38.70	
 18.713	127.067	 76.16015	 -1.89205	 59.40590	 71.74717	-12.00793	 -5.64234	 92.28255	712.56000	 38.80	
 18.700	121.794	 76.02183	  1.34702	 54.98131	 74.90545	-13.97124	 -5.70885	 92.31992	712.51001	 38.80	
 18.698	116.504	 75.83785	  4.82313	 50.35025	 77.51854	-15.70403	 -5.75713	 92.30669	712.53998	 38.80	
 18.707	111.165	 75.63068	  8.73860	 45.29360	 79.77397	-17.34238	 -5.92514	 92.31403	712.59003	 38.80	
 18.690	105.863	 75.47054	 13.02631	 40.40965	 81.45208	-18.56844	 -6.08427	 92.26004	712.71997	 38.80	
 18.696	100.583	 75.29207	 17.56896	 35.44194	 82.71404	-19.52518	 -6.20762	 92.25488	712.50000	 38.80	
 18.700	 95.309	 75.12401	 22.20262	 30.56561	 83.57949	-20.04939	 -6.26900	 92.24919	712.50000	 38.80	
 18.700	 90.000	 75.03357	 26.08115	 26.68696	 83.84873	-20.10376	 -6.15669	 92.25927	712.62000	 38.80	
 18.700	 84.691	 74.97901	 30.33148	 22.25070	 83.65895	-20.06625	 -6.10423	 92.31574	712.50000	 38.80	
 18.696	 79.417	 74.94598	 35.16995	 17.64974	 82.82453	-19.47240	 -6.06763	 92.30222	712.59998	 38.90	
 18.690	 74.137	 74.90682	 40.17846	 13.16423	 81.54663	-18.55250	 -6.06130	 92.25517	712.44000	 38.90	
 18.707	 68.835	 74.98386	 45.12981	  8.79637	 79.88093	-17.34622	 -6.02240	 92.28188	712.51001	 38.90	
 18.698	 63.496	 75.04877	 50.06087	  4.78136	 77.67218	-15.88950	 -6.01664	 92.28120	712.65002	 38.90	
 18.700	 58.206	 75.01878	 54.73810	  1.07517	 75.01676	-13.97695	 -5.98938	 92.22803	712.57001	 39.00	
 18.713	 52.933	 75.02492	 59.27396	 -2.50544	 72.04901	-11.99545	 -5.88087	 92.29781	712.57001	 39.00	
 18.705	 47.657	 75.00802	 63.48476	 -5.67327	 68.53161	 -9.62892	 -5.67522	 92.25212	712.64001	 39.00	
 18.699	 42.375	 75.05040	 67.29915	 -7.87031	 64.66078	 -6.87007	 -5.47988	 92.23566	712.57001	 39.00	
 18.698	 37.048	 75.11852	 70.88879	-10.09347	 60.60800	 -3.80246	 -5.33963	 92.22787	712.51001	 39.00	
 18.704	 31.745	 75.19884	 74.09625	-12.23726	 56.28505	 -0.59073	 -5.13118	 92.27433	712.60999	 39.00	
 18.695	 26.463	 75.28384	 76.77761	-13.94819	 51.75191	  2.88050	 -4.95134	 92.25403	712.60999	 39.10	
 18.706	 21.182	 75.39438	 79.08011	-15.43770	 46.88958	  6.66054	 -4.83257	 92.28380	712.19000	 39.10	
 18.691	 15.915	 75.48209	 80.86150	-16.65990	 42.05314	 10.75438	 -4.67923	 92.25365	712.60999	 39.10	
 18.703	 10.559	 75.56130	 82.27263	-17.65596	 37.04250	 15.54124	 -4.49532	 92.26686	712.59003	 39.10	
 18.709	  5.325	 75.65006	 83.10430	-18.22661	 31.94301	 20.23491	 -4.36928	 92.28190	712.62000	 39.10	
 18.700	  0.000	 75.81927	 83.48246	-18.32622	 27.41089	 24.96346	 -4.16509	 92.29250	712.70001	 39.10	
 18.709	 -5.325	 75.87167	 83.35703	-18.13454	 23.40426	 29.09160	 -3.90906	 92.26456	712.60999	 39.10	
 18.703	-10.559	 75.96186	 82.74687	-17.68171	 18.96593	 33.82085	 -3.73415	 92.22435	712.63000	 39.10	
 18.691	-15.915	 76.13719	 81.63593	-16.77962	 14.55458	 38.66389	 -3.55265	 92.21783	712.54999	 39.10	
 18.706	-21.182	 76.27312	 80.08722	-15.68446	 10.23606	 43.84827	 -3.50458	 92.25569	712.40002	 39.10	
 18.695	-26.463	 76.39886	 78.01360	-14.26430	  6.02666	 48.77415	 -3.36636	 92.24219	712.59998	 39.10	
 18.704	-31.745	 76.53928	 75.53642	-12.48327	  2.19132	 53.41034	 -3.19406	 92.23321	712.59998	 39.10	
 18.698	-37.048	 76.59071	 72.50175	-10.43414	 -1.29178	 57.98277	 -3.10169	 92.18044	712.64001	 39.10	
 18.699	-42.375	 76.76740	 68.99992	 -8.69100	 -4.52269	 62.46461	 -3.05991	 92.20947	712.64001	 39.20	
 18.705	-47.657	 76.96902	 65.26338	 -5.73229	 -7.32701	 66.36046	 -2.91892	 92.22781	711.90002	 39.20	
 18.713	-52.933	 76.81963	 61.27987	 -2.41611	 -9.76842	 69.78735	 -2.82592	 92.14175	711.90997	 39.20	
 18.700	-58.206	 76.95765	 56.91585	  1.00515	-11.90275	 73.01406	 -2.65791	 92.16898	711.89001	 39.20	
 18.698	-63.496	 77.14890	 52.23420	  4.74688	-13.98862	 75.83942	 -2.57243	 92.18021	711.89001	 39.20	
 18.707	-68.835	 77.29399	 47.42459	  8.87164	-15.65433	 78.15450	 -2.53629	 92.17547	712.52002	 39.20	
 18.690	-74.137	 77.42014	 42.60661	 13.37039	-16.65865	 79.90551	 -2.45014	 92.19753	711.92999	 39.20	
 18.696	-79.417	 77.42481	 37.52713	 17.83808	-17.47457	 81.13190	 -2.43375	 92.15285	711.95001	 39.20	
 18.700	-84.691	 77.60048	 32.59400	 22.50748	-17.77873	 81.95222	 -2.38378	 92.16462	711.78003	 39.30	
 18.700	-90.000	 77.71339	 28.43995	 26.63536	-17.81587	 82.20843	 -2.38192	 92.16995	711.87000	 39.30	
 18.700	-95.309	 77.71185	 24.22064	 30.70857	-17.90523	 82.01504	 -2.38620	 92.18255	711.77002	 39.30	
 18.696	-100.583	 77.69070	 19.75501	 35.91971	-17.60473	 81.26807	 -2.37571	 92.13292	711.83002	 39.30	
 18.690	-105.863	 77.81126	 15.46157	 40.93858	-17.41906	 80.03662	 -2.41067	 92.15733	711.81000	 39.30	
 18.707	-111.165	 77.91670	 11.15559	 45.80891	-16.49802	 78.31554	 -2.40258	 92.17312	711.83002	 39.30	
 18.698	-116.504	 77.97136	  6.96269	 50.80796	-15.06665	 76.05882	 -2.38311	 92.14797	711.70001	 39.30	
 18.700	-121.794	 78.09934	  3.11570	 55.35645	-13.23645	 73.34309	 -2.36633	 92.12097	711.76001	 39.40	
 18.713	-127.067	 78.21811	 -0.36657	 59.83888	-11.01699	 70.16597	 -2.50052	 92.11429	711.76001	 39.40	
 18.705	-132.343	 78.14910	 -3.52406	 63.91178	 -7.97962	 66.66426	 -2.48650	 92.13174	711.82001	 39.40	
 18.699	-137.625	 78.14762	 -6.30843	 67.78830	 -5.01690	 62.78903	 -2.56073	 92.15238	711.71002	 39.40	
 18.698	-142.952	 78.09983	 -8.81658	 71.29549	 -1.88719	 58.46430	 -2.64383	 92.09254	711.81000	 39.40	
 18.704	-148.255	 78.04653	-11.00349	 74.41181	  1.54796	 53.82660	 -2.74464	 92.09511	711.84998	 39.40	
 18.695	-153.537	 78.02649	-12.85565	 77.01458	  5.24024	 49.24216	 -2.88954	 92.13194	711.84003	 39.40	
 18.706	-158.818	 77.89279	-14.52961	 79.18968	  9.34890	 44.37453	 -2.95560	 92.14018	711.84998	 39.40	
 18.691	-164.085	 77.93716	-15.66739	 80.81627	 13.65540	 39.34232	 -3.16226	 92.12300	712.07001	 39.40	
 18.703	-169.441	 77.80672	-16.56637	 82.00310	 18.20588	 34.23965	 -3.32725	 92.11685	711.94000	 39.40	
 18.709	-174.675	 77.64374	-17.03465	 82.64820	 22.41742	 29.73343	 -3.51305	 92.07259	712.00000	 39.40	
 18.700	180.000	 77.50920	-17.36619	 82.86456	 26.78230	 25.42193	 -3.73375	 92.10249	711.87000	 39.40	
 20.400	180.000	 74.31969	-22.58239	 85.16589	 24.18410	 23.25340	 -3.54576	 92.11388	711.87000	 39.50	
 20.401	-175.153	 74.40166	-22.44275	 84.94764	 20.09865	 27.32144	 -3.35431	 92.07056	711.85999	 39.50	
 20.407	-170.264	 74.49025	-22.00491	 84.33585	 15.80707	 31.57471	 -3.11163	 92.04727	711.83002	 39.50	
 20.410	-165.423	 74.66636	-21.24315	 83.37640	 11.24110	 36.46895	 -2.96444	 92.13051	711.90002	 39.50	
 20.392	-160.496	 74.78714	-20.08813	 81.77368	  6.79732	 41.60389	 -2.79661	 92.09590	711.84998	 39.60	
 20.401	-155.705	 74.87356	-18.63738	 79.83670	  2.84828	 46.56546	 -2.67760	 92.09843	711.81000	 39.60	
 20.405	-150.835	 74.96750	-16.83380	 77.44930	 -0.74089	 51.28321	 -2.56662	 92.07983	711.87000	 39.60	
 20.397	-145.903	 75.04040	-14.82856	 74.57092	 -4.22186	 55.75181	 -2.52084	 92.07956	711.94000	 39.60	
 20.392	-141.062	 75.10628	-12.56123	 71.30361	 -7.51465	 60.47686	 -2.44204	 92.10104	711.90997	 39.60	
 20.396	-136.227	 75.11050	-10.04472	 67.72764	-10.64549	 64.55486	 -2.38610	 92.06886	711.88000	 39.60	
 20.408	-131.372	 75.11654	 -7.30694	 63.91767	-13.51341	 68.34883	 -2.36034	 92.08424	711.84003	 39.60	
 20.410	-126.511	 75.00620	 -4.25347	 59.63643	-16.02316	 71.91703	 -2.28923	 92.05797	711.87000	 39.60	
 20.400	-121.604	 74.96085	 -0.90738	 55.06073	-17.46266	 75.10215	 -2.25228	 92.09624	711.90002	 39.60	
 20.403	-116.741	 74.81724	  2.57435	 50.43454	-19.13861	 77.74792	 -2.25583	 92.09970	711.88000	 39.70	
 20.413	-111.900	 74.60887	  6.42486	 45.51706	-20.52271	 79.97268	 -2.28365	 92.03209	711.91998	 39.70	
 20.398	-107.004	 74.50974	 10.70112	 40.65895	-21.65913	 81.73281	 -2.25056	 91.99416	711.91998	 39.70	
 20.394	-102.132	 74.42391	 15.17892	 35.57786	-22.51537	 83.09312	 -2.31567	 91.99891	711.92999	 39.70	
 20.403	-97.332	 74.33583	 19.61649	 30.79602	-23.09384	 84.05649	 -2.40063	 92.03153	711.85999	 39.70	
 20.392	-92.440	 74.29492	 24.15454	 26.28844	-23.21072	 84.41160	 -2.37012	 92.01653	712.01001	 39.80	
 20.392	-87.560	 74.22488	 27.92346	 22.26768	-23.18050	 84.35733	 -2.24730	 91.98661	711.98999	 39.80	
 20.403	-82.668	 74.11855	 32.27383	 17.73227	-23.13746	 83.94867	 -2.23340	 92.00475	711.98999	 39.80	
 20.394	-77.868	 74.01384	 37.01888	 13.14697	-22.60016	 83.02843	 -2.30307	 92.00769	712.00000	 39.80	
 20.398	-72.996	 73.90441	 42.16579	  8.65144	-21.93704	 81.70783	 -2.33190	 92.02262	712.02002	 39.80	
 20.413	-68.100	 73.76302	 47.02345	  4.49478	-21.05234	 79.84808	 -2.39568	 92.01008	711.96002	 39.80	
 20.403	-63.259	 73.67774	 51.73883	  0.56587	-19.40620	 77.50972	 -2.47791	 92.00574	711.97998	 39.80	
 20.400	-58.396	 73.53752	 56.32918	 -2.95091	-17.14948	 74.73065	 -2.57537	 91.96263	712.03003	 39.80	
 20.410	-53.489	 73.46273	 60.85248	 -6.20804	-14.87547	 71.49661	 -2.66688	 91.99034	712.12000	 39.80	
 20.408	-48.628	 73.37473	 64.96162	 -9.20012	-12.58403	 67.91328	 -2.77751	 91.94852	712.03003	 39.80	
 20.396	-43.773	 73.34592	 68.77464	-11.90909	 -9.97993	 64.13933	 -2.90375	 91.99594	711.98999	 39.90	
 20.392	-38.938	 73.23703	 72.29722	-14.24431	 -7.08592	 59.98619	 -2.97224	 91.98775	712.00000	 39.90	
 20.397	-34.097	 73.10201	 75.44241	-16.29448	 -3.87139	 55.38649	 -3.06589	 91.96259	712.09998	 39.90	
 20.405	-29.165	 72.98084	 78.21525	-18.16410	 -0.28296	 50.78991	 -3.22373	 91.97969	712.03998	 39.90	
 20.401	-24.295	 72.82561	 80.57128	-19.79806	  3.46431	 45.96840	 -3.27250	 91.99723	711.97998	 39.90	
 20.392	-19.504	 72.79974	 82.45350	-20.94494	  7.67523	 40.90210	 -3.44729	 92.04290	712.03998	 40.00	
 20.410	-14.577	 72.55846	 83.87769	-22.03644	 12.13212	 35.81588	 -3.59008	 91.98059	712.01001	 40.00	
 20.407	 -9.736	 72.42916	 84.83285	-22.76507	 16.56130	 31.03367	 -3.79472	 91.99211	711.96997	 40.00	
 20.401	 -4.847	 72.27162	 85.35528	-23.24172	 20.97655	 26.26602	 -4.07853	 91.99492	712.00000	 40.00	
 20.400	  0.000	 72.18913	 85.45918	-23.37192	 24.81735	 22.34618	 -4.34241	 91.97929	711.96997	 40.00	
 20.401	  4.847	 72.07944	 85.12091	-23.23638	 29.38357	 17.75016	 -4.54420	 92.02713	712.03998	 40.00	
 20.407	  9.736	 71.98779	 84.40738	-22.69431	 34.20192	 12.74979	 -4.78479	 92.08230	711.98999	 40.00	
 20.410	 14.577	 71.82944	 83.14862	-21.96439	 39.20500	  8.37605	 -4.90863	 92.02248	712.01001	 40.00	
 20.392	 19.504	 71.74648	 81.45538	-20.79991	 44.13768	  4.38270	 -5.13695	 92.02528	711.96997	 40.00	
 20.401	 24.295	 71.59563	 79.33983	-19.50069	 48.86491	  0.60890	 -5.37028	 92.01945	712.08002	 40.00	
 20.405	 29.165	 71.58608	 76.85081	-17.86189	 53.51838	 -2.84887	 -5.56824	 92.03164	712.03998	 40.00	
 20.397	 34.097	 71.59632	 73.86672	-15.89920	 58.08756	 -6.06982	 -5.86112	 92.08286	711.97998	 40.10	
 20.392	 38.938	 71.45705	 70.52605	-13.92087	 62.31956	 -9.19155	 -6.07508	 92.05585	712.02002	 40.10	
 20.396	 43.773	 71.41496	 66.95448	-11.61022	 66.32162	-12.08289	 -6.24338	 92.12031	712.03998	 40.10	
 20.408	 48.628	 71.38109	 63.04979	 -8.95481	 70.05916	-14.68751	 -6.37416	 92.13000	711.98999	 40.10	
 20.410	 53.489	 71.36429	 58.73042	 -5.97144	 73.49032	-16.89474	 -6.57458	 92.10484	712.06000	 40.10	
 20.400	 58.396	 71.41108	 54.17636	 -3.20015	 76.56452	-18.76182	 -6.64388	 92.16186	711.96997	 40.10	
 20.403	 63.259	 71.34223	 49.48468	  0.29599	 79.18177	-20.47409	 -6.70441	 92.13115	711.96002	 40.10	
 20.413	 68.100	 71.22375	 44.65434	  4.20316	 81.39500	-22.01812	 -6.74129	 92.15755	711.95001	 40.20	
 20.398	 72.996	 71.16241	 39.54470	  8.38401	 83.14989	-23.27669	 -6.75323	 92.12381	712.04999	 40.10	
 20.394	 77.868	 71.18713	 34.65141	 12.71434	 84.53995	-24.31719	 -6.77443	 92.15294	712.09003	 40.10	
 20.403	 82.668	 71.23018	 30.02524	 17.38897	 85.45554	-24.98733	 -6.81634	 92.14920	711.96997	 40.10	
 20.392	 87.560	 71.31903	 25.36164	 22.06301	 85.80271	-25.32470	 -6.87356	 92.08691	711.92999	 40.20	
 20.392	 92.440	 71.43443	 21.12501	 26.26542	 85.76160	-25.35770	 -6.93840	 92.09378	712.07001	 40.20	
 20.403	 97.332	 71.57876	 17.10102	 30.34578	 85.30814	-25.02551	 -6.97041	 92.11945	712.03003	 40.20	
 20.394	102.132	 71.71421	 12.59664	 35.03675	 84.39680	-24.36717	 -6.80375	 92.07395	712.09003	 40.20	
 20.398	107.004	 71.86758	  8.32671	 40.01381	 83.04755	-23.44346	 -6.62670	 92.11259	712.09998	 40.20	
 20.413	111.900	 72.04172	  4.31476	 44.95367	 81.23063	-22.17505	 -6.48080	 92.11572	712.01001	 40.20	
 20.403	116.741	 72.31777	  0.66951	 49.81052	 79.01402	-20.72941	 -6.33008	 92.16835	712.10999	 40.20	
 20.400	121.604	 72.55067	 -2.74919	 54.44196	 76.40407	-19.09719	 -6.19181	 92.16368	712.10999	 40.20	
 20.410	126.511	 72.71185	 -5.93505	 58.98505	 73.20924	-17.02382	 -6.05762	 92.12572	712.15002	 40.30	
 20.408	131.372	 72.92455	 -8.82370	 63.26988	 69.68929	-14.59503	 -5.90967	 92.16614	712.15997	 40.30	
 20.396	136.227	 73.05366	-11.42277	 67.16316	 65.92938	-11.98478	 -5.75009	 92.17748	712.19000	 40.30	
 20.392	141.062	 73.31111	-13.70604	 70.78671	 61.95437	 -9.08825	 -5.64398	 92.16068	712.15997	 40.30	
 20.397	145.903	 73.40098	-15.75091	 74.06783	 57.50221	 -5.96005	 -5.44194	 92.15554	712.08002	 40.30	
 20.405	150.835	 73.57622	-17.58768	 77.02711	 53.04062	 -2.59281	 -5.25191	 92.18305	712.08002	 40.30	
 20.401	155.705	 73.58893	-19.14007	 79.46306	 47.96718	  1.02435	 -4.97755	 92.14062	712.08002	 40.30	
 20.392	160.496	 73.83707	-20.26794	 81.50865	 43.14605	  5.06558	 -4.70450	 92.16061	712.15997	 40.30	
 20.410	165.423	 73.93620	-21.25325	 83.14258	 38.35091	  9.20052	 -4.39910	 92.14395	712.04999	 40.30	
 20.407	170.264	 74.04946	-21.99794	 84.25946	 33.12643	 13.77150	 -4.11508	 92.13348	712.00000	 40.30	
 20.401	175.153	 74.19835	-22.48670	 84.96528	 28.84589	 18.58659	 -3.83792	 92.14063	711.98999	 40.30	
  0.141	 45.000	 92.35207	 40.90113	 40.05264	 41.32311	 38.19050	  1.67083	 92.13544	712.06000	 40.30	
  4.001	128.691	 91.94565	 32.59714	 47.16666	 49.73309	 28.81963	  1.15384	 92.15907	712.09003	 40.30	
  4.002	 76.995	 91.85875	 42.31052	 37.06911	 52.29352	 26.45942	  1.42867	 92.14419	712.12000	 40.30	
  4.002	 25.892	 91.94708	 50.86750	 29.66511	 45.69784	 32.67318	  1.57064	 92.16016	712.08002	 40.30	
  4.002	-25.892	 92.14809	 51.12287	 29.72017	 35.35795	 42.97448	  1.42640	 92.22800	712.03003	 40.30	
  4.002	-76.995	 92.20816	 42.83242	 37.11860	 29.38249	 49.78747	  1.17097	 92.19005	712.04999	 40.30	
  4.001	-128.691	 92.21939	 32.98498	 47.29504	 31.39347	 47.09109	  1.00832	 92.19996	712.07001	 40.30	
  4.000	180.000	 92.14550	 28.63166	 51.86973	 40.10931	 37.77248	  0.98157	 92.21964	712.08002	 40.40	
  8.000	180.000	 90.45747	 15.88805	 61.99389	 38.02337	 35.81237	 -0.41761	 92.24693	712.21002	 40.40	
  7.991	-152.370	 90.63073	 18.61769	 59.18414	 27.67330	 46.82000	 -0.42877	 92.18315	712.04999	 40.40	
  7.997	-124.550	 90.73241	 25.63535	 51.38880	 19.78653	 56.16437	 -0.47876	 92.18790	712.15997	 40.40	
  8.006	-96.837	 90.62740	 36.04854	 40.45871	 16.42749	 60.18885	 -0.27591	 92.16048	712.06000	 40.40	
  7.988	-69.228	 90.53230	 47.02893	 29.70779	 17.49790	 58.97815	 -0.18162	 92.17967	712.20001	 40.40	
  7.997	-41.563	 90.41567	 56.78054	 20.97621	 23.56079	 51.91772	  0.10608	 92.19033	712.17999	 40.40	
  8.008	-13.821	 90.18699	 61.76912	 16.30553	 33.27293	 41.39178	  0.37767	 92.24066	712.13000	 40.40	
  8.008	 13.821	 89.89572	 61.53249	 16.25992	 44.50485	 30.06073	  0.39413	 92.20488	712.12000	 40.40	
  7.997	 41.563	 89.71539	 56.00715	 20.89303	 54.89264	 20.53513	  0.16948	 92.22820	712.15997	 40.40	
  7.988	 69.228	 89.59384	 45.89214	 29.42066	 61.20248	 14.73510	  0.14611	 92.20578	712.09998	 40.50	
  8.006	 96.837	 89.62106	 34.75740	 40.32932	 62.61671	 13.90585	  0.03213	 92.19628	712.19000	 40.50	
  7.997	124.550	 89.89967	 24.72677	 51.10685	 58.35958	 17.17315	 -0.27658	 92.21210	712.16998	 40.50	
  7.991	152.370	 90.21465	 18.15246	 59.05453	 49.38889	 25.00224	 -0.31334	 92.25824	712.21002	 40.50	
 12.009	161.059	 86.70049	  5.30990	 68.96089	 46.44608	 21.82159	 -2.78080	 92.23134	712.21997	 40.50	
 12.013	142.081	 86.33537	  9.55977	 62.91018	 57.21716	 12.67798	 -2.92194	 92.19831	712.10999	 40.50	
 12.006	123.113	 85.99493	 16.89591	 53.76243	 65.53359	  5.85542	 -2.75859	 92.19201	712.14001	 40.50	
 12.007	104.200	 85.74812	 25.78777	 42.90885	 70.64498	  1.73655	 -1.91497	 92.20068	712.04999	 40.50	
 11.989	 85.301	 85.55267	 37.07117	 31.46536	 71.88721	  0.98149	 -2.59107	 92.22904	712.13000	 40.50	
 12.013	 66.294	 85.47110	 48.44466	 20.98744	 68.83705	  3.52656	 -2.51265	 92.21865	712.15997	 40.50	
 12.012	 47.388	 85.48470	 58.92160	 12.70419	 62.20385	  8.74744	 -2.22228	 92.21295	712.10999	 40.60	
 11.990	 28.440	 85.71568	 66.39157	  6.65637	 52.76913	 16.85854	 -2.04964	 92.23061	712.15002	 40.60	
 11.991	  9.464	 85.99953	 70.84945	  3.78833	 41.34435	 26.74925	 -1.98245	 92.23669	712.16998	 40.50	
 11.991	 -9.464	 86.24492	 71.10614	  3.73189	 30.10537	 38.18300	 -1.93260	 92.16537	712.07001	 40.50	
 11.990	-28.440	 86.61893	 67.36002	  6.92654	 20.00317	 49.36702	 -2.20232	 92.22464	712.08002	 40.50	
 12.012	-47.388	 86.85878	 60.17646	 12.90397	 11.75916	 59.64085	 -2.24908	 92.24321	712.04999	 40.50	
 12.013	-66.294	 87.02740	 49.99520	 21.00834	  6.32551	 66.41672	 -2.31723	 92.21819	712.08002	 40.50	
 11.989	-85.301	 87.19460	 38.80586	 31.72810	  4.00689	 69.64057	 -2.06557	 92.16920	712.07001	 40.50	
 12.007	-104.200	 87.34831	 27.52205	 43.10350	  4.58810	 68.62093	 -2.35462	 92.21082	712.15997	 40.50	
 12.006	-123.113	 87.49225	 17.94450	 54.13898	  8.51911	 63.56223	 -2.52952	 92.20932	712.10999	 40.50	
 12.013	-142.081	 87.43758	 10.57607	 63.19887	 14.84506	 55.13260	 -2.41143	 92.20625	712.00000	 40.50	
 12.009	-161.059	 87.26584	  5.79733	 69.08721	 23.76567	 44.36683	 -2.78047	 92.18023	712.10999	 40.60	
 16.000	180.000	 81.88347	 -8.67617	 78.68523	 30.31135	 28.64408	 -3.88499	 92.21728	712.10999	 40.60	
 15.990	-165.604	 82.19418	 -7.78959	 77.21069	 20.05538	 39.93757	 -3.57258	 92.20113	712.21002	 40.60	
 16.002	-151.165	 82.38982	 -4.06481	 72.68233	 10.26405	 51.02769	 -3.12403	 92.21581	712.27002	 40.60	
 16.002	-136.836	 82.52937	  1.56523	 65.22858	  2.04002	 61.61801	 -2.85672	 92.20267	712.15002	 40.60	
 15.995	-122.439	 82.39834	  9.45889	 55.58307	 -3.97445	 69.78222	 -2.78980	 92.16047	712.19000	 40.60	
 15.993	-107.966	 82.28902	 18.91991	 44.41556	 -7.82958	 75.30318	 -2.79747	 92.20527	712.22998	 40.60	
 16.005	-93.629	 82.05392	 29.03555	 32.49131	 -9.41888	 77.63467	 -2.68216	 92.15816	712.19000	 40.60	
 15.992	-79.234	 81.93462	 40.23953	 22.25639	 -9.09247	 76.89502	 -2.88180	 92.25780	712.23999	 40.60	
 16.009	-64.774	 81.64592	 51.38255	 12.11327	 -6.25803	 72.87175	 -2.93882	 92.20955	712.17999	 40.60	
 15.997	-50.364	 81.45394	 61.92638	  3.11524	 -0.95800	 65.71909	 -3.08593	 92.22400	712.31000	 40.60	
 15.997	-36.045	 81.21357	 70.23688	 -3.59466	  6.61933	 56.36406	 -3.36803	 92.18729	712.19000	 40.60	
 16.000	-21.597	 81.00172	 76.12299	 -7.95195	 15.98345	 45.13393	 -3.51158	 92.19003	712.21997	 40.50	
 16.003	 -7.169	 80.71854	 78.86402	 -9.83603	 26.15090	 33.40342	 -3.56601	 92.23255	712.21002	 40.50	
 16.003	  7.169	 80.34276	 78.57973	-10.25727	 37.04905	 22.83645	 -3.85978	 92.21916	712.27002	 40.50	
 16.000	 21.597	 80.08138	 75.24528	 -8.10071	 48.63062	 12.35196	 -4.00420	 92.23096	712.21002	 40.50	
 15.997	 36.045	 79.81400	 68.74832	 -3.68359	 59.31943	  3.02581	 -4.22182	 92.22601	712.34998	 40.50	
 15.997	 50.364	 79.67126	 60.24567	  3.23406	 68.08818	 -3.74184	 -4.58267	 92.23698	712.34003	 40.50	
 16.009	 64.774	 79.57774	 49.41493	 11.96846	 74.94889	 -8.72262	 -4.79433	 92.25977	712.40002	 40.50	
 15.992	 79.234	 79.61824	 37.95742	 22.14510	 78.66470	-11.22640	 -4.82857	 92.19574	712.28003	 40.60	
 16.005	 93.629	 79.82751	 26.98997	 32.30523	 79.41131	-11.80822	 -4.94515	 92.24492	711.87000	 40.60	
 15.993	107.966	 80.15031	 17.03544	 43.89391	 76.98013	-11.26951	 -5.06338	 92.21214	712.31000	 40.60	
 15.995	122.439	 80.57262	  7.44327	 55.12070	 71.52320	 -7.20048	 -4.78116	 92.25839	712.46002	 40.60	
 16.002	136.836	 80.90730	 -0.11347	 64.81963	 63.29247	 -0.92098	 -4.80849	 92.25625	712.33002	 40.60	
 16.002	151.165	 81.22742	 -5.13100	 72.38927	 53.13313	  7.55893	 -4.66786	 92.21753	711.79999	 40.60	
 15.990	165.604	 81.58358	 -8.04153	 77.08315	 41.77988	 17.89244	 -4.21628	 92.22989	711.84003	 40.60	
 20.003	168.362	 74.83692	-20.60453	 83.45663	 35.74897	 12.54843	 -4.39602	 92.24923	712.38000	 40.70	
 20.008	156.764	 74.50900	-18.26299	 79.58946	 47.16406	  2.61660	 -5.04305	 92.23878	711.64001	 40.70	
 20.000	145.147	 74.25065	-14.30958	 73.28492	 58.26257	 -6.42975	 -5.60325	 92.20028	712.15002	 40.70	
 19.995	133.545	 73.85329	 -8.99564	 64.93177	 67.86566	-12.57513	 -5.91422	 92.22512	711.73999	 40.60	
 20.009	121.926	 73.47864	 -1.99497	 54.82327	 75.92172	-17.90028	 -6.27931	 92.23205	712.08002	 40.60	
 20.005	110.327	 72.97940	  6.39584	 43.69754	 81.47327	-21.56026	 -6.50487	 92.21383	711.71997	 40.60	
 19.989	 98.733	 72.50182	 16.51487	 32.10422	 84.66660	-23.84348	 -6.89213	 92.20263	711.65997	 40.60	
 19.999	 87.075	 72.23552	 26.40619	 22.23710	 85.41824	-24.28967	 -6.91008	 92.23647	711.76001	 40.60	
 19.992	 75.457	 72.15697	 37.46456	 11.40451	 83.54650	-22.83004	 -6.80868	 92.25888	711.71002	 40.60	
 20.009	 63.844	 72.22474	 49.09791	  1.68225	 79.14408	-20.05696	 -6.76972	 92.22785	711.76001	 40.60	
 19.989	 52.269	 72.34274	 59.82758	 -5.80864	 72.42755	-15.40221	 -6.55850	 92.20345	711.71997	 40.60	
 19.999	 40.602	 72.38163	 69.16991	-12.25540	 63.72247	 -9.41637	 -6.17765	 92.21576	711.71997	 40.60	
 20.004	 29.051	 72.50016	 76.61369	-17.11621	 53.60157	 -2.26648	 -5.66164	 92.20159	711.77002	 40.60	
 20.005	 17.433	 72.72144	 81.85251	-20.47520	 42.40353	  6.68811	 -5.14074	 92.21590	711.66998	 40.70	
 20.006	  5.780	 73.01592	 84.63625	-22.31532	 30.77265	 17.49435	 -4.74490	 92.22147	711.71002	 40.70	
 20.006	 -5.780	 73.31541	 84.96609	-22.27203	 20.95633	 27.71048	 -4.27151	 92.24597	711.81000	 40.70	
 20.005	-17.433	 73.59194	 82.79953	-20.60266	 10.37407	 39.15173	 -3.71661	 92.22910	711.73999	 40.70	
 20.004	-29.051	 74.00453	 78.11871	-17.27711	  0.86847	 50.82233	 -3.37551	 92.23566	711.75000	 40.70	
 19.999	-40.602	 74.24968	 71.06084	-12.51515	 -6.99291	 61.41022	 -3.15583	 92.20454	711.84003	 40.70	
 19.989	-52.269	 74.47794	 62.02735	 -6.06689	-12.99681	 70.40728	 -2.92031	 92.19932	711.81000	 40.70	
 20.009	-63.844	 74.63357	 51.43841	  1.88978	-17.83058	 77.53771	 -2.58467	 92.19357	711.75000	 40.70	
 19.992	-75.457	 74.87531	 40.10282	 11.71378	-20.97482	 82.05521	 -2.46258	 92.19033	711.70001	 40.70	
 19.999	-87.075	 75.13112	 28.77403	 22.55866	-21.97902	 83.95546	 -2.39694	 92.16082	711.78998	 40.70	
 19.989	-98.733	 75.27493	 19.04119	 32.62342	-21.60265	 83.43513	 -2.52446	 92.19804	711.78998	 40.70	
 20.005	-110.327	 75.47680	  8.70787	 44.20908	-19.77680	 80.26556	 -2.40501	 92.21244	711.78998	 40.70	
 20.009	-121.926	 75.80130	 -0.22503	 55.39711	-17.01174	 74.62181	 -2.38339	 92.19094	711.79999	 40.70	
 19.995	-133.545	 75.94190	 -7.48168	 65.44382	-11.23522	 66.50620	 -2.58523	 92.16919	711.81000	 40.70	
 20.000	-145.147	 75.97499	-13.38214	 73.80028	 -3.81670	 56.70753	 -2.76519	 92.22286	711.84998	 40.70	
 20.008	-156.764	 75.69936	-17.87231	 79.89998	  4.58229	 45.62267	 -2.96977	 92.17244	711.72998	 40.80	
 20.003	-168.362	 75.59096	-20.53049	 83.57101	 14.81500	 33.89439	 -3.25442	 92.22707	711.70001	 40.80	
 20.000	180.000	 75.10994	-21.47934	 84.69038	 24.91115	 23.69845	 -3.79717	 92.23094	711.82001	 40.80	
