FileType=PCF
NHL=14
Date=03/12/19	11:34:58
Facility=APL
Serial=16071-11
Customer=NASA
NP=6
Mach=0.230000
Calibration=1:1
CalPts=490
TstPts=95
PortNumbering=AP Standard
Units=Torr C m/s kg/m^3 deg mm 
Theta[deg]	Phi[deg]	P1[Torr]	P2[Torr]	P3[Torr]	P4[Torr]	P5[Torr]	P6[Torr]	Pt[Torr]	Ps[Abs,Torr]	Ts[C]	
  0.000	  0.000	 25.57717	 10.85139	 10.74022	 10.95324	 10.27170	  0.53571	 25.53144	712.14001	 30.60	
  1.691	128.401	 25.56833	  9.95253	 11.55784	 11.98767	  9.18187	  0.50169	 25.52986	712.15997	 30.60	
  1.692	 77.194	 25.56321	 11.10103	 10.40212	 12.26832	  8.90570	  0.54392	 25.53257	712.15002	 30.60	
  1.699	 26.182	 25.57017	 12.07570	  9.47816	 11.53972	  9.62631	  0.56199	 25.52838	712.13000	 30.60	
  1.699	-26.182	 25.58861	 12.10665	  9.49902	 10.33325	 10.86544	  0.54921	 25.55029	712.09003	 30.50	
  1.692	-77.194	 25.56483	 11.14186	 10.40352	  9.58059	 11.61963	  0.51405	 25.52384	712.09998	 30.50	
  1.691	-128.401	 25.57552	  9.99195	 11.56350	  9.82442	 11.35304	  0.48586	 25.53752	712.10999	 30.50	
  1.700	180.000	 25.56707	  9.43469	 12.09628	 10.89969	 10.24794	  0.48047	 25.52847	712.01001	 30.50	
  3.400	180.000	 25.53839	  8.02775	 13.45576	 10.79710	 10.15981	  0.37877	 25.54239	712.16998	 30.50	
  3.388	-152.325	 25.54657	  8.36463	 13.12915	  9.53519	 11.46975	  0.38188	 25.54432	712.14001	 30.50	
  3.397	-124.529	 25.55850	  9.22780	 12.20070	  8.54664	 12.53038	  0.39894	 25.53897	712.17999	 30.50	
  3.399	-96.763	 25.54081	 10.45191	 10.93507	  8.09125	 13.02141	  0.42424	 25.51800	712.09003	 30.40	
  3.394	-69.283	 25.54695	 11.75439	  9.66140	  8.25548	 12.86047	  0.45861	 25.53061	712.20001	 30.40	
  3.400	-41.398	 25.52634	 12.87904	  8.61107	  9.01105	 12.02958	  0.49167	 25.52297	712.09998	 30.40	
  3.401	-14.021	 25.52958	 13.52263	  8.02452	 10.17637	 10.80184	  0.52533	 25.53151	712.08002	 30.40	
  3.401	 14.021	 25.50776	 13.51154	  7.99530	 11.50603	  9.46238	  0.54031	 25.53208	712.14001	 30.40	
  3.400	 41.398	 25.49539	 12.85926	  8.54683	 12.69082	  8.30883	  0.53030	 25.52599	712.09003	 30.40	
  3.394	 69.283	 25.47261	 11.67369	  9.62018	 13.44876	  7.57188	  0.51208	 25.51112	712.17999	 30.30	
  3.399	 96.763	 25.50056	 10.35085	 10.93418	 13.64263	  7.45055	  0.46458	 25.53384	712.23999	 30.30	
  3.397	124.529	 25.49741	  9.13779	 12.17096	 13.13670	  7.90750	  0.42980	 25.52180	712.21002	 30.30	
  3.388	152.325	 25.51546	  8.32086	 13.10110	 12.09981	  8.88870	  0.39733	 25.53107	712.16998	 30.30	
  5.099	161.165	 25.38897	  6.79798	 14.48948	 11.95675	  8.66907	  0.23872	 25.51737	712.10999	 30.30	
  5.109	142.013	 25.36977	  7.35826	 13.79730	 13.25753	  7.47664	  0.27366	 25.52405	712.21002	 30.30	
  5.095	123.033	 25.34826	  8.28179	 12.72967	 14.24105	  6.60114	  0.26702	 25.52411	712.09003	 30.20	
  5.105	104.191	 25.32731	  9.47302	 11.43312	 14.83992	  6.11152	  0.33672	 25.52107	712.15002	 30.20	
  5.093	 85.207	 25.31931	 10.81805	 10.07758	 14.94837	  5.99093	  0.34736	 25.52044	712.22998	 30.20	
  5.104	 66.290	 25.31211	 12.20480	  8.76132	 14.59070	  6.25087	  0.36028	 25.52025	712.13000	 30.20	
  5.094	 47.331	 25.31835	 13.44649	  7.67007	 13.79493	  6.94651	  0.44415	 25.52712	712.21997	 30.20	
  5.089	 28.397	 25.32515	 14.32913	  6.93438	 12.66419	  7.98107	  0.45333	 25.50340	712.17999	 30.20	
  5.096	  9.576	 25.35001	 14.84316	  6.56921	 11.34903	  9.24679	  0.44229	 25.51501	712.21997	 30.20	
  5.096	 -9.576	 25.36129	 14.86219	  6.58365	  9.99617	 10.61651	  0.43973	 25.51012	712.21002	 30.10	
  5.089	-28.397	 25.40293	 14.39316	  7.00085	  8.71032	 11.99299	  0.41315	 25.52169	712.28003	 30.10	
  5.094	-47.331	 25.40811	 13.51406	  7.77037	  7.64435	 13.17098	  0.38459	 25.51050	712.23999	 30.10	
  5.104	-66.290	 25.42312	 12.34149	  8.84929	  6.97890	 13.97654	  0.35701	 25.51500	712.13000	 30.10	
  5.093	-85.207	 25.44395	 10.99086	 10.10119	  6.71444	 14.30926	  0.31505	 25.52036	712.29999	 30.10	
  5.105	-104.191	 25.44747	  9.65630	 11.45064	  6.79137	 14.20508	  0.28879	 25.51714	712.15997	 30.10	
  5.095	-123.033	 25.45235	  8.45956	 12.74058	  7.28621	 13.60691	  0.23355	 25.51935	712.21002	 30.00	
  5.109	-142.013	 25.43615	  7.44384	 13.82282	  8.10191	 12.64674	  0.25398	 25.51909	712.15997	 30.00	
  5.099	-161.165	 25.40634	  6.82349	 14.49439	  9.26429	 11.33971	  0.19872	 25.49947	712.21002	 30.00	
  5.100	180.000	 25.40532	  6.59953	 14.75482	 10.59787	  9.97694	  0.24460	 25.51010	712.21002	 30.00	
  6.800	180.000	 25.20101	  5.22376	 15.99994	 10.32540	  9.73999	  0.05279	 25.51364	712.25000	 30.00	
  6.796	-166.229	 25.22387	  5.39288	 15.80632	  9.03453	 11.07864	 -0.00078	 25.51039	712.17999	 30.00	
  6.808	-152.311	 25.22217	  5.82489	 15.29268	  7.80533	 12.40882	  0.01678	 25.48708	712.31000	 30.00	
  6.795	-138.383	 25.26677	  6.50931	 14.50637	  6.83182	 13.56121	  0.08089	 25.51040	712.25000	 30.00	
  6.792	-124.591	 25.25382	  7.41703	 13.44828	  6.09384	 14.51163	  0.03281	 25.50280	712.26001	 29.90	
  6.787	-110.754	 25.27145	  8.56143	 12.20413	  5.56992	 15.19674	  0.08467	 25.51617	712.16998	 29.90	
  6.800	-96.985	 25.25673	  9.78909	 10.86994	  5.24561	 15.55985	  0.05881	 25.51339	712.10999	 29.90	
  6.800	-83.015	 25.22358	 11.09628	  9.53665	  5.21595	 15.56003	  0.09715	 25.49345	712.22998	 29.90	
  6.787	-69.246	 25.22182	 12.43607	  8.30416	  5.47343	 15.20349	  0.16556	 25.50801	712.31000	 29.90	
  6.792	-55.409	 25.20932	 13.67159	  7.21403	  6.01500	 14.54261	  0.15353	 25.50422	712.22998	 29.90	
  6.795	-41.617	 25.18408	 14.72935	  6.29050	  6.82576	 13.57710	  0.18476	 25.50837	712.16998	 29.90	
  6.808	-27.689	 25.14750	 15.55149	  5.57266	  7.84087	 12.37265	  0.21444	 25.50442	712.35999	 29.90	
  6.796	-13.771	 25.12888	 16.03622	  5.17625	  9.07205	 11.02722	  0.27052	 25.50020	712.23999	 29.90	
  6.800	  0.000	 25.09421	 16.18486	  5.00797	 10.39639	  9.66104	  0.33412	 25.50209	712.16998	 29.80	
  6.796	 13.771	 25.06397	 15.97657	  5.13135	 11.71151	  8.35324	  0.25833	 25.48502	712.21997	 29.80	
  6.808	 27.689	 25.05517	 15.45958	  5.51020	 13.04778	  7.12169	  0.26444	 25.51566	712.23999	 29.80	
  6.795	 41.617	 25.04154	 14.59071	  6.20151	 14.23335	  6.10496	  0.23652	 25.50605	712.25000	 29.80	
  6.792	 55.409	 25.03197	 13.51105	  7.08363	 15.18545	  5.29623	  0.20472	 25.51164	712.19000	 29.80	
  6.787	 69.246	 25.03787	 12.23202	  8.21243	 15.85579	  4.76250	  0.17187	 25.52190	712.20001	 29.80	
  6.800	 83.015	 25.03677	 10.88223	  9.48122	 16.20308	  4.51199	  0.13329	 25.51385	712.25000	 29.80	
  6.800	 96.985	 25.04770	  9.52599	 10.84435	 16.18524	  4.55881	  0.08666	 25.50878	712.20001	 29.80	
  6.787	110.754	 25.06187	  8.27354	 12.17337	 15.81972	  4.87615	  0.16579	 25.50296	712.15002	 29.70	
  6.792	124.591	 25.09632	  7.18326	 13.42702	 15.13914	  5.42289	  0.06139	 25.50555	712.16998	 29.70	
  6.795	138.383	 25.12708	  6.32384	 14.48845	 14.19621	  6.19172	  0.10951	 25.50840	712.22998	 29.70	
  6.808	152.311	 25.13477	  5.73168	 15.29486	 13.00194	  7.24423	  0.05416	 25.50200	712.21997	 29.70	
  6.796	166.229	 25.16105	  5.36633	 15.79837	 11.67279	  8.45205	  0.01681	 25.49504	712.15997	 29.70	
  8.491	168.704	 24.87964	  3.85896	 17.04941	 11.39706	  8.09978	 -0.17913	 25.50429	712.23999	 29.70	
  8.502	157.493	 24.83090	  4.11482	 16.60518	 12.76075	  6.82946	 -0.24329	 25.49419	712.21002	 29.70	
  8.494	146.194	 24.80631	  4.57413	 15.90411	 14.04784	  5.69277	 -0.15123	 25.49573	712.23999	 29.70	
  8.495	135.039	 24.77302	  5.23507	 14.98800	 15.15876	  4.76384	 -0.19712	 25.49997	712.16998	 29.70	
  8.487	123.723	 24.73914	  6.16109	 13.85350	 16.12243	  4.02978	 -0.16437	 25.49245	712.26001	 29.60	
  8.492	112.575	 24.71834	  7.26078	 12.59113	 16.85718	  3.47664	 -0.14355	 25.50141	712.29999	 29.60	
  8.510	101.220	 24.68657	  8.52449	 11.21669	 17.31088	  3.10531	 -0.10126	 25.50231	712.40002	 29.60	
  8.500	 90.000	 24.67542	  9.86432	  9.86824	 17.46541	  2.97828	 -0.12297	 25.50910	712.26001	 29.60	
  8.510	 78.780	 24.64637	 11.23712	  8.49734	 17.33938	  3.03871	 -0.08667	 25.50052	712.34998	 29.60	
  8.492	 67.425	 24.65650	 12.62731	  7.23943	 16.88838	  3.38139	 -0.06853	 25.50513	712.22998	 29.60	
  8.487	 56.277	 24.64637	 13.89976	  6.13748	 16.18073	  3.91387	 -0.04096	 25.49258	712.27002	 29.60	
  8.495	 44.961	 24.66751	 15.07374	  5.19757	 15.22668	  4.68769	  0.00460	 25.49410	712.27002	 29.60	
  8.494	 33.806	 24.67763	 16.03715	  4.43614	 14.11308	  5.60558	  0.04776	 25.49591	712.26001	 29.60	
  8.502	 22.507	 24.70259	 16.78838	  3.87893	 12.81616	  6.72865	  0.05078	 25.50753	712.32001	 29.50	
  8.491	 11.296	 24.71219	 17.23072	  3.58574	 11.42794	  8.02832	  0.04491	 25.48785	712.17999	 29.50	
  8.500	  0.000	 24.74447	 17.41063	  3.51899	 10.05975	  9.37057	  0.04203	 25.49100	712.33002	 29.50	
  8.491	-11.296	 24.78501	 17.28007	  3.66937	  8.71432	 10.75870	  0.03455	 25.49312	712.31000	 29.50	
  8.502	-22.507	 24.80312	 16.86819	  4.00483	  7.44994	 12.13813	 -0.00556	 25.48812	712.33002	 29.50	
  8.494	-33.806	 24.84715	 16.17902	  4.56930	  6.35783	 13.42400	 -0.02963	 25.48590	712.28003	 29.50	
  8.495	-44.961	 24.86196	 15.25393	  5.30131	  5.43644	 14.56386	 -0.06219	 25.48626	712.25000	 29.50	
  8.487	-56.277	 24.89013	 14.12952	  6.25395	  4.67714	 15.51939	 -0.08835	 25.48605	712.20001	 29.50	
  8.492	-67.425	 24.90682	 12.88169	  7.32328	  4.11595	 16.23660	 -0.12495	 25.48940	712.23999	 29.50	
  8.510	-78.780	 24.91928	 11.51893	  8.57502	  3.75988	 16.69675	 -0.14869	 25.48075	712.31000	 29.50	
  8.500	-90.000	 24.93410	 10.15257	  9.90512	  3.66242	 16.82948	 -0.16436	 25.49270	712.28998	 29.40	
  8.510	-101.220	 24.93974	  8.83084	 11.26848	  3.79419	 16.68311	 -0.18382	 25.47986	712.28998	 29.40	
  8.492	-112.575	 24.96159	  7.56526	 12.64172	  4.13329	 16.22914	 -0.19836	 25.48431	712.17999	 29.40	
  8.487	-123.723	 24.97048	  6.47981	 13.89132	  4.66046	 15.53971	 -0.14527	 25.49007	712.22998	 29.40	
  8.495	-135.039	 24.96627	  5.56992	 15.00146	  5.39647	 14.57450	 -0.17402	 25.48271	712.31000	 29.40	
  8.494	-146.194	 24.95755	  4.80580	 15.92258	  6.27688	 13.45317	 -0.17528	 25.48541	712.27002	 29.40	
  8.502	-157.493	 24.94180	  4.24772	 16.62263	  7.37995	 12.16774	 -0.22904	 25.49661	712.33002	 29.40	
  8.491	-168.704	 24.90847	  3.91054	 17.03559	  8.64516	 10.79387	 -0.24318	 25.48204	712.27002	 29.40	
  8.500	180.000	 24.88857	  3.76565	 17.19199	 10.00121	  9.40307	 -0.15529	 25.48639	712.13000	 29.40	
 10.200	180.000	 24.50694	  2.25724	 18.32821	  9.60259	  9.04610	 -0.47225	 25.49437	712.15002	 29.40	
 10.191	-170.497	 24.52981	  2.38912	 18.20199	  8.24225	 10.44217	 -0.47753	 25.47825	712.17999	 29.40	
 10.210	-161.034	 24.55226	  2.63692	 17.85915	  6.95815	 11.83130	 -0.46500	 25.49063	712.13000	 29.40	
 10.194	-151.526	 24.56311	  3.09837	 17.24578	  5.78672	 13.16805	 -0.44367	 25.47782	712.32001	 29.30	
 10.190	-142.105	 24.58988	  3.72202	 16.44057	  4.77919	 14.41684	 -0.41375	 25.48246	712.28003	 29.30	
 10.215	-132.646	 24.60050	  4.52456	 15.43873	  3.88600	 15.55963	 -0.43111	 25.49247	712.22998	 29.30	
 10.203	-123.092	 24.58732	  5.49124	 14.23654	  3.17284	 16.49967	 -0.43662	 25.47317	712.21002	 29.30	
 10.192	-113.678	 24.58703	  6.59830	 12.96500	  2.66778	 17.22716	 -0.43844	 25.48871	712.22998	 29.30	
 10.208	-104.249	 24.57134	  7.82238	 11.59836	  2.32947	 17.71822	 -0.40653	 25.48149	712.23999	 29.30	
 10.210	-94.801	 24.56539	  9.14396	 10.22569	  2.16454	 17.97358	 -0.38627	 25.48883	712.17999	 29.30	
 10.210	-85.199	 24.54660	 10.51705	  8.84452	  2.15469	 17.97234	 -0.40083	 25.49216	712.23999	 29.30	
 10.208	-75.751	 24.52659	 11.89107	  7.53766	  2.31923	 17.71838	 -0.39530	 25.49076	712.15997	 29.30	
 10.192	-66.322	 24.49788	 13.26543	  6.28700	  2.70703	 17.21150	 -0.37688	 25.48053	712.22998	 29.30	
 10.203	-56.908	 24.48711	 14.53850	  5.20528	  3.26798	 16.49742	 -0.34585	 25.48400	712.23999	 29.30	
 10.215	-47.354	 24.46028	 15.70765	  4.23668	  3.99171	 15.54344	 -0.32180	 25.48722	712.21997	 29.30	
 10.190	-37.895	 24.42759	 16.71233	  3.44822	  4.89475	 14.39422	 -0.30272	 25.48726	712.21002	 29.30	
 10.194	-28.474	 24.39556	 17.51621	  2.83811	  5.89799	 13.15174	 -0.27464	 25.48765	712.21002	 29.30	
 10.210	-18.966	 24.35914	 18.10796	  2.37774	  7.02285	 11.79651	 -0.22594	 25.48565	712.09003	 29.20	
 10.191	 -9.503	 24.33070	 18.43862	  2.10452	  8.32824	 10.40166	 -0.18395	 25.47785	712.08002	 29.20	
 10.200	  0.000	 24.29973	 18.54816	  1.96887	  9.69223	  8.99377	 -0.17964	 25.48725	712.27002	 29.20	
 10.191	  9.503	 24.27898	 18.40010	  2.01962	 11.08424	  7.62519	 -0.18808	 25.49577	712.21002	 29.20	
 10.210	 18.966	 24.24373	 18.01006	  2.23519	 12.50327	  6.30703	 -0.18578	 25.49311	712.28003	 29.20	
 10.194	 28.474	 24.21636	 17.36353	  2.68152	 13.83838	  5.12324	 -0.17064	 25.49184	712.25000	 29.20	
 10.190	 37.895	 24.19114	 16.49870	  3.33449	 15.06215	  4.09971	 -0.18633	 25.48008	712.29999	 29.20	
 10.215	 47.354	 24.17699	 15.45625	  4.12367	 16.20444	  3.17877	 -0.24582	 25.49514	712.22998	 29.20	
 10.203	 56.908	 24.16735	 14.23331	  5.09987	 17.14528	  2.45197	 -0.31692	 25.48274	712.25000	 29.20	
 10.192	 66.322	 24.16180	 12.92531	  6.20724	 17.86939	  1.93558	 -0.32788	 25.48497	712.29999	 29.20	
 10.208	 75.751	 24.15533	 11.54212	  7.43551	 18.34683	  1.58052	 -0.34209	 25.48372	712.21997	 29.20	
 10.210	 85.199	 24.17389	 10.14743	  8.77690	 18.58739	  1.41879	 -0.35892	 25.48806	712.21997	 29.20	
 10.210	 94.801	 24.20070	  8.77669	 10.16378	 18.56837	  1.46279	 -0.40508	 25.48624	712.15997	 29.10	
 10.208	104.249	 24.23310	  7.44656	 11.55440	 18.31701	  1.68254	 -0.42815	 25.48810	712.26001	 29.10	
 10.192	113.678	 24.25517	  6.24128	 12.91236	 17.80996	  2.02014	 -0.42681	 25.48929	712.20001	 29.10	
 10.203	123.092	 24.28311	  5.13519	 14.19109	 17.08018	  2.55658	 -0.40857	 25.48939	712.23999	 29.10	
 10.215	132.646	 24.31132	  4.14781	 15.38901	 16.11736	  3.29336	 -0.43469	 25.48169	712.28003	 29.10	
 10.190	142.105	 24.36100	  3.39973	 16.41214	 14.99792	  4.15569	 -0.46381	 25.49651	712.26001	 29.10	
 10.194	151.526	 24.38254	  2.81375	 17.22297	 13.75222	  5.17923	 -0.47649	 25.47512	712.26001	 29.10	
 10.210	161.034	 24.42020	  2.46273	 17.83852	 12.40406	  6.37933	 -0.47807	 25.48002	712.32001	 29.10	
 10.191	170.497	 24.47077	  2.34236	 18.19078	 11.00087	  7.69066	 -0.47041	 25.48099	712.22998	 29.10	
 11.899	171.783	 23.98794	  0.83488	 19.29370	 10.54704	  7.26485	 -0.67654	 25.48630	712.15997	 29.10	
 11.890	163.610	 23.95727	  0.93347	 18.96814	 11.96649	  5.94688	 -0.68320	 25.48653	712.27002	 29.10	
 11.889	155.445	 23.91018	  1.20105	 18.42871	 13.34464	  4.73157	 -0.70630	 25.49207	712.25000	 29.10	
 11.909	147.299	 23.87416	  1.63334	 17.70878	 14.64862	  3.63265	 -0.72456	 25.49139	712.28003	 29.10	
 11.902	139.148	 23.82911	  2.26382	 16.78563	 15.87611	  2.68321	 -0.69886	 25.48866	712.29999	 29.10	
 11.894	130.867	 23.78543	  3.08488	 15.68519	 16.98558	  1.84312	 -0.67811	 25.47759	712.32001	 29.00	
 11.897	122.732	 23.76182	  4.05597	 14.48176	 17.92483	  1.16997	 -0.65330	 25.48651	712.32001	 29.00	
 11.903	114.597	 23.72748	  5.15061	 13.19289	 18.66307	  0.63882	 -0.67525	 25.48575	712.19000	 29.00	
 11.893	106.346	 23.70373	  6.38255	 11.82304	 19.20318	  0.27817	 -0.68375	 25.48271	712.38000	 29.00	
 11.892	 98.155	 23.67748	  7.66767	 10.41047	 19.53324	  0.10158	 -0.66898	 25.47695	712.28003	 29.00	
 11.900	 90.000	 23.65747	  9.01863	  9.03621	 19.65583	 -0.02196	 -0.62830	 25.48479	712.28003	 29.00	
 11.892	 81.845	 23.63688	 10.39192	  7.71078	 19.55394	  0.04648	 -0.61213	 25.48812	712.26001	 29.00	
 11.893	 73.654	 23.61374	 11.80560	  6.35101	 19.24392	  0.24390	 -0.60459	 25.48230	712.25000	 29.00	
 11.903	 65.403	 23.61034	 13.19853	  5.13938	 18.70881	  0.60745	 -0.60826	 25.48203	712.21002	 29.00	
 11.897	 57.268	 23.60998	 14.49470	  4.07448	 17.98847	  1.11573	 -0.58760	 25.48862	712.27002	 29.00	
 11.894	 49.133	 23.63465	 15.73313	  3.12765	 17.07926	  1.77097	 -0.52048	 25.49547	712.25000	 29.00	
 11.902	 40.852	 23.63403	 16.85255	  2.27344	 15.97007	  2.59485	 -0.44098	 25.49360	712.33002	 29.00	
 11.909	 32.701	 23.65994	 17.80099	  1.61329	 14.76700	  3.55207	 -0.39745	 25.49233	712.28998	 29.00	
 11.889	 24.555	 23.67676	 18.54069	  1.10788	 13.46115	  4.63635	 -0.41509	 25.47428	712.21002	 29.00	
 11.890	 16.390	 23.70368	 19.11333	  0.74078	 12.09969	  5.85689	 -0.42344	 25.47952	712.21997	 29.00	
 11.899	  8.217	 23.75472	 19.48113	  0.55168	 10.68614	  7.17180	 -0.42528	 25.49425	712.21002	 29.00	
 11.900	  0.000	 23.77151	 19.60680	  0.51774	  9.27076	  8.55995	 -0.40988	 25.48784	712.23999	 29.00	
 11.899	 -8.217	 23.79485	 19.52749	  0.60973	  7.89892	  9.96554	 -0.41200	 25.48466	712.27002	 29.00	
 11.890	-16.390	 23.82754	 19.22119	  0.83330	  6.59745	 11.35521	 -0.45590	 25.47453	712.27002	 28.90	
 11.889	-24.555	 23.86222	 18.72499	  1.18343	  5.43762	 12.73917	 -0.48781	 25.48140	712.21997	 29.00	
 11.909	-32.701	 23.87790	 18.02260	  1.63845	  4.33683	 14.06351	 -0.53405	 25.47455	712.38000	 29.00	
 11.902	-40.852	 23.91404	 17.12305	  2.32593	  3.38010	 15.30414	 -0.54211	 25.47849	712.37000	 28.90	
 11.894	-49.133	 23.95283	 16.05068	  3.18955	  2.57318	 16.42002	 -0.54916	 25.48315	712.32001	 28.90	
 11.897	-57.268	 23.98328	 14.86101	  4.14051	  1.90001	 17.34360	 -0.54936	 25.48100	712.26001	 28.90	
 11.903	-65.403	 24.00814	 13.59458	  5.19211	  1.34091	 18.09731	 -0.57773	 25.48081	712.28998	 28.90	
 11.893	-73.654	 24.01761	 12.22115	  6.40923	  0.93862	 18.63616	 -0.60008	 25.47957	712.32001	 28.90	
 11.892	-81.845	 24.04064	 10.80460	  7.74322	  0.70118	 18.97075	 -0.59652	 25.47174	712.29999	 28.90	
 11.900	-90.000	 24.06281	  9.42401	  9.10532	  0.60513	 19.09172	 -0.57830	 25.47279	712.32001	 28.90	
 11.892	-98.155	 24.06999	  8.08241	 10.47091	  0.65538	 18.97652	 -0.56474	 25.46052	712.33002	 28.90	
 11.893	-106.346	 24.09862	  6.76438	 11.89327	  0.88305	 18.65285	 -0.58609	 25.46951	712.28998	 28.90	
 11.903	-114.597	 24.11288	  5.56002	 13.25162	  1.22190	 18.10430	 -0.60959	 25.46942	712.28003	 28.90	
 11.897	-122.732	 24.13029	  4.48709	 14.55090	  1.74866	 17.36474	 -0.62283	 25.47390	712.38000	 28.90	
 11.894	-130.867	 24.13704	  3.53221	 15.76057	  2.41978	 16.44850	 -0.61451	 25.48325	712.28998	 28.90	
 11.902	-139.148	 24.13907	  2.67555	 16.86691	  3.23590	 15.34548	 -0.60223	 25.49780	712.31000	 28.90	
 11.909	-147.299	 24.10604	  1.98597	 17.75434	  4.20313	 14.10849	 -0.61656	 25.47762	712.38000	 28.90	
 11.889	-155.445	 24.11052	  1.49333	 18.46439	  5.31431	 12.79650	 -0.64827	 25.48526	712.31000	 28.90	
 11.890	-163.610	 24.08358	  1.12722	 18.98212	  6.49289	 11.43105	 -0.68162	 25.47775	712.25000	 28.90	
 11.899	-171.783	 24.05523	  0.93455	 19.29974	  7.83102	 10.02096	 -0.69983	 25.48865	712.20001	 28.80	
 11.900	180.000	 24.02060	  0.77968	 19.40464	  9.16145	  8.61492	 -0.67757	 25.46872	712.31000	 28.80	
 13.600	180.000	 23.46174	 -0.62398	 20.40211	  8.69862	  8.14190	 -0.84798	 25.48505	712.27002	 28.80	
 13.608	-172.853	 23.49492	 -0.59516	 20.33426	  7.29173	  9.53969	 -0.85384	 25.49095	712.21002	 28.80	
 13.611	-165.583	 23.52059	 -0.40670	 20.05790	  5.95553	 10.97683	 -0.84956	 25.49161	712.27002	 28.80	
 13.601	-158.353	 23.55754	 -0.08353	 19.58532	  4.77348	 12.34311	 -0.79861	 25.48454	712.34003	 28.80	
 13.609	-151.210	 23.56255	  0.36224	 18.93923	  3.64807	 13.69129	 -0.76787	 25.47448	712.27002	 28.80	
 13.611	-143.999	 23.56716	  0.95104	 18.11273	  2.62066	 14.99934	 -0.73521	 25.48630	712.28003	 28.80	
 13.601	-136.825	 23.58528	  1.63474	 17.12746	  1.77207	 16.17191	 -0.72268	 25.48005	712.35999	 28.80	
 13.596	-129.640	 23.58790	  2.48214	 16.02416	  1.02491	 17.23260	 -0.72757	 25.47643	712.32001	 28.80	
 13.611	-122.431	 23.57844	  3.42750	 14.79230	  0.34627	 18.17715	 -0.72087	 25.48234	712.23999	 28.80	
 13.604	-115.211	 23.56892	  4.50394	 13.46529	 -0.19131	 18.96089	 -0.70638	 25.49312	712.21997	 28.80	
 13.595	-108.042	 23.53646	  5.66949	 12.09839	 -0.55285	 19.52674	 -0.67954	 25.48314	712.15997	 28.80	
 13.607	-100.793	 23.51877	  6.93037	 10.70239	 -0.75644	 19.92822	 -0.66245	 25.48013	712.21002	 28.80	
 13.601	-93.617	 23.50734	  8.29260	  9.29249	 -0.81237	 20.10442	 -0.67535	 25.47190	712.25000	 28.80	
 13.601	-86.383	 23.46347	  9.65302	  7.89508	 -0.83037	 20.08737	 -0.69121	 25.45882	712.19000	 28.80	
 13.607	-79.207	 23.46542	 11.06449	  6.55118	 -0.72444	 19.91905	 -0.70699	 25.48804	712.23999	 28.80	
 13.595	-71.958	 23.44040	 12.47828	  5.27934	 -0.41355	 19.50657	 -0.71999	 25.48631	712.28003	 28.80	
 13.604	-64.789	 23.41795	 13.82575	  4.12814	 -0.00415	 18.92667	 -0.71291	 25.49229	712.28003	 28.80	
 13.611	-57.569	 23.38530	 15.11489	  3.05685	  0.51288	 18.15490	 -0.70778	 25.48140	712.14001	 28.80	
 13.596	-50.360	 23.37346	 16.34674	  2.10792	  1.14969	 17.20729	 -0.71797	 25.48232	712.29999	 28.80	
 13.601	-43.175	 23.32004	 17.42743	  1.27858	  1.87917	 16.13133	 -0.72739	 25.47859	712.20001	 28.80	
 13.611	-36.001	 23.30514	 18.40252	  0.58061	  2.74446	 14.95957	 -0.73307	 25.48309	712.28003	 28.70	
 13.609	-28.790	 23.26493	 19.20152	  0.01798	  3.75909	 13.66360	 -0.73370	 25.48742	712.28003	 28.70	
 13.601	-21.647	 23.23095	 19.81672	 -0.38753	  4.86005	 12.31031	 -0.69963	 25.47528	712.26001	 28.70	
 13.611	-14.417	 23.19613	 20.26541	 -0.67791	  6.06559	 10.89080	 -0.66094	 25.46794	712.31000	 28.70	
 13.608	 -7.147	 23.16985	 20.53048	 -0.86615	  7.39208	  9.46001	 -0.62793	 25.48372	712.26001	 28.70	
 13.600	  0.000	 23.13371	 20.60633	 -1.01669	  8.75859	  8.04115	 -0.62457	 25.48269	712.31000	 28.70	
 13.608	  7.147	 23.10519	 20.48124	 -0.99321	 10.14264	  6.69036	 -0.64685	 25.48390	712.27002	 28.70	
 13.611	 14.417	 23.07231	 20.16375	 -0.81781	 11.58397	  5.34901	 -0.65134	 25.48393	712.26001	 28.70	
 13.601	 21.647	 23.05321	 19.64856	 -0.51695	 12.99425	  4.11304	 -0.64119	 25.48791	712.27002	 28.70	
 13.609	 28.790	 23.01222	 18.95766	 -0.09922	 14.31622	  2.99193	 -0.63179	 25.47963	712.34003	 28.70	
 13.611	 36.001	 22.98616	 18.08583	  0.50269	 15.61880	  1.98746	 -0.66602	 25.47413	712.35999	 28.70	
 13.601	 43.175	 22.98335	 17.09050	  1.20817	 16.80063	  1.10574	 -0.73126	 25.49068	712.28003	 28.70	
 13.596	 50.360	 22.97993	 15.95750	  2.05127	 17.84283	  0.38491	 -0.81502	 25.48619	712.28998	 28.70	
 13.611	 57.569	 22.96568	 14.70030	  2.98589	 18.75607	 -0.23625	 -0.87543	 25.47903	712.27002	 28.70	
 13.604	 64.789	 22.96025	 13.37028	  4.04750	 19.51374	 -0.75179	 -0.88990	 25.48841	712.26001	 28.70	
 13.595	 71.958	 22.96205	 11.99343	  5.20731	 20.08001	 -1.12268	 -0.88193	 25.48544	712.21997	 28.70	
 13.607	 79.207	 22.96484	 10.57561	  6.46858	 20.45719	 -1.38520	 -0.88332	 25.47574	712.21997	 28.70	
 13.601	 86.383	 22.98602	  9.17558	  7.83544	 20.63596	 -1.49689	 -0.89561	 25.47151	712.32001	 28.70	
 13.601	 93.617	 23.01304	  7.81901	  9.20066	 20.64210	 -1.54286	 -0.91330	 25.47649	712.31000	 28.70	
 13.607	100.793	 23.03545	  6.47837	 10.63385	 20.43596	 -1.36953	 -0.94232	 25.48202	712.23999	 28.70	
 13.595	108.042	 23.06317	  5.20704	 12.01185	 20.03525	 -1.19078	 -0.94397	 25.47936	712.22998	 28.70	
 13.604	115.211	 23.10791	  4.02002	 13.38309	 19.46246	 -0.82785	 -0.90863	 25.48069	712.27002	 28.70	
 13.611	122.431	 23.13167	  2.93546	 14.68752	 18.69295	 -0.32875	 -0.89137	 25.47755	712.22998	 28.70	
 13.596	129.640	 23.16526	  1.98170	 15.93097	 17.75187	  0.35235	 -0.90436	 25.47179	712.31000	 28.70	
 13.601	136.825	 23.20743	  1.16166	 17.04913	 16.69566	  1.10541	 -0.93393	 25.48555	712.22998	 28.70	
 13.611	143.999	 23.24657	  0.51035	 18.02615	 15.49992	  2.03486	 -0.95646	 25.48349	712.17999	 28.60	
 13.609	151.210	 23.27524	  0.00845	 18.85331	 14.19136	  3.05419	 -0.95117	 25.47052	712.29999	 28.60	
 13.601	158.353	 23.31888	 -0.34519	 19.52956	 12.86573	  4.14609	 -0.91143	 25.47526	712.25000	 28.60	
 13.611	165.583	 23.38646	 -0.56604	 20.03375	 11.47343	  5.41348	 -0.86765	 25.49137	712.20001	 28.60	
 13.608	172.853	 23.42603	 -0.66003	 20.31676	 10.05967	  6.77632	 -0.85481	 25.48024	712.20001	 28.60	
 15.298	173.587	 22.76997	 -2.13061	 21.23051	  9.48088	  6.23526	 -1.00783	 25.48050	712.25000	 28.60	
 15.291	167.167	 22.74602	 -2.02306	 20.96621	 10.88899	  4.92997	 -1.04609	 25.49391	712.31000	 28.60	
 15.307	160.676	 22.68560	 -1.82841	 20.52214	 12.29633	  3.64638	 -1.08027	 25.48297	712.32001	 28.60	
 15.300	154.261	 22.63491	 -1.50292	 19.91496	 13.63696	  2.56160	 -1.14162	 25.47169	712.21997	 28.60	
 15.288	147.854	 22.61398	 -1.07243	 19.16500	 14.96467	  1.53645	 -1.18851	 25.48237	712.16998	 28.60	
 15.293	141.428	 22.57680	 -0.53568	 18.26399	 16.22654	  0.60161	 -1.17821	 25.49185	712.23999	 28.60	
 15.299	134.985	 22.54065	  0.13889	 17.21293	 17.38332	 -0.24148	 -1.16918	 25.48337	712.19000	 28.60	
 15.305	128.583	 22.49915	  0.91805	 16.07840	 18.44621	 -0.98859	 -1.15032	 25.49285	712.21997	 28.60	
 15.309	122.142	 22.44439	  1.84150	 14.81912	 19.38095	 -1.63510	 -1.13763	 25.48268	712.29999	 28.60	
 15.304	115.711	 22.40409	  2.90124	 13.49987	 20.15075	 -2.12960	 -1.16987	 25.46887	712.21997	 28.60	
 15.297	109.291	 22.37461	  4.03639	 12.14325	 20.76504	 -2.54374	 -1.21166	 25.48323	712.23999	 28.60	
 15.293	102.897	 22.33670	  5.26290	 10.76407	 21.19469	 -2.83733	 -1.23115	 25.47692	712.34003	 28.60	
 15.293	 96.458	 22.30867	  6.59470	  9.35614	 21.46874	 -3.03111	 -1.20769	 25.48266	712.23999	 28.60	
 15.300	 90.000	 22.27737	  7.93081	  7.97702	 21.55996	 -3.01586	 -1.17468	 25.47932	712.22998	 28.60	
 15.293	 83.542	 22.26224	  9.29100	  6.65024	 21.48217	 -2.88528	 -1.17326	 25.48158	712.27002	 28.60	
 15.293	 77.103	 22.23888	 10.71913	  5.29479	 21.23724	 -2.74498	 -1.17141	 25.48232	712.22998	 28.60	
 15.297	 70.709	 22.22456	 12.09543	  4.12708	 20.81194	 -2.45469	 -1.17315	 25.46838	712.20001	 28.60	
 15.304	 64.289	 22.23425	 13.46608	  3.01633	 20.22948	 -2.07831	 -1.18358	 25.48522	712.23999	 28.60	
 15.309	 57.858	 22.24355	 14.81380	  1.97746	 19.47042	 -1.59038	 -1.16612	 25.49055	712.14001	 28.50	
 15.305	 51.417	 22.24806	 16.07369	  1.04036	 18.54639	 -1.01860	 -1.09347	 25.48201	712.27002	 28.60	
 15.299	 45.015	 22.26649	 17.23911	  0.22137	 17.50542	 -0.28737	 -1.00909	 25.48911	712.22998	 28.50	
 15.293	 38.572	 22.26531	 18.28788	 -0.51174	 16.36335	  0.52306	 -0.94224	 25.47791	712.19000	 28.50	
 15.288	 32.146	 22.29177	 19.21889	 -1.14222	 15.11152	  1.44992	 -0.91862	 25.48449	712.13000	 28.60	
 15.300	 25.739	 22.31841	 20.01848	 -1.64577	 13.79477	  2.47288	 -0.89458	 25.49745	712.13000	 28.50	
 15.307	 19.324	 22.32265	 20.63049	 -2.00923	 12.43008	  3.58921	 -0.89681	 25.47046	712.27002	 28.50	
 15.291	 12.833	 22.38471	 21.10940	 -2.26315	 11.03280	  4.82842	 -0.89274	 25.49957	712.15997	 28.50	
 15.298	  6.413	 22.39630	 21.39546	 -2.45769	  9.60394	  6.12906	 -0.87123	 25.48817	712.21002	 28.50	
 15.300	  0.000	 22.42635	 21.50413	 -2.47967	  8.22830	  7.47194	 -0.84554	 25.47867	712.32001	 28.50	
 15.298	 -6.413	 22.47089	 21.45157	 -2.33523	  6.86215	  8.91372	 -0.83934	 25.49422	712.25000	 28.50	
 15.291	-12.833	 22.50463	 21.22663	 -2.17285	  5.54940	 10.32819	 -0.83801	 25.48792	712.32001	 28.50	
 15.307	-19.324	 22.51961	 20.83751	 -1.94765	  4.32329	 11.73412	 -0.86754	 25.47869	712.26001	 28.50	
 15.300	-25.739	 22.55995	 20.28454	 -1.67744	  3.20118	 13.11375	 -0.87255	 25.49837	712.28998	 28.50	
 15.288	-32.146	 22.59443	 19.54185	 -1.21276	  2.14696	 14.46375	 -0.88382	 25.49424	712.22998	 28.50	
 15.293	-38.572	 22.63696	 18.64937	 -0.57072	  1.21173	 15.72842	 -0.86546	 25.49131	712.32001	 28.50	
 15.299	-45.015	 22.66354	 17.62969	  0.17638	  0.37805	 16.90764	 -0.82485	 25.48732	712.40997	 28.50	
 15.305	-51.417	 22.68155	 16.49566	  0.99407	 -0.31876	 17.95032	 -0.78900	 25.48131	712.33002	 28.50	
 15.309	-57.858	 22.70472	 15.27125	  1.91145	 -0.89908	 18.87788	 -0.77821	 25.48272	712.27002	 28.50	
 15.304	-64.289	 22.73252	 13.95482	  2.96104	 -1.39761	 19.66629	 -0.76532	 25.48977	712.20001	 28.50	
 15.297	-70.709	 22.76476	 12.61748	  4.12352	 -1.78502	 20.26668	 -0.75737	 25.48514	712.28003	 28.50	
 15.293	-77.103	 22.78622	 11.23672	  5.35838	 -2.09261	 20.70273	 -0.73910	 25.47679	712.21997	 28.50	
 15.293	-83.542	 22.81440	  9.82993	  6.66224	 -2.29480	 20.96510	 -0.72687	 25.47584	712.23999	 28.50	
 15.300	-90.000	 22.85413	  8.45724	  8.05464	 -2.32013	 21.05126	 -0.69996	 25.48118	712.41998	 28.50	
 15.293	-96.458	 22.86121	  7.10290	  9.44821	 -2.30927	 20.97396	 -0.68113	 25.48131	712.29999	 28.50	
 15.293	-102.897	 22.88154	  5.77592	 10.86175	 -2.16829	 20.72659	 -0.67584	 25.48596	712.29999	 28.50	
 15.297	-109.291	 22.88656	  4.55997	 12.22780	 -2.00187	 20.29839	 -0.69665	 25.47457	712.29999	 28.50	
 15.304	-115.711	 22.89255	  3.39966	 13.58926	 -1.64602	 19.69358	 -0.69917	 25.46776	712.27002	 28.50	
 15.309	-122.142	 22.93173	  2.34909	 14.93972	 -1.10278	 18.91994	 -0.72345	 25.49113	712.37000	 28.50	
 15.305	-128.583	 22.95095	  1.41149	 16.18988	 -0.45418	 17.98759	 -0.74048	 25.48568	712.34998	 28.50	
 15.299	-134.985	 22.95936	  0.58709	 17.33254	  0.28909	 16.92690	 -0.75479	 25.48471	712.29999	 28.50	
 15.293	-141.428	 22.94661	 -0.09780	 18.35619	  1.08718	 15.75846	 -0.77048	 25.47741	712.28998	 28.50	
 15.288	-147.854	 22.94630	 -0.71491	 19.25229	  2.05287	 14.49833	 -0.80628	 25.49199	712.33002	 28.50	
 15.300	-154.261	 22.92188	 -1.22360	 20.00841	  3.07980	 13.17499	 -0.84689	 25.48282	712.34003	 28.50	
 15.307	-160.676	 22.90033	 -1.65188	 20.59890	  4.19060	 11.81106	 -0.89392	 25.48869	712.35999	 28.40	
 15.291	-167.167	 22.87173	 -1.91780	 20.99595	  5.43807	 10.40688	 -0.94580	 25.48380	712.34998	 28.40	
 15.298	-173.587	 22.84038	 -2.08762	 21.25047	  6.71715	  8.99446	 -0.97060	 25.48778	712.26001	 28.40	
 15.300	180.000	 22.81939	 -2.11089	 21.33186	  8.10869	  7.60683	 -0.98538	 25.48637	712.31000	 28.40	
 17.000	180.000	 22.07297	 -3.64095	 22.15928	  7.46151	  6.99418	 -1.05922	 25.48633	712.32001	 28.40	
 16.990	-174.179	 22.10594	 -3.65038	 22.08713	  6.17191	  8.38138	 -1.03019	 25.48952	712.25000	 28.40	
 17.009	-168.383	 22.12627	 -3.50589	 21.86738	  4.82290	  9.77336	 -0.99321	 25.47768	712.25000	 28.40	
 17.000	-162.596	 22.17395	 -3.22115	 21.50555	  3.66034	 11.15319	 -0.92970	 25.47699	712.28003	 28.40	
 16.990	-156.759	 22.20694	 -2.84903	 20.97632	  2.53764	 12.54867	 -0.87729	 25.49084	712.32001	 28.40	
 16.995	-150.919	 22.21684	 -2.39720	 20.27414	  1.49742	 13.90739	 -0.81037	 25.48104	712.34998	 28.40	
 16.988	-145.161	 22.23363	 -1.87176	 19.47189	  0.55859	 15.17781	 -0.76129	 25.48045	712.35999	 28.40	
 17.014	-139.343	 22.23820	 -1.24626	 18.53181	 -0.35508	 16.43235	 -0.72563	 25.48922	712.29999	 28.40	
 17.007	-133.546	 22.23220	 -0.47734	 17.43903	 -1.13052	 17.58101	 -0.70652	 25.48392	712.25000	 28.40	
 17.001	-127.699	 22.22137	  0.35396	 16.25478	 -1.83884	 18.64240	 -0.69428	 25.47888	712.25000	 28.40	
 17.006	-121.937	 22.21707	  1.25799	 15.01588	 -2.40712	 19.55782	 -0.66574	 25.48638	712.31000	 28.40	
 17.002	-116.134	 22.20354	  2.27048	 13.70333	 -2.84262	 20.33624	 -0.65195	 25.49686	712.32001	 28.40	
 17.001	-110.310	 22.18128	  3.39624	 12.32883	 -3.23560	 20.97980	 -0.64554	 25.49745	712.23999	 28.40	
 16.988	-104.517	 22.14778	  4.58788	 10.93890	 -3.51473	 21.43531	 -0.62175	 25.48072	712.29999	 28.40	
 17.008	-98.662	 22.11677	  5.85105	  9.53360	 -3.70588	 21.76155	 -0.63707	 25.47932	712.28003	 28.40	
 16.996	-92.909	 22.11171	  7.15514	  8.16963	 -3.75194	 21.90997	 -0.64086	 25.49062	712.27002	 28.40	
 16.996	-87.091	 22.08052	  8.52343	  6.73240	 -3.73504	 21.89585	 -0.65283	 25.47195	712.25000	 28.40	
 17.012	-81.253	 22.04881	  9.91251	  5.42087	 -3.68272	 21.74711	 -0.67170	 25.48411	712.27002	 28.40	
 16.988	-75.483	 22.03685	 11.29836	  4.18824	 -3.40757	 21.41322	 -0.70148	 25.48251	712.21997	 28.40	
 17.001	-69.690	 21.99972	 12.67236	  3.01338	 -3.11357	 20.93406	 -0.72578	 25.47344	712.21997	 28.40	
 17.002	-63.866	 21.98214	 14.01774	  1.93642	 -2.73395	 20.30130	 -0.75135	 25.48969	712.21002	 28.40	
 17.006	-58.063	 21.94872	 15.32431	  0.89468	 -2.29197	 19.54425	 -0.76467	 25.48895	712.38000	 28.40	
 17.001	-52.301	 21.90200	 16.53901	 -0.01150	 -1.77277	 18.63354	 -0.79765	 25.46590	712.34003	 28.40	
 17.007	-46.454	 21.89093	 17.72659	 -0.85543	 -1.11711	 17.58572	 -0.85508	 25.47784	712.37000	 28.40	
 17.014	-40.657	 21.85368	 18.80835	 -1.61880	 -0.33752	 16.43095	 -0.89135	 25.48435	712.34998	 28.40	
 16.988	-34.839	 21.82914	 19.74096	 -2.22669	  0.58858	 15.18152	 -0.93794	 25.47894	712.21997	 28.40	
 16.995	-29.081	 21.79883	 20.56192	 -2.75029	  1.53959	 13.89188	 -0.96148	 25.49133	712.38000	 28.40	
 16.990	-23.241	 21.76917	 21.21512	 -3.09749	  2.60789	 12.51441	 -0.96612	 25.49284	712.32001	 28.40	
 17.000	-17.404	 21.73657	 21.71891	 -3.40647	  3.74887	 11.11570	 -0.96968	 25.47988	712.32001	 28.40	
 17.009	-11.617	 21.71547	 22.08768	 -3.65554	  4.94714	  9.74184	 -0.98421	 25.49300	712.19000	 28.40	
 16.990	 -5.821	 21.67707	 22.26618	 -3.78419	  6.26366	  8.31246	 -1.01651	 25.48686	712.16998	 28.30	
 17.000	  0.000	 21.64153	 22.32374	 -3.90187	  7.61404	  6.88723	 -1.05298	 25.47788	712.26001	 28.30	
 16.990	  5.821	 21.60476	 22.21053	 -3.89493	  8.99795	  5.52810	 -1.09320	 25.48421	712.26001	 28.30	
 17.009	 11.617	 21.56356	 21.95196	 -3.74799	 10.41091	  4.22278	 -1.12851	 25.49236	712.22998	 28.30	
 17.000	 17.404	 21.54658	 21.51612	 -3.45447	 11.80286	  3.04117	 -1.14581	 25.47806	712.23999	 28.30	
 16.990	 23.241	 21.52575	 20.95470	 -3.13370	 13.17704	  1.92119	 -1.13883	 25.48828	712.31000	 28.30	
 16.995	 29.081	 21.49031	 20.23968	 -2.75767	 14.51480	  0.87207	 -1.15814	 25.49073	712.21002	 28.30	
 16.988	 34.839	 21.45898	 19.39166	 -2.27120	 15.80041	 -0.09088	 -1.19593	 25.48612	712.28998	 28.30	
 17.014	 40.657	 21.42800	 18.41759	 -1.67440	 17.00699	 -0.98780	 -1.23807	 25.47204	712.15002	 28.30	
 17.007	 46.454	 21.41876	 17.30252	 -0.91955	 18.14102	 -1.78062	 -1.32359	 25.47186	712.28003	 28.30	
 17.001	 52.301	 21.41590	 16.11244	 -0.07056	 19.18326	 -2.43440	 -1.41019	 25.47974	712.22998	 28.30	
 17.006	 58.063	 21.42041	 14.86705	  0.85768	 20.08322	 -2.95653	 -1.48557	 25.49130	712.14001	 28.30	
 17.002	 63.866	 21.42638	 13.54025	  1.88077	 20.83332	 -3.37737	 -1.49066	 25.48912	712.20001	 28.30	
 17.001	 69.690	 21.42699	 12.18811	  2.92958	 21.44747	 -3.75945	 -1.47687	 25.49008	712.26001	 28.30	
 16.988	 75.483	 21.43073	 10.79935	  4.10890	 21.90389	 -4.04108	 -1.46755	 25.48248	712.23999	 28.30	
 17.012	 81.253	 21.42887	  9.39185	  5.31100	 22.21247	 -4.26746	 -1.46657	 25.48249	712.25000	 28.30	
 16.996	 87.091	 21.47133	  8.00041	  6.68827	 22.36210	 -4.35397	 -1.45898	 25.48253	712.27002	 28.30	
 16.996	 92.909	 21.50479	  6.67126	  8.02368	 22.36610	 -4.38787	 -1.48123	 25.48668	712.14001	 28.30	
 17.008	 98.662	 21.51815	  5.33409	  9.41044	 22.20708	 -4.32065	 -1.50453	 25.48681	712.17999	 28.30	
 16.988	104.517	 21.54471	  4.05961	 10.79788	 21.86363	 -4.12670	 -1.49717	 25.46932	712.09003	 28.30	
 17.001	110.310	 21.58634	  2.87318	 12.17302	 21.39399	 -3.83346	 -1.46280	 25.47032	712.20001	 28.30	
 17.002	116.134	 21.63295	  1.76261	 13.53999	 20.77313	 -3.47048	 -1.40889	 25.48496	712.13000	 28.30	
 17.006	121.937	 21.67102	  0.75355	 14.86216	 19.99651	 -2.98109	 -1.38086	 25.50086	712.23999	 28.30	
 17.001	127.699	 21.72018	 -0.11647	 16.10747	 19.09340	 -2.41296	 -1.39210	 25.49919	712.16998	 28.30	
 17.007	133.546	 21.76411	 -0.93294	 17.30472	 18.03799	 -1.72266	 -1.38309	 25.50111	712.21997	 28.30	
 17.014	139.343	 21.78545	 -1.64706	 18.37238	 16.88471	 -0.96609	 -1.40763	 25.47984	712.23999	 28.30	
 16.988	145.161	 21.83009	 -2.23440	 19.34434	 15.66798	 -0.08115	 -1.39450	 25.48549	712.16998	 28.30	
 16.995	150.919	 21.87120	 -2.69382	 20.17519	 14.37541	  0.89007	 -1.36917	 25.48442	712.15997	 28.30	
 16.990	156.759	 21.92679	 -3.03208	 20.87513	 13.02136	  1.98820	 -1.28853	 25.48788	712.17999	 28.30	
 17.000	162.596	 21.96969	 -3.31095	 21.43426	 11.64432	  3.14577	 -1.22403	 25.48338	712.17999	 28.30	
 17.009	168.383	 21.99508	 -3.50666	 21.82893	 10.25904	  4.33621	 -1.15488	 25.47167	712.21997	 28.30	
 16.990	174.179	 22.04354	 -3.62472	 22.07501	  8.87063	  5.60412	 -1.10031	 25.48131	712.29999	 28.30	
 18.709	174.675	 21.21328	 -5.00475	 22.82632	  8.18734	  4.95626	 -1.16207	 25.48281	712.26001	 28.30	
 18.703	169.441	 21.20067	 -4.88159	 22.61875	  9.55915	  3.74645	 -1.24393	 25.49641	712.35999	 28.30	
 18.691	164.085	 21.14983	 -4.65583	 22.23084	 10.95992	  2.57138	 -1.31016	 25.47835	712.25000	 28.30	
 18.706	158.818	 21.12027	 -4.40843	 21.73882	 12.34270	  1.47225	 -1.41502	 25.49741	712.21002	 28.30	
 18.695	153.537	 21.07734	 -4.05605	 21.07157	 13.69683	  0.39900	 -1.47122	 25.48034	712.25000	 28.30	
 18.704	148.255	 21.04354	 -3.63127	 20.30715	 15.02904	 -0.57856	 -1.53073	 25.50013	712.28003	 28.30	
 18.698	142.952	 21.01004	 -3.14748	 19.42638	 16.27781	 -1.44367	 -1.57354	 25.49422	712.19000	 28.30	
 18.699	137.625	 20.95527	 -2.64189	 18.40720	 17.46279	 -2.23149	 -1.59293	 25.48202	712.21002	 28.30	
 18.705	132.343	 20.92465	 -1.99615	 17.32368	 18.59166	 -2.95008	 -1.63369	 25.50909	712.21002	 28.20	
 18.713	127.067	 20.88354	 -1.21084	 16.14387	 19.60979	 -3.57208	 -1.63730	 25.50820	712.14001	 28.20	
 18.700	121.794	 20.84142	 -0.32858	 14.89296	 20.49145	 -4.07845	 -1.64641	 25.50282	712.25000	 28.20	
 18.698	116.504	 20.80450	  0.60522	 13.59369	 21.27269	 -4.56256	 -1.67167	 25.51122	712.14001	 28.20	
 18.707	111.165	 20.74352	  1.69456	 12.22131	 21.95785	 -4.94861	 -1.71754	 25.49861	712.27002	 28.20	
 18.690	105.863	 20.71968	  2.85436	 10.84499	 22.46294	 -5.28113	 -1.75090	 25.50682	712.29999	 28.20	
 18.696	100.583	 20.66358	  4.06199	  9.46510	 22.83692	 -5.50587	 -1.77526	 25.49794	712.17999	 28.20	
 18.700	 95.309	 20.64105	  5.35474	  8.07891	 23.03968	 -5.61358	 -1.76146	 25.51711	712.26001	 28.20	
 18.700	 90.000	 20.61688	  6.68051	  6.75871	 23.12448	 -5.64948	 -1.76657	 25.49195	712.19000	 28.20	
 18.700	 84.691	 20.59134	  7.98632	  5.45053	 23.06682	 -5.59895	 -1.75205	 25.51152	712.17999	 28.20	
 18.696	 79.417	 20.56508	  9.40023	  4.17634	 22.84189	 -5.39646	 -1.75319	 25.49157	712.15002	 28.20	
 18.690	 74.137	 20.54885	 10.79123	  3.01621	 22.50147	 -5.18809	 -1.77753	 25.48226	712.16998	 28.20	
 18.707	 68.835	 20.53653	 12.15796	  1.91031	 22.01249	 -4.92546	 -1.78106	 25.48587	712.23999	 28.20	
 18.698	 63.496	 20.53213	 13.53559	  0.79833	 21.33564	 -4.55133	 -1.78150	 25.47345	712.20001	 28.20	
 18.700	 58.206	 20.54573	 14.85689	 -0.13513	 20.58605	 -4.13117	 -1.76234	 25.47668	712.20001	 28.20	
 18.713	 52.933	 20.55707	 16.11722	 -1.02677	 19.76433	 -3.63460	 -1.72415	 25.50115	712.15997	 28.20	
 18.705	 47.657	 20.55692	 17.31406	 -1.81733	 18.78655	 -3.05615	 -1.64243	 25.49924	712.15997	 28.20	
 18.699	 42.375	 20.58319	 18.44536	 -2.52331	 17.69108	 -2.36760	 -1.57664	 25.50809	712.13000	 28.20	
 18.698	 37.048	 20.59233	 19.47242	 -3.19573	 16.48190	 -1.54923	 -1.52386	 25.49831	712.26001	 28.20	
 18.704	 31.745	 20.60581	 20.36440	 -3.69585	 15.23812	 -0.68480	 -1.46677	 25.49794	712.23999	 28.20	
 18.695	 26.463	 20.63843	 21.13126	 -4.12584	 13.92897	  0.29275	 -1.42305	 25.48640	712.16998	 28.20	
 18.706	 21.182	 20.64824	 21.79715	 -4.50920	 12.55992	  1.33568	 -1.39239	 25.48547	712.23999	 28.20	
 18.691	 15.915	 20.69092	 22.32135	 -4.81875	 11.19666	  2.43294	 -1.34726	 25.49651	712.19000	 28.20	
 18.703	 10.559	 20.68918	 22.70667	 -5.05726	  9.79970	  3.63245	 -1.30937	 25.47500	712.12000	 28.20	
 18.709	  5.325	 20.72534	 22.95091	 -5.14762	  8.33451	  4.94946	 -1.26954	 25.47955	712.10999	 28.20	
 18.700	  0.000	 20.76817	 23.05111	 -5.20232	  6.96609	  6.28141	 -1.21306	 25.47977	712.15002	 28.20	
 18.709	 -5.325	 20.79477	 23.01489	 -5.16540	  5.62374	  7.64841	 -1.16897	 25.48374	712.19000	 28.20	
 18.703	-10.559	 20.82973	 22.84606	 -5.08852	  4.35099	  9.06135	 -1.12189	 25.49105	712.25000	 28.20	
 18.691	-15.915	 20.88140	 22.52374	 -4.86854	  3.15418	 10.44553	 -1.07447	 25.49643	712.23999	 28.20	
 18.706	-21.182	 20.89466	 22.06112	 -4.59664	  2.00824	 11.84527	 -1.04466	 25.48562	712.21002	 28.20	
 18.695	-26.463	 20.93772	 21.44505	 -4.21904	  0.93273	 13.22085	 -1.01885	 25.48548	712.33002	 28.20	
 18.704	-31.745	 20.95313	 20.70349	 -3.80518	 -0.05115	 14.54767	 -0.96919	 25.47806	712.21002	 28.20	
 18.698	-37.048	 20.98411	 19.83975	 -3.30780	 -0.99493	 15.82175	 -0.91635	 25.48427	712.19000	 28.20	
 18.699	-42.375	 21.00321	 18.82655	 -2.67090	 -1.85579	 17.04422	 -0.86370	 25.47267	712.32001	 28.20	
 18.705	-47.657	 21.02891	 17.74000	 -1.95910	 -2.58561	 18.18337	 -0.81754	 25.48560	712.28998	 28.20	
 18.713	-52.933	 21.05945	 16.57555	 -1.15579	 -3.11296	 19.20296	 -0.77754	 25.47510	712.25000	 28.20	
 18.700	-58.206	 21.10586	 15.35765	 -0.25599	 -3.61191	 20.08551	 -0.74809	 25.48092	712.35999	 28.20	
 18.698	-63.496	 21.12346	 14.03435	  0.69467	 -4.07826	 20.86764	 -0.71537	 25.47886	712.26001	 28.20	
 18.707	-68.835	 21.13918	 12.66180	  1.80431	 -4.52179	 21.52841	 -0.68778	 25.48123	712.21002	 28.20	
 18.690	-74.137	 21.18976	 11.30579	  2.97042	 -4.78925	 22.04140	 -0.65881	 25.49342	712.15002	 28.20	
 18.696	-79.417	 21.19721	  9.92858	  4.18572	 -5.00493	 22.40902	 -0.64270	 25.47635	712.15997	 28.20	
 18.700	-84.691	 21.24137	  8.56241	  5.47082	 -5.14236	 22.61960	 -0.62567	 25.48678	712.13000	 28.20	
 18.700	-90.000	 21.25460	  7.18362	  6.77110	 -5.23236	 22.69286	 -0.61907	 25.47594	712.15002	 28.20	
 18.700	-95.309	 21.26546	  5.86788	  8.14480	 -5.23086	 22.63813	 -0.59434	 25.47981	712.28998	 28.20	
 18.696	-100.583	 21.29676	  4.61159	  9.53645	 -5.13924	 22.43772	 -0.58463	 25.48312	712.17999	 28.20	
 18.690	-105.863	 21.33170	  3.40833	 10.92924	 -4.91196	 22.06011	 -0.59622	 25.47686	712.20001	 28.20	
 18.707	-111.165	 21.33362	  2.23911	 12.28618	 -4.65493	 21.56383	 -0.59201	 25.46549	712.22998	 28.20	
 18.698	-116.504	 21.37249	  1.13789	 13.66714	 -4.30551	 20.88898	 -0.59615	 25.48071	712.32001	 28.20	
 18.700	-121.794	 21.40776	  0.16428	 14.99606	 -3.84309	 20.11222	 -0.61381	 25.48468	712.33002	 28.20	
 18.713	-127.067	 21.39852	 -0.75624	 16.24439	 -3.31074	 19.20437	 -0.62400	 25.46035	712.19000	 28.20	
 18.705	-132.343	 21.41568	 -1.56874	 17.43989	 -2.68336	 18.21627	 -0.65069	 25.48464	712.27002	 28.20	
 18.699	-137.625	 21.41972	 -2.28644	 18.54291	 -1.94304	 17.09966	 -0.67607	 25.47845	712.28998	 28.20	
 18.698	-142.952	 21.41777	 -2.94606	 19.54902	 -1.11153	 15.85970	 -0.71368	 25.47291	712.25000	 28.10	
 18.704	-148.255	 21.40107	 -3.52253	 20.43943	 -0.19792	 14.59331	 -0.76724	 25.47703	712.21997	 28.10	
 18.695	-153.537	 21.39536	 -3.97495	 21.19325	  0.79599	 13.28165	 -0.83441	 25.47746	712.37000	 28.10	
 18.706	-158.818	 21.37225	 -4.35770	 21.81557	  1.87245	 11.90494	 -0.87810	 25.47545	712.28998	 28.10	
 18.691	-164.085	 21.34904	 -4.64157	 22.29955	  3.04322	 10.51175	 -0.93826	 25.47837	712.20001	 28.10	
 18.703	-169.441	 21.31149	 -4.87800	 22.65520	  4.24184	  9.11066	 -1.00025	 25.48659	712.26001	 28.10	
 18.709	-174.675	 21.27106	 -5.03745	 22.83500	  5.49447	  7.71358	 -1.05415	 25.46578	712.27002	 28.10	
 18.700	180.000	 21.23886	 -5.09828	 22.89140	  6.82908	  6.36151	 -1.10361	 25.48031	712.32001	 28.10	
 20.400	180.000	 20.35433	 -6.37695	 23.55524	  6.09947	  5.72529	 -1.07972	 25.48049	712.27002	 28.10	
 20.401	-175.153	 20.37711	 -6.30788	 23.50059	  4.80571	  7.06857	 -0.99942	 25.47701	712.31000	 28.10	
 20.407	-170.264	 20.41699	 -6.17832	 23.32564	  3.52626	  8.45387	 -0.93902	 25.49170	712.33002	 28.10	
 20.410	-165.423	 20.44634	 -5.96751	 23.01039	  2.37982	  9.78787	 -0.88345	 25.47020	712.27002	 28.10	
 20.392	-160.496	 20.49007	 -5.69398	 22.56097	  1.26835	 11.20448	 -0.83069	 25.47362	712.25000	 28.10	
 20.401	-155.705	 20.50864	 -5.36321	 22.00893	  0.18986	 12.57411	 -0.79865	 25.47420	712.33002	 28.10	
 20.405	-150.835	 20.53896	 -4.93744	 21.31362	 -0.72824	 13.89546	 -0.75921	 25.47326	712.32001	 28.10	
 20.397	-145.903	 20.56790	 -4.44666	 20.47320	 -1.67277	 15.23807	 -0.71367	 25.47875	712.25000	 28.10	
 20.392	-141.062	 20.56075	 -3.89429	 19.54116	 -2.51592	 16.50298	 -0.67934	 25.47533	712.25000	 28.10	
 20.396	-136.227	 20.57089	 -3.26008	 18.51144	 -3.26328	 17.66186	 -0.63261	 25.48107	712.25000	 28.10	
 20.408	-131.372	 20.56058	 -2.56168	 17.40690	 -3.89725	 18.73700	 -0.62343	 25.47359	712.26001	 28.10	
 20.410	-126.511	 20.54606	 -1.79552	 16.20178	 -4.47436	 19.72870	 -0.59959	 25.46971	712.19000	 28.10	
 20.400	-121.604	 20.53627	 -0.94609	 14.94385	 -4.97151	 20.58582	 -0.57393	 25.47343	712.39001	 28.10	
 20.403	-116.741	 20.49506	  0.00001	 13.62895	 -5.43685	 21.39543	 -0.56295	 25.47885	712.28003	 28.10	
 20.413	-111.900	 20.44974	  1.04982	 12.27970	 -5.79693	 22.04158	 -0.56513	 25.46399	712.45001	 28.10	
 20.398	-107.004	 20.44796	  2.19049	 10.90368	 -6.09503	 22.58177	 -0.56055	 25.48063	712.41998	 28.10	
 20.394	-102.132	 20.43693	  3.37852	  9.53757	 -6.31592	 22.98313	 -0.55078	 25.48440	712.39001	 28.10	
 20.403	-97.332	 20.39840	  4.58519	  8.18433	 -6.43836	 23.22600	 -0.56458	 25.48118	712.37000	 28.10	
 20.392	-92.440	 20.39503	  5.88805	  6.82013	 -6.48076	 23.34783	 -0.57199	 25.47787	712.34998	 28.10	
 20.392	-87.560	 20.37308	  7.18505	  5.47825	 -6.46653	 23.33606	 -0.57475	 25.47405	712.40002	 28.10	
 20.403	-82.668	 20.33204	  8.55850	  4.14902	 -6.40969	 23.22366	 -0.58395	 25.48280	712.34003	 28.10	
 20.394	-77.868	 20.29622	  9.90995	  2.95159	 -6.29243	 22.95156	 -0.60859	 25.47702	712.28003	 28.10	
 20.398	-72.996	 20.27133	 11.27204	  1.77958	 -6.07621	 22.55003	 -0.61516	 25.47995	712.28003	 28.10	
 20.413	-68.100	 20.22352	 12.67050	  0.63054	 -5.80163	 22.03112	 -0.64978	 25.47261	712.26001	 28.10	
 20.403	-63.259	 20.20278	 14.02178	 -0.31306	 -5.43076	 21.35410	 -0.69383	 25.48422	712.19000	 28.10	
 20.400	-58.396	 20.18599	 15.32316	 -1.26504	 -4.99338	 20.56211	 -0.71230	 25.48021	712.31000	 28.10	
 20.410	-53.489	 20.13921	 16.57897	 -2.13891	 -4.46293	 19.62846	 -0.75061	 25.45679	712.34998	 28.10	
 20.408	-48.628	 20.12947	 17.78986	 -2.94682	 -3.86743	 18.63544	 -0.78506	 25.49228	712.42999	 28.10	
 20.396	-43.773	 20.10421	 18.87120	 -3.61997	 -3.20603	 17.52565	 -0.82092	 25.48111	712.32001	 28.10	
 20.392	-38.938	 20.08142	 19.86180	 -4.19777	 -2.47633	 16.36279	 -0.85366	 25.48656	712.37000	 28.10	
 20.397	-34.097	 20.04862	 20.73669	 -4.69293	 -1.62202	 15.12300	 -0.89973	 25.48351	712.29999	 28.10	
 20.405	-29.165	 20.00035	 21.55804	 -5.17913	 -0.68700	 13.78008	 -0.96429	 25.47783	712.32001	 28.10	
 20.401	-24.295	 19.96829	 22.24321	 -5.58033	  0.29165	 12.43544	 -1.01348	 25.47753	712.29999	 28.10	
 20.392	-19.504	 19.94787	 22.79673	 -5.90136	  1.36525	 11.06922	 -1.06197	 25.48586	712.22998	 28.10	
 20.410	-14.577	 19.90217	 23.21566	 -6.16590	  2.51585	  9.65029	 -1.11095	 25.47810	712.23999	 28.10	
 20.407	 -9.736	 19.86708	 23.48216	 -6.34661	  3.70241	  8.29589	 -1.17293	 25.47448	712.21002	 28.10	
 20.401	 -4.847	 19.83318	 23.65305	 -6.50642	  5.02110	  6.91309	 -1.21109	 25.47946	712.21997	 28.10	
 20.400	  0.000	 19.82064	 23.68865	 -6.48915	  6.31409	  5.55802	 -1.27528	 25.48703	712.32001	 28.10	
 20.401	  4.847	 19.78947	 23.60412	 -6.41983	  7.61274	  4.32095	 -1.36811	 25.48253	712.27002	 28.10	
 20.407	  9.736	 19.75471	 23.37878	 -6.32986	  9.04002	  3.06931	 -1.45495	 25.48173	712.16998	 28.10	
 20.410	 14.577	 19.71907	 23.03101	 -6.14950	 10.41383	  1.89614	 -1.51702	 25.48161	712.34003	 28.10	
 20.392	 19.504	 19.69540	 22.53137	 -5.89997	 11.82142	  0.75234	 -1.58102	 25.47800	712.27002	 28.10	
 20.401	 24.295	 19.66424	 21.93596	 -5.58259	 13.18160	 -0.30361	 -1.64016	 25.48452	712.33002	 28.10	
 20.405	 29.165	 19.63244	 21.20655	 -5.19916	 14.50261	 -1.29634	 -1.67776	 25.48330	712.23999	 28.10	
 20.397	 34.097	 19.62085	 20.35150	 -4.73133	 15.79807	 -2.16537	 -1.72850	 25.48050	712.34003	 28.10	
 20.392	 38.938	 19.60622	 19.40730	 -4.25308	 17.01372	 -2.99805	 -1.79834	 25.49603	712.28998	 28.10	
 20.396	 43.773	 19.56543	 18.35553	 -3.65289	 18.15112	 -3.70836	 -1.83395	 25.47538	712.27002	 28.10	
 20.408	 48.628	 19.56133	 17.22935	 -2.97237	 19.21545	 -4.32172	 -1.87414	 25.46731	712.26001	 28.10	
 20.410	 53.489	 19.55630	 16.01595	 -2.21521	 20.20213	 -4.90042	 -1.95048	 25.48119	712.26001	 28.10	
 20.400	 58.396	 19.54584	 14.74111	 -1.38281	 21.07171	 -5.41233	 -1.96786	 25.48176	712.32001	 28.10	
 20.403	 63.259	 19.52551	 13.42198	 -0.45165	 21.81615	 -5.84379	 -1.99604	 25.47045	712.27002	 28.10	
 20.413	 68.100	 19.52739	 12.07668	  0.57085	 22.45927	 -6.19004	 -2.01736	 25.47817	712.27002	 28.10	
 20.398	 72.996	 19.53909	 10.70685	  1.67368	 22.96811	 -6.44122	 -2.01430	 25.47287	712.34998	 28.00	
 20.394	 77.868	 19.54326	  9.35708	  2.80775	 23.34588	 -6.67238	 -2.00740	 25.47102	712.28998	 28.10	
 20.403	 82.668	 19.56752	  7.93515	  4.03536	 23.60839	 -6.87388	 -1.98644	 25.47914	712.33002	 28.00	
 20.392	 87.560	 19.60358	  6.63893	  5.32269	 23.73326	 -6.97594	 -1.97497	 25.48209	712.31000	 28.00	
 20.392	 92.440	 19.62326	  5.36314	  6.63155	 23.71712	 -6.96592	 -1.99464	 25.47137	712.37000	 28.00	
 20.403	 97.332	 19.66467	  4.06484	  7.98158	 23.60140	 -6.92029	 -1.98984	 25.49022	712.33002	 28.00	
 20.394	102.132	 19.68982	  2.83244	  9.34024	 23.33097	 -6.78803	 -1.97142	 25.47469	712.38000	 28.00	
 20.398	107.004	 19.72723	  1.66190	 10.71539	 22.92245	 -6.57145	 -1.95069	 25.47674	712.32001	 28.00	
 20.413	111.900	 19.77958	  0.54418	 12.08900	 22.40929	 -6.27769	 -1.92129	 25.47932	712.34998	 28.00	
 20.403	116.741	 19.82932	 -0.43372	 13.43207	 21.74107	 -5.90531	 -1.89483	 25.48219	712.31000	 28.00	
 20.400	121.604	 19.87601	 -1.30306	 14.72860	 20.96390	 -5.48844	 -1.86233	 25.47073	712.27002	 28.00	
 20.410	126.511	 19.92171	 -2.13399	 16.00755	 20.10299	 -4.99653	 -1.84440	 25.49063	712.29999	 28.00	
 20.408	131.372	 19.95966	 -2.91592	 17.21030	 19.12400	 -4.46896	 -1.79546	 25.48790	712.26001	 28.00	
 20.396	136.227	 19.99832	 -3.60066	 18.33406	 18.05107	 -3.82977	 -1.75186	 25.48934	712.26001	 28.00	
 20.392	141.062	 20.03636	 -4.15568	 19.35572	 16.87885	 -3.05426	 -1.71379	 25.46370	712.32001	 28.00	
 20.397	145.903	 20.07573	 -4.67930	 20.29664	 15.65034	 -2.24480	 -1.64247	 25.46999	712.29999	 28.00	
 20.405	150.835	 20.11444	 -5.15956	 21.15861	 14.34147	 -1.34746	 -1.58543	 25.49169	712.40997	 28.00	
 20.401	155.705	 20.14618	 -5.54537	 21.88072	 12.99695	 -0.35183	 -1.51223	 25.48426	712.29999	 28.00	
 20.392	160.496	 20.20074	 -5.82443	 22.46510	 11.62996	  0.74178	 -1.42568	 25.47910	712.32001	 28.00	
 20.410	165.423	 20.23682	 -6.06108	 22.94324	 10.19168	  1.86234	 -1.34857	 25.48662	712.38000	 28.00	
 20.407	170.264	 20.28494	 -6.22217	 23.28125	  8.83554	  3.03280	 -1.25797	 25.49322	712.40002	 28.00	
 20.401	175.153	 20.31557	 -6.38847	 23.48333	  7.45826	  4.32588	 -1.17624	 25.48391	712.33002	 28.00	
  0.141	 45.000	 25.52614	 10.91164	 10.64281	 11.07832	 10.12570	  0.53999	 25.47333	712.31000	 28.00	
  4.001	128.691	 25.41452	  8.61411	 12.58936	 13.37912	  7.56201	  0.37373	 25.47800	712.33002	 28.00	
  4.002	 76.995	 25.38530	 11.33469	  9.79799	 14.04345	  6.92998	  0.42353	 25.48116	712.32001	 28.00	
  4.002	 25.892	 25.41192	 13.68589	  7.70365	 12.23268	  8.60449	  0.50665	 25.49068	712.34998	 28.00	
  4.002	-25.892	 25.44347	 13.71449	  7.72408	  9.37834	 11.49890	  0.47793	 25.47697	712.37000	 28.00	
  4.002	-76.995	 25.47876	 11.44702	  9.84434	  7.67515	 13.39017	  0.40640	 25.48723	712.27002	 28.00	
  4.001	-128.691	 25.48498	  8.71297	 12.61702	  8.26746	 12.68148	  0.34792	 25.48497	712.32001	 28.00	
  4.000	180.000	 25.44368	  7.50946	 13.88231	 10.75294	 10.05332	  0.32348	 25.47765	712.38000	 28.00	
  8.000	180.000	 24.96933	  4.18571	 16.84339	 10.12058	  9.48039	 -0.09867	 25.48529	712.42999	 28.00	
  7.991	-152.370	 25.03762	  4.86249	 16.02118	  7.17639	 12.62808	 -0.15828	 25.48784	712.41998	 28.00	
  7.997	-124.550	 25.06259	  6.70647	 13.81623	  5.15284	 15.16801	 -0.14909	 25.48606	712.37000	 28.00	
  8.006	-96.837	 25.03873	  9.47515	 10.76129	  4.18474	 16.42133	 -0.04840	 25.47818	712.34998	 28.00	
  7.988	-69.228	 25.00268	 12.60503	  7.74889	  4.50328	 15.98269	 -0.00340	 25.48479	712.34998	 28.00	
  7.997	-41.563	 24.95314	 15.30375	  5.43453	  6.05755	 14.02984	  0.02108	 25.48609	712.37000	 28.00	
  8.008	-13.821	 24.88622	 16.85553	  4.14332	  8.62016	 11.05915	  0.09093	 25.48619	712.35999	 28.00	
  8.008	 13.821	 24.81292	 16.80075	  4.07353	 11.76445	  7.89267	  0.10162	 25.48420	712.39001	 28.00	
  7.997	 41.563	 24.76669	 15.13875	  5.31186	 14.74165	  5.25373	  0.07433	 25.48018	712.40997	 28.00	
  7.988	 69.228	 24.75537	 12.34894	  7.65649	 16.66281	  3.72298	 -0.02282	 25.49635	712.16998	 28.00	
  8.006	 96.837	 24.76227	  9.17737	 10.72006	 17.06231	  3.45333	 -0.11077	 25.47863	712.14001	 28.00	
  7.997	124.550	 24.83687	  6.40233	 13.77260	 15.82476	  4.42971	 -0.12225	 25.48440	712.23999	 28.00	
  7.991	152.370	 24.89735	  4.71161	 15.99682	 13.27193	  6.52228	 -0.16934	 25.48363	712.25000	 28.00	
 12.009	161.059	 23.88483	  0.87678	 18.87144	 12.42173	  5.43901	 -0.71587	 25.47578	712.26001	 28.00	
 12.013	142.081	 23.79268	  1.92098	 17.16688	 15.49004	  2.90976	 -0.73692	 25.48237	712.28998	 28.00	
 12.006	123.113	 23.71130	  3.92455	 14.54601	 17.94810	  1.07531	 -0.68843	 25.48436	712.27002	 28.00	
 12.007	104.200	 23.63629	  6.64750	 11.44005	 19.39129	  0.08625	 -0.72236	 25.47404	712.29999	 28.00	
 11.989	 85.301	 23.59573	  9.77208	  8.23296	 19.69575	 -0.09249	 -0.66415	 25.49454	712.21002	 28.00	
 12.013	 66.294	 23.55721	 13.04705	  5.18814	 18.85341	  0.44501	 -0.65859	 25.48833	712.26001	 28.00	
 12.012	 47.388	 23.56900	 15.99633	  2.83806	 16.91517	  1.81537	 -0.54870	 25.49066	712.26001	 28.00	
 11.990	 28.440	 23.62182	 18.24518	  1.23610	 14.10921	  4.04279	 -0.43373	 25.48017	712.20001	 28.00	
 11.991	  9.464	 23.68820	 19.47205	  0.47272	 10.88945	  6.92631	 -0.44307	 25.46935	712.15002	 28.00	
 11.991	 -9.464	 23.75556	 19.53809	  0.52242	  7.67320	 10.14014	 -0.44435	 25.47330	712.20001	 28.00	
 11.990	-28.440	 23.84100	 18.46895	  1.24975	  4.86295	 13.37462	 -0.53778	 25.48484	712.22998	 28.00	
 12.012	-47.388	 23.90107	 16.33138	  2.86793	  2.65141	 16.22803	 -0.56937	 25.47764	712.28998	 28.00	
 12.013	-66.294	 23.99506	 13.46137	  5.28997	  1.24969	 18.21745	 -0.60888	 25.49485	712.20001	 28.00	
 11.989	-85.301	 24.05415	 10.20758	  8.32139	  0.60899	 19.10565	 -0.62256	 25.49162	712.21997	 28.00	
 12.007	-104.200	 24.09006	  7.05820	 11.52383	  0.74287	 18.83445	 -0.59543	 25.49299	712.16998	 28.00	
 12.006	-123.113	 24.10466	  4.38501	 14.63166	  1.71876	 17.36795	 -0.63704	 25.48684	712.27002	 28.00	
 12.013	-142.081	 24.08600	  2.32509	 17.24183	  3.50111	 14.91965	 -0.64089	 25.48450	712.21002	 28.00	
 12.009	-161.059	 24.05708	  1.12920	 18.90417	  6.06523	 11.85529	 -0.69434	 25.48867	712.19000	 28.00	
 16.000	180.000	 22.51627	 -2.68462	 21.65880	  7.88864	  7.34314	 -1.03596	 25.48139	712.23999	 28.00	
 15.990	-165.604	 22.59802	 -2.45520	 21.24169	  4.80186	 10.62496	 -0.98053	 25.48424	712.19000	 28.00	
 16.002	-151.165	 22.64992	 -1.59481	 19.94677	  2.13528	 13.84144	 -0.85427	 25.48770	712.23999	 28.00	
 16.002	-136.836	 22.66290	 -0.14181	 17.83180	  0.05358	 16.72776	 -0.77528	 25.47075	712.14001	 28.00	
 15.995	-122.439	 22.65204	  1.84077	 15.06342	 -1.54591	 19.12958	 -0.72396	 25.49909	712.29999	 28.00	
 15.993	-107.966	 22.61876	  4.41891	 11.89799	 -2.50919	 20.71559	 -0.69300	 25.48042	712.15997	 28.00	
 16.005	-93.629	 22.56657	  7.37738	  8.66210	 -2.86871	 21.40340	 -0.68576	 25.49553	712.27002	 28.00	
 15.992	-79.234	 22.50519	 10.62527	  5.46666	 -2.73486	 21.16030	 -0.74467	 25.49017	712.15997	 28.00	
 16.009	-64.774	 22.44458	 13.84412	  2.70003	 -1.97729	 20.01716	 -0.77850	 25.48813	712.28998	 28.00	
 15.997	-50.364	 22.38320	 16.80753	  0.41907	 -0.75261	 18.01336	 -0.84322	 25.49341	712.31000	 28.00	
 15.997	-36.045	 22.30510	 19.25654	 -1.32990	  1.08673	 15.34069	 -0.92833	 25.49295	712.25000	 28.00	
 16.000	-21.597	 22.22632	 20.95097	 -2.41785	  3.51154	 12.19452	 -0.94503	 25.49039	712.21997	 28.00	
 16.003	 -7.169	 22.15748	 21.76518	 -2.91386	  6.39609	  8.90902	 -0.94034	 25.47888	712.17999	 28.00	
 16.003	  7.169	 22.05975	 21.70948	 -3.05962	  9.59758	  5.65051	 -0.99748	 25.47848	712.27002	 28.00	
 16.000	 21.597	 22.00632	 20.71699	 -2.44236	 12.87713	  2.80142	 -1.01507	 25.47549	712.25000	 28.00	
 15.997	 36.045	 21.94105	 18.88656	 -1.35156	 15.97400	  0.39913	 -1.07796	 25.48455	712.17999	 28.00	
 15.997	 50.364	 21.91418	 16.37510	  0.36638	 18.60394	 -1.47327	 -1.24175	 25.49605	712.17999	 28.00	
 16.009	 64.774	 21.88089	 13.33875	  2.64350	 20.56892	 -2.68951	 -1.34566	 25.47510	712.14001	 28.00	
 15.992	 79.234	 21.91335	 10.10055	  5.37658	 21.67224	 -3.41966	 -1.31481	 25.48904	712.28003	 28.00	
 16.005	 93.629	 21.98081	  6.90419	  8.53582	 21.88857	 -3.57973	 -1.34978	 25.49661	712.25000	 28.00	
 15.993	107.966	 22.03946	  3.88582	 11.76831	 21.19114	 -3.15276	 -1.36338	 25.48505	712.21002	 28.00	
 15.995	122.439	 22.13203	  1.32305	 14.92857	 19.58823	 -2.12983	 -1.26660	 25.49027	712.29999	 28.00	
 16.002	136.836	 22.23886	 -0.58954	 17.69994	 17.20853	 -0.50869	 -1.29484	 25.49294	712.25000	 28.00	
 16.002	151.165	 22.32454	 -1.91080	 19.84624	 14.31651	  1.60366	 -1.29248	 25.48546	712.34003	 28.00	
 15.990	165.604	 22.42669	 -2.59482	 21.19288	 11.13958	  4.22079	 -1.11552	 25.48689	712.32001	 28.00	
 20.003	168.362	 20.49047	 -5.84203	 23.01973	  9.48491	  2.80404	 -1.28376	 25.48733	712.31000	 28.00	
 20.008	156.764	 20.38658	 -5.27821	 21.90208	 12.69650	  0.26563	 -1.49928	 25.47632	712.28003	 28.00	
 20.000	145.147	 20.32328	 -4.29211	 20.10191	 15.82649	 -1.93661	 -1.66270	 25.48727	712.32001	 28.00	
 19.995	133.545	 20.21433	 -2.94403	 17.70170	 18.53182	 -3.69940	 -1.76019	 25.47043	712.26001	 28.00	
 20.009	121.926	 20.13138	 -1.15380	 14.89194	 20.80790	 -4.99961	 -1.83610	 25.49380	712.21002	 28.00	
 20.005	110.327	 20.01351	  1.09443	 11.78408	 22.46132	 -5.97255	 -1.90459	 25.48998	712.35999	 28.00	
 19.989	 98.733	 19.92368	  3.87762	  8.58625	 23.38828	 -6.48705	 -1.95397	 25.48270	712.26001	 28.00	
 19.999	 87.075	 19.84349	  6.89793	  5.47826	 23.58317	 -6.59893	 -1.95296	 25.48453	712.25000	 28.00	
 19.992	 75.457	 19.80683	 10.11895	  2.60120	 23.07237	 -6.21128	 -1.97712	 25.48894	712.29999	 28.00	
 20.009	 63.844	 19.78889	 13.29654	  0.09538	 21.79411	 -5.55457	 -1.97586	 25.47975	712.25000	 28.00	
 19.989	 52.269	 19.82967	 16.31883	 -1.97928	 19.90106	 -4.43590	 -1.90122	 25.49130	712.26001	 28.00	
 19.999	 40.602	 19.83063	 18.98903	 -3.65172	 17.41374	 -2.99658	 -1.76668	 25.48541	712.22998	 28.00	
 20.004	 29.051	 19.87187	 21.12377	 -4.88729	 14.52243	 -1.02313	 -1.65032	 25.49330	712.34003	 28.00	
 20.005	 17.433	 19.94291	 22.63671	 -5.71753	 11.32064	  1.43371	 -1.52891	 25.48325	712.25000	 28.00	
 20.006	  5.780	 20.01244	 23.41709	 -6.10406	  8.07316	  4.26766	 -1.40193	 25.47932	712.28003	 28.00	
 20.006	 -5.780	 20.07452	 23.49895	 -6.18110	  4.93604	  7.31313	 -1.21779	 25.47682	712.13000	 28.00	
 20.005	-17.433	 20.15686	 22.85979	 -5.74476	  2.08585	 10.53750	 -1.11814	 25.47598	712.22998	 28.00	
 20.004	-29.051	 20.22664	 21.46743	 -4.97470	 -0.40991	 13.74693	 -0.96734	 25.47731	712.20001	 28.00	
 19.999	-40.602	 20.30030	 19.40853	 -3.75064	 -2.52865	 16.75022	 -0.86079	 25.49294	712.27002	 28.00	
 19.989	-52.269	 20.38490	 16.79650	 -2.08425	 -3.97566	 19.31686	 -0.76563	 25.47945	712.19000	 28.00	
 20.009	-63.844	 20.43002	 13.83701	 -0.01519	 -5.21183	 21.33410	 -0.70136	 25.48097	712.21997	 28.00	
 19.992	-75.457	 20.50305	 10.67239	  2.59389	 -5.89794	 22.62940	 -0.62836	 25.47717	712.27002	 28.00	
 19.999	-87.075	 20.57538	  7.45660	  5.51242	 -6.16295	 23.18537	 -0.59843	 25.48058	712.27002	 28.00	
 19.989	-98.733	 20.62707	  4.43077	  8.71586	 -6.11631	 23.02893	 -0.56700	 25.48340	712.16998	 28.00	
 20.005	-110.327	 20.66923	  1.64297	 11.89759	 -5.64553	 22.11710	 -0.57911	 25.48441	712.12000	 28.00	
 20.009	-121.926	 20.74176	 -0.73663	 15.02846	 -4.69625	 20.45013	 -0.60005	 25.47383	712.15997	 27.90	
 19.995	-133.545	 20.76615	 -2.62833	 17.85970	 -3.35878	 18.19594	 -0.65867	 25.46519	712.23999	 28.00	
 20.000	-145.147	 20.76697	 -4.11562	 20.25560	 -1.54696	 15.42771	 -0.73088	 25.46850	712.20001	 27.90	
 20.008	-156.764	 20.71550	 -5.17242	 22.01736	  0.70054	 12.30036	 -0.82402	 25.48077	712.17999	 27.90	
 20.003	-168.362	 20.66134	 -5.75643	 23.07435	  3.36410	  9.08454	 -0.93426	 25.48053	712.35999	 28.00	
 20.000	180.000	 20.58644	 -6.02684	 23.40049	  6.30012	  5.86187	 -1.09864	 25.49341	712.21002	 28.00	
