FileType=PCF
NHL=14
Date=03/12/19	10:59:29
Facility=APL
Serial=16071-11
Customer=NASA
NP=6
Mach=0.300000
Calibration=1:1
CalPts=490
TstPts=95
PortNumbering=AP Standard
Units=Torr C m/s kg/m^3 deg mm 
Theta[deg]	Phi[deg]	P1[Torr]	P2[Torr]	P3[Torr]	P4[Torr]	P5[Torr]	P6[Torr]	Pt[Torr]	Ps[Abs,Torr]	Ts[C]	
  0.000	  0.000	 42.63375	 18.40357	 18.19898	 18.57765	 17.33550	  0.88101	 42.54848	712.28998	 34.80	
  1.691	128.401	 42.60826	 16.82773	 19.58920	 20.32523	 15.46163	  0.83618	 42.53402	712.35999	 34.80	
  1.692	 77.194	 42.60020	 18.77846	 17.59879	 20.81693	 14.88302	  0.88747	 42.52522	712.29999	 34.80	
  1.699	 26.182	 42.58644	 20.43811	 15.99788	 19.56292	 16.18487	  0.91448	 42.52152	712.26001	 34.70	
  1.699	-26.182	 42.61156	 20.50897	 16.04213	 17.51179	 18.29754	  0.89481	 42.53589	712.28998	 34.70	
  1.692	-77.194	 42.60892	 18.90852	 17.63621	 16.18257	 19.62677	  0.83328	 42.53311	712.16998	 34.70	
  1.691	-128.401	 42.61626	 16.91590	 19.62427	 16.62634	 19.14742	  0.79134	 42.53884	712.26001	 34.60	
  1.700	180.000	 42.61760	 15.98518	 20.53167	 18.46371	 17.26140	  0.79324	 42.54277	712.25000	 34.60	
  3.400	180.000	 42.52351	 13.43246	 22.75861	 18.22112	 17.04913	  0.62482	 42.51206	712.23999	 34.60	
  3.388	-152.325	 42.54209	 14.02241	 22.21234	 16.07901	 19.28028	  0.63092	 42.50844	712.28998	 34.50	
  3.397	-124.529	 42.57129	 15.51460	 20.69190	 14.40448	 21.11323	  0.65670	 42.53018	712.28003	 34.50	
  3.399	-96.763	 42.54469	 17.65509	 18.52346	 13.60987	 21.91454	  0.69172	 42.50042	712.21997	 34.50	
  3.394	-69.283	 42.54808	 19.90098	 16.34805	 13.91990	 21.62826	  0.74416	 42.50367	712.29999	 34.50	
  3.400	-41.398	 42.54044	 21.82863	 14.49892	 15.17519	 20.28522	  0.80728	 42.51164	712.22998	 34.40	
  3.401	-14.021	 42.51156	 22.87171	 13.45304	 17.22075	 18.23564	  0.86124	 42.52103	712.16998	 34.40	
  3.401	 14.021	 42.45748	 22.80502	 13.38760	 19.48332	 15.85415	  0.87541	 42.48811	712.09003	 34.40	
  3.400	 41.398	 42.44250	 21.65779	 14.39715	 21.50842	 13.78908	  0.86936	 42.48726	712.08002	 34.30	
  3.394	 69.283	 42.41286	 19.68093	 16.21310	 22.82554	 12.51060	  0.83106	 42.47247	712.28998	 34.30	
  3.399	 96.763	 42.40847	 17.43882	 18.42353	 23.08241	 12.25710	  0.77170	 42.47105	712.27002	 34.30	
  3.397	124.529	 42.43203	 15.36345	 20.58499	 22.21579	 13.09695	  0.71175	 42.45793	712.28003	 34.20	
  3.388	152.325	 42.45393	 13.84723	 22.15499	 20.42522	 14.84470	  0.64972	 42.46743	712.33002	 34.20	
  5.099	161.165	 42.23917	 11.28209	 24.45482	 20.16318	 14.33615	  0.41040	 42.45877	712.33002	 34.20	
  5.109	142.013	 42.20617	 12.20623	 23.28580	 22.34718	 12.27888	  0.45209	 42.47402	712.27002	 34.20	
  5.095	123.033	 42.15747	 13.71415	 21.51799	 23.99962	 10.94362	  0.51289	 42.44614	712.22998	 34.10	
  5.105	104.191	 42.10271	 15.85658	 19.29956	 25.00655	 10.05816	  0.54568	 42.43581	712.22998	 34.10	
  5.093	 85.207	 42.11959	 18.21336	 16.96746	 25.25115	  9.89424	  0.62079	 42.47258	712.21002	 34.10	
  5.104	 66.290	 42.12871	 20.53948	 14.75150	 24.68752	 10.40051	  0.67357	 42.48305	712.16998	 34.10	
  5.094	 47.331	 42.10326	 22.60769	 12.87834	 23.34033	 11.54415	  0.72242	 42.44479	712.25000	 34.00	
  5.089	 28.397	 42.13549	 24.10077	 11.61376	 21.42887	 13.24365	  0.75362	 42.44028	712.27002	 34.00	
  5.096	  9.576	 42.17854	 24.94126	 10.92630	 19.22354	 15.47365	  0.74300	 42.45345	712.23999	 34.00	
  5.096	 -9.576	 42.22354	 25.01561	 10.95109	 16.92978	 17.87971	  0.71968	 42.45731	712.29999	 34.00	
  5.089	-28.397	 42.27047	 24.28082	 11.67282	 14.73835	 20.20370	  0.67969	 42.46605	712.28003	 33.90	
  5.094	-47.331	 42.28053	 22.84083	 13.00025	 12.81254	 22.13156	  0.62072	 42.45120	712.21997	 33.90	
  5.104	-66.290	 42.30167	 20.82210	 14.84305	 11.60813	 23.46452	  0.56876	 42.44715	712.28003	 33.90	
  5.093	-85.207	 42.32517	 18.57327	 17.02751	 11.05767	 24.04798	  0.51995	 42.44677	712.20001	 33.80	
  5.105	-104.191	 42.35638	 16.23347	 19.41007	 11.20664	 23.86232	  0.46982	 42.45481	712.12000	 33.80	
  5.095	-123.033	 42.33094	 14.03119	 21.53965	 12.11302	 22.85501	  0.43234	 42.43454	712.14001	 33.80	
  5.109	-142.013	 42.30844	 12.33295	 23.30719	 13.59654	 21.20418	  0.41643	 42.42992	712.10999	 33.80	
  5.099	-161.165	 42.27525	 11.31424	 24.45937	 15.58913	 18.97275	  0.39872	 42.41273	712.03998	 33.70	
  5.100	180.000	 42.23532	 10.99188	 24.84326	 17.83755	 16.70927	  0.39462	 42.41800	712.19000	 33.70	
  6.800	180.000	 41.90568	  8.62459	 26.86117	 17.38299	 16.26442	  0.11455	 42.42227	712.17999	 33.70	
  6.796	-166.229	 41.95996	  8.88800	 26.60090	 15.18182	 18.58381	  0.10201	 42.44197	712.06000	 33.70	
  6.808	-152.311	 41.99372	  9.59668	 25.76392	 13.07601	 20.82731	  0.11838	 42.42741	712.17999	 33.60	
  6.795	-138.383	 42.01310	 10.82750	 24.40977	 11.37359	 22.75540	  0.14382	 42.41901	712.20001	 33.60	
  6.792	-124.591	 42.00879	 12.31838	 22.65121	 10.03987	 24.29462	  0.06162	 42.39799	712.32001	 33.60	
  6.787	-110.754	 41.99743	 14.24512	 20.60038	  9.15889	 25.39814	  0.16549	 42.40239	712.15997	 33.60	
  6.800	-96.985	 42.00602	 16.46240	 18.38165	  8.66983	 26.01517	  0.19135	 42.42088	712.10999	 33.60	
  6.800	-83.015	 41.97913	 18.74834	 16.09050	  8.67931	 26.00392	  0.22054	 42.41962	712.20001	 33.50	
  6.787	-69.246	 41.96792	 20.96469	 13.96246	  9.16223	 25.43068	  0.27294	 42.42209	712.21002	 33.50	
  6.792	-55.409	 41.91724	 23.05766	 12.08231	 10.06142	 24.34118	  0.33857	 42.40637	712.19000	 33.50	
  6.795	-41.617	 41.87646	 24.74920	 10.53993	 11.43640	 22.78944	  0.38527	 42.39537	712.10999	 33.50	
  6.808	-27.689	 41.81821	 26.01730	  9.35210	 13.28639	 20.81464	  0.43026	 42.39096	712.17999	 33.40	
  6.796	-13.771	 41.79159	 26.79452	  8.64879	 15.39822	 18.54829	  0.39917	 42.40640	712.37000	 33.40	
  6.800	  0.000	 41.72604	 27.05263	  8.33799	 17.66305	 16.12930	  0.52416	 42.39859	712.26001	 33.40	
  6.796	 13.771	 41.70382	 26.68287	  8.62349	 19.92406	 13.88836	  0.40856	 42.40328	712.33002	 33.40	
  6.808	 27.689	 41.66901	 25.82168	  9.26100	 22.09701	 11.91196	  0.52703	 42.41866	712.34998	 33.40	
  6.795	 41.617	 41.62830	 24.45656	 10.38561	 23.99254	 10.23473	  0.36619	 42.40514	712.17999	 33.40	
  6.792	 55.409	 41.60364	 22.68642	 11.90094	 25.51741	  8.90868	  0.46056	 42.39143	712.27002	 33.40	
  6.787	 69.246	 41.61348	 20.58514	 13.80434	 26.62696	  7.98731	  0.29114	 42.41404	712.27002	 33.40	
  6.800	 83.015	 41.59354	 18.28044	 15.95082	 27.22545	  7.48280	  0.32148	 42.40127	712.37000	 33.30	
  6.800	 96.985	 41.60078	 15.95154	 18.27626	 27.18099	  7.53635	  0.26407	 42.38339	712.35999	 33.30	
  6.787	110.754	 41.66387	 13.80012	 20.51749	 26.56365	  8.03480	  0.26562	 42.42086	712.26001	 33.30	
  6.792	124.591	 41.69328	 11.95796	 22.57906	 25.40355	  8.90188	  0.13592	 42.39589	712.29999	 33.30	
  6.795	138.383	 41.72773	 10.53829	 24.30701	 23.88081	 10.17858	  0.18025	 42.38559	712.34003	 33.30	
  6.808	152.311	 41.79624	  9.46527	 25.69382	 21.94042	 11.92786	  0.14099	 42.40927	712.27002	 33.30	
  6.796	166.229	 41.84919	  8.83715	 26.54937	 19.64494	 13.89174	  0.05083	 42.41140	712.28003	 33.30	
  8.491	168.704	 41.36155	  6.44363	 28.52486	 19.20382	 13.33795	 -0.29270	 42.40769	712.31000	 33.20	
  8.502	157.493	 41.27800	  6.87593	 27.79475	 21.53793	 11.38465	 -0.40530	 42.38900	712.29999	 33.20	
  8.494	146.194	 41.24996	  7.75609	 26.61396	 23.67317	  9.46935	 -0.16622	 42.40602	712.38000	 33.20	
  8.495	135.039	 41.20284	  8.94941	 25.12732	 25.42292	  7.92872	 -0.13129	 42.40841	712.29999	 33.20	
  8.487	123.723	 41.13803	 10.46651	 23.25164	 27.02098	  6.66953	 -0.31316	 42.41037	712.26001	 33.20	
  8.492	112.575	 41.07273	 12.17884	 21.18390	 28.20480	  5.79796	 -0.24507	 42.39983	712.35999	 33.20	
  8.510	101.220	 41.01175	 14.24274	 18.86954	 28.99808	  5.20788	 -0.08759	 42.40395	712.40002	 33.20	
  8.500	 90.000	 40.98610	 16.55068	 16.55607	 29.27299	  5.01643	 -0.22812	 42.39124	712.29999	 33.10	
  8.510	 78.780	 40.96297	 18.89899	 14.26948	 29.06669	  5.13745	 -0.16466	 42.40348	712.37000	 33.10	
  8.492	 67.425	 40.96485	 21.25506	 12.13475	 28.30705	  5.68743	 -0.13499	 42.40408	712.28998	 33.10	
  8.487	 56.277	 40.96568	 23.33913	 10.30812	 27.14389	  6.65982	 -0.09695	 42.38370	712.32001	 33.10	
  8.495	 44.961	 41.01891	 25.21353	  8.73254	 25.59356	  7.94720	 -0.01738	 42.41468	712.34998	 33.10	
  8.494	 33.806	 41.02078	 26.72515	  7.48077	 23.79703	  9.45833	  0.04686	 42.38771	712.38000	 33.10	
  8.502	 22.507	 41.04815	 27.94973	  6.54822	 21.70996	 11.29844	  0.05951	 42.38103	712.35999	 33.00	
  8.491	 11.296	 41.10077	 28.72660	  6.05961	 19.44242	 13.37470	  0.05416	 42.38590	712.37000	 33.00	
  8.500	  0.000	 41.15283	 29.06163	  5.88872	 17.13967	 15.53538	  0.06206	 42.40341	712.35999	 33.00	
  8.491	-11.296	 41.20381	 28.84198	  6.12050	 14.82740	 18.01063	  0.04228	 42.38958	712.34998	 33.00	
  8.502	-22.507	 41.26091	 28.17348	  6.67254	 12.64845	 20.36680	 -0.01787	 42.39506	712.37000	 33.00	
  8.494	-33.806	 41.29479	 27.00608	  7.60250	 10.74277	 22.49208	 -0.07008	 42.37496	712.32001	 33.00	
  8.495	-44.961	 41.36444	 25.54626	  8.87859	  9.20609	 24.34846	 -0.10572	 42.38614	712.37000	 33.00	
  8.487	-56.277	 41.38917	 23.75767	 10.46764	  7.89411	 25.91080	 -0.06019	 42.36966	712.28998	 33.00	
  8.492	-67.425	 41.42379	 21.72031	 12.29095	  6.98868	 27.06781	 -0.08749	 42.39209	712.40002	 32.90	
  8.510	-78.780	 41.44902	 19.46513	 14.37321	  6.40752	 27.85174	 -0.15139	 42.38344	712.50000	 32.90	
  8.500	-90.000	 41.46384	 17.15899	 16.63735	  6.21529	 28.07080	 -0.14519	 42.37290	712.42999	 32.90	
  8.510	-101.220	 41.47640	 14.84983	 19.00459	  6.37612	 27.83601	 -0.30506	 42.36081	712.46002	 32.90	
  8.492	-112.575	 41.52363	 12.69079	 21.31394	  6.99473	 27.04832	 -0.22353	 42.37872	712.40997	 32.90	
  8.487	-123.723	 41.51205	 10.90489	 23.34850	  7.84100	 25.84553	 -0.33195	 42.35219	712.45001	 32.90	
  8.495	-135.039	 41.52622	  9.34326	 25.20706	  9.07032	 24.34384	 -0.24514	 42.37351	712.29999	 32.90	
  8.494	-146.194	 41.48903	  8.05007	 26.68224	 10.57381	 22.49204	 -0.20856	 42.35663	712.34003	 32.90	
  8.502	-157.493	 41.45527	  7.01233	 27.84115	 12.41869	 20.39323	 -0.38903	 42.37558	712.34998	 32.90	
  8.491	-168.704	 41.40798	  6.45431	 28.54765	 14.56015	 18.08187	 -0.38622	 42.35528	712.32001	 32.80	
  8.500	180.000	 41.37280	  6.26536	 28.78309	 16.87857	 15.55667	 -0.23493	 42.37976	712.34998	 32.80	
 10.200	180.000	 40.73304	  3.79233	 30.63527	 16.19251	 14.96379	 -0.68680	 42.36383	712.28998	 32.80	
 10.191	-170.497	 40.78016	  3.98874	 30.42280	 13.88806	 17.42332	 -0.82015	 42.35507	712.34003	 32.80	
 10.210	-161.034	 40.81038	  4.43653	 29.84188	 11.68302	 19.85864	 -0.80895	 42.34887	712.34003	 32.80	
 10.194	-151.526	 40.86796	  5.31590	 28.81708	  9.83161	 22.09288	 -0.75825	 42.35125	712.27002	 32.80	
 10.190	-142.105	 40.89672	  6.41106	 27.47986	  8.17663	 24.08267	 -0.71133	 42.36116	712.27002	 32.80	
 10.215	-132.646	 40.89091	  7.71449	 25.83118	  6.69034	 25.81852	 -0.73163	 42.34601	712.28998	 32.80	
 10.203	-123.092	 40.90599	  9.34111	 23.91113	  5.52676	 27.43010	 -0.75962	 42.36351	712.20001	 32.70	
 10.192	-113.678	 40.86170	 11.12356	 21.81889	  4.69563	 28.61150	 -0.73772	 42.33451	712.31000	 32.70	
 10.208	-104.249	 40.87281	 13.13097	 19.56791	  4.12477	 29.49654	 -0.69144	 42.36775	712.31000	 32.70	
 10.210	-94.801	 40.85906	 15.39818	 17.20907	  3.85371	 29.91641	 -0.68115	 42.37248	712.39001	 32.70	
 10.210	-85.199	 40.83093	 17.77709	 14.85286	  3.86302	 29.91918	 -0.69001	 42.36638	712.34998	 32.70	
 10.208	-75.751	 40.77303	 20.08933	 12.63018	  4.13707	 29.48523	 -0.66985	 42.34767	712.42999	 32.70	
 10.192	-66.322	 40.72925	 22.32384	 10.58542	  4.72879	 28.64338	 -0.64650	 42.33984	712.44000	 32.70	
 10.203	-56.908	 40.71090	 24.39972	  8.78496	  5.60356	 27.44488	 -0.54476	 42.36420	712.31000	 32.70	
 10.215	-47.354	 40.65707	 26.23251	  7.18641	  6.81495	 25.87380	 -0.55674	 42.36167	712.40997	 32.60	
 10.190	-37.895	 40.61583	 27.87392	  5.84970	  8.34843	 24.02585	 -0.52631	 42.36284	712.40997	 32.60	
 10.194	-28.474	 40.56978	 29.20550	  4.86554	 10.01090	 22.00674	 -0.48491	 42.36382	712.42999	 32.60	
 10.210	-18.966	 40.49174	 30.17295	  4.08774	 11.89386	 19.79734	 -0.41231	 42.35474	712.41998	 32.60	
 10.191	 -9.503	 40.45365	 30.72771	  3.61892	 14.13200	 17.37876	 -0.32486	 42.36137	712.40997	 32.60	
 10.200	  0.000	 40.38718	 30.89032	  3.40225	 16.46886	 14.94185	 -0.31277	 42.34630	712.46997	 32.60	
 10.191	  9.503	 40.33789	 30.62478	  3.51655	 18.82778	 12.80194	 -0.32270	 42.35902	712.53003	 32.60	
 10.210	 18.966	 40.28348	 29.97850	  3.92374	 21.16183	 10.62607	 -0.32925	 42.35988	712.40997	 32.60	
 10.194	 28.474	 40.24897	 28.89129	  4.63480	 23.33635	  8.68784	 -0.32315	 42.36357	712.44000	 32.60	
 10.190	 37.895	 40.20168	 27.48890	  5.64997	 25.28219	  6.97167	 -0.35200	 42.35411	712.41998	 32.60	
 10.215	 47.354	 40.17371	 25.80478	  7.00787	 27.13323	  5.45556	 -0.45204	 42.35542	712.40002	 32.60	
 10.203	 56.908	 40.15818	 23.86129	  8.66347	 28.66115	  4.26031	 -0.55327	 42.36766	712.41998	 32.60	
 10.192	 66.322	 40.14260	 21.73813	 10.46243	 29.83625	  3.33629	 -0.57517	 42.35813	712.44000	 32.50	
 10.208	 75.751	 40.13189	 19.42501	 12.49232	 30.65016	  2.74021	 -0.58430	 42.35163	712.44000	 32.50	
 10.210	 85.199	 40.15899	 17.07387	 14.71717	 31.04167	  2.46545	 -0.63201	 42.35250	712.44000	 32.50	
 10.210	 94.801	 40.19228	 14.67607	 17.04005	 31.00969	  2.47578	 -0.70980	 42.35179	712.39001	 32.50	
 10.208	104.249	 40.22675	 12.50176	 19.38093	 30.57132	  2.78178	 -0.49382	 42.34885	712.42999	 32.50	
 10.192	113.678	 40.30145	 10.58328	 21.66265	 29.73981	  3.38720	 -0.74154	 42.35877	712.45001	 32.50	
 10.203	123.092	 40.34925	  8.76796	 23.75628	 28.55390	  4.21566	 -0.74017	 42.36607	712.39001	 32.50	
 10.215	132.646	 40.38610	  7.15965	 25.68357	 26.95610	  5.47404	 -0.76039	 42.32775	712.35999	 32.50	
 10.190	142.105	 40.49033	  5.91106	 27.39381	 25.11418	  7.05081	 -0.79205	 42.36303	712.35999	 32.50	
 10.194	151.526	 40.53371	  4.94862	 28.73907	 23.14919	  8.74618	 -0.81967	 42.35766	712.34998	 32.50	
 10.210	161.034	 40.59261	  4.29382	 29.77350	 20.92747	 10.69527	 -0.81672	 42.35501	712.37000	 32.50	
 10.191	170.497	 40.68605	  3.96919	 30.40768	 18.61651	 12.85983	 -0.80668	 42.37309	712.37000	 32.50	
 11.899	171.783	 39.88799	  1.41424	 32.17274	 17.80618	 12.21406	 -1.14491	 42.37112	712.35999	 32.40	
 11.890	163.610	 39.82425	  1.70960	 31.62083	 20.18012	 10.06123	 -1.14536	 42.36533	712.34998	 32.40	
 11.889	155.445	 39.76208	  2.25515	 30.72962	 22.45986	  8.03863	 -1.21064	 42.38021	712.39001	 32.40	
 11.909	147.299	 39.67156	  2.97589	 29.52599	 24.49511	  6.17328	 -1.22339	 42.37012	712.42999	 32.40	
 11.902	139.148	 39.59090	  4.01461	 27.98565	 26.49566	  4.48193	 -1.19057	 42.34557	712.34003	 32.40	
 11.894	130.867	 39.54323	  5.38326	 26.19575	 28.37262	  3.02413	 -1.14783	 42.36924	712.44000	 32.40	
 11.897	122.732	 39.49122	  7.03671	 24.21802	 29.90319	  1.88014	 -1.14473	 42.37569	712.32001	 32.40	
 11.903	114.597	 39.43713	  8.85498	 22.10663	 31.12491	  1.02014	 -1.17041	 42.37270	712.45001	 32.30	
 11.893	106.346	 39.36202	 10.82704	 19.79358	 32.00151	  0.37086	 -1.18680	 42.35226	712.41998	 32.30	
 11.892	 98.155	 39.31752	 12.90452	 17.42336	 32.70255	 -0.03155	 -1.13701	 42.35934	712.33002	 32.30	
 11.900	 90.000	 39.28267	 15.15518	 15.10578	 32.88047	 -0.16900	 -1.09064	 42.37151	712.32001	 32.30	
 11.892	 81.845	 39.24684	 17.48557	 12.85508	 32.62157	  0.03740	 -1.04550	 42.36309	712.37000	 32.30	
 11.893	 73.654	 39.21277	 19.85566	 10.70656	 32.08093	  0.44085	 -1.02229	 42.34962	712.33002	 32.30	
 11.903	 65.403	 39.21029	 22.16158	  8.75649	 31.21763	  1.06974	 -1.02440	 42.33574	712.40997	 32.30	
 11.897	 57.268	 39.20618	 24.27119	  6.97413	 30.00914	  1.90768	 -1.01261	 42.33290	712.46997	 32.30	
 11.894	 49.133	 39.23722	 26.25667	  5.36039	 28.50145	  3.04158	 -0.91481	 42.36037	712.37000	 32.30	
 11.902	 40.852	 39.24109	 28.05326	  3.91331	 26.67539	  4.42468	 -0.77293	 42.33669	712.37000	 32.30	
 11.909	 32.701	 39.28553	 29.61163	  2.75617	 24.71517	  6.05686	 -0.73596	 42.35070	712.31000	 32.30	
 11.889	 24.555	 39.36076	 30.87759	  1.97241	 22.70543	  7.91556	 -0.73954	 42.37497	712.28998	 32.30	
 11.890	 16.390	 39.40285	 31.78773	  1.38681	 20.44926	  9.90236	 -0.74754	 42.34332	712.22998	 32.30	
 11.899	  8.217	 39.44459	 32.37378	  0.98999	 18.08750	 12.09213	 -0.73071	 42.35050	712.26001	 32.20	
 11.900	  0.000	 39.47085	 32.65062	  0.83845	 15.70315	 14.29192	 -0.70844	 42.31761	712.32001	 32.20	
 11.899	 -8.217	 39.53406	 32.47015	  1.02814	 13.32729	 16.59457	 -0.71049	 42.32954	712.34998	 32.20	
 11.890	-16.390	 39.59264	 31.96382	  1.48733	 11.13488	 19.08437	 -0.77814	 42.32191	712.34003	 32.20	
 11.889	-24.555	 39.65134	 31.14872	  2.10797	  9.25834	 21.35007	 -0.85051	 42.31932	712.39001	 32.20	
 11.909	-32.701	 39.69323	 30.01748	  2.89535	  7.46599	 23.50297	 -0.90799	 42.31575	712.38000	 32.20	
 11.902	-40.852	 39.73632	 28.53044	  4.04696	  5.82734	 25.51275	 -0.95220	 42.31882	712.25000	 32.20	
 11.894	-49.133	 39.78072	 26.74759	  5.42182	  4.42166	 27.30361	 -0.93357	 42.29830	712.20001	 32.20	
 11.897	-57.268	 39.86891	 24.89219	  7.08307	  3.30155	 28.83088	 -0.92905	 42.33330	712.26001	 32.20	
 11.903	-65.403	 39.87575	 22.81436	  8.83163	  2.38190	 30.03702	 -0.97860	 42.29451	712.26001	 32.20	
 11.893	-73.654	 39.93859	 20.56010	 10.84541	  1.73434	 31.00095	 -1.01104	 42.32364	712.35999	 32.20	
 11.892	-81.845	 39.96873	 18.18817	 13.03675	  1.35013	 31.55764	 -1.01591	 42.32656	712.35999	 32.20	
 11.900	-90.000	 40.00411	 15.85889	 15.30205	  1.26089	 31.73881	 -0.98042	 42.32803	712.28998	 32.20	
 11.892	-98.155	 40.01868	 13.56722	 17.62783	  1.39218	 31.52063	 -0.97287	 42.30539	712.35999	 32.20	
 11.893	-106.346	 40.04732	 11.47403	 19.98264	  1.72184	 30.98755	 -0.99297	 42.30869	712.27002	 32.20	
 11.903	-114.597	 40.06837	  9.49972	 22.25723	  2.32896	 30.06766	 -1.03323	 42.30456	712.27002	 32.20	
 11.897	-122.732	 40.10953	  7.70119	 24.36237	  3.15024	 28.82393	 -1.05499	 42.31978	712.34003	 32.20	
 11.894	-130.867	 40.09665	  6.06008	 26.28845	  4.18489	 27.30849	 -1.04561	 42.30774	712.26001	 32.20	
 11.902	-139.148	 40.09258	  4.61278	 28.09953	  5.63310	 25.51972	 -1.03386	 42.31219	712.27002	 32.10	
 11.909	-147.299	 40.08326	  3.47041	 29.60222	  7.24260	 23.58109	 -1.06272	 42.32287	712.22998	 32.10	
 11.889	-155.445	 40.04939	  2.60118	 30.76692	  9.05106	 21.41378	 -1.10284	 42.30856	712.21997	 32.10	
 11.890	-163.610	 40.01470	  1.96033	 31.61417	 10.97017	 19.15550	 -1.16273	 42.32207	712.34003	 32.10	
 11.899	-171.783	 39.94388	  1.53787	 32.13476	 13.10792	 16.58952	 -1.16693	 42.29298	712.34998	 32.10	
 11.900	180.000	 39.87695	  1.34131	 32.29743	 15.41007	 14.24540	 -1.16950	 42.28308	712.22998	 32.10	
 13.600	180.000	 38.95086	 -1.18726	 33.95955	 14.49809	 13.59419	 -1.43804	 42.31120	712.33002	 32.10	
 13.608	-172.853	 38.99817	 -0.96014	 33.81903	 12.28790	 15.77873	 -1.44888	 42.28505	712.28003	 32.10	
 13.611	-165.583	 39.05576	 -0.62030	 33.32721	 10.19622	 18.27669	 -1.42445	 42.29015	712.27002	 32.10	
 13.601	-158.353	 39.10970	 -0.11462	 32.55957	  8.26907	 20.61456	 -1.37720	 42.30505	712.29999	 32.10	
 13.609	-151.210	 39.12784	  0.61418	 31.49824	  6.39059	 22.84488	 -1.28307	 42.28611	712.35999	 32.10	
 13.611	-143.999	 39.16085	  1.63074	 30.15850	  4.64334	 24.95603	 -1.22563	 42.30803	712.41998	 32.10	
 13.601	-136.825	 39.16744	  2.86332	 28.54301	  3.13961	 26.83538	 -1.20891	 42.29335	712.27002	 32.10	
 13.596	-129.640	 39.19029	  4.35268	 26.75137	  1.92397	 28.56049	 -1.22676	 42.28644	712.28998	 32.10	
 13.611	-122.431	 39.17571	  6.00415	 24.72076	  0.79256	 30.16418	 -1.22996	 42.29958	712.28998	 32.10	
 13.604	-115.211	 39.12639	  7.80278	 22.55058	 -0.10652	 31.43998	 -1.18465	 42.28177	712.25000	 32.00	
 13.595	-108.042	 39.09917	  9.71371	 20.29686	 -0.74741	 32.41351	 -1.15041	 42.28350	712.32001	 32.00	
 13.607	-100.793	 39.07904	 11.76915	 17.96052	 -1.13968	 33.08962	 -1.12837	 42.31755	712.41998	 32.00	
 13.601	-93.617	 39.03541	 13.92684	 15.60171	 -1.29851	 33.38707	 -1.13659	 42.30028	712.37000	 32.00	
 13.601	-86.383	 39.01022	 16.20065	 13.32180	 -1.21729	 33.37399	 -1.16518	 42.29248	712.38000	 32.00	
 13.607	-79.207	 38.96253	 18.55575	 11.12741	 -1.07202	 33.05424	 -1.19949	 42.29887	712.38000	 32.00	
 13.595	-71.958	 38.92719	 20.91751	  9.03110	 -0.64051	 32.39622	 -1.21250	 42.29495	712.28998	 32.00	
 13.604	-64.789	 38.89992	 23.15369	  7.11149	  0.01963	 31.42912	 -1.21471	 42.31251	712.33002	 32.00	
 13.611	-57.569	 38.85457	 25.25248	  5.32930	  0.92969	 30.15585	 -1.17936	 42.30215	712.28998	 32.00	
 13.596	-50.360	 38.79924	 27.20402	  3.65413	  2.06702	 28.58720	 -1.19396	 42.29409	712.38000	 32.00	
 13.601	-43.175	 38.74730	 29.01347	  2.24384	  3.37417	 26.85523	 -1.21669	 42.29208	712.38000	 32.00	
 13.611	-36.001	 38.67993	 30.59635	  1.05260	  4.87334	 24.90782	 -1.24980	 42.29488	712.39001	 32.00	
 13.609	-28.790	 38.64237	 31.92694	  0.09606	  6.61586	 22.76815	 -1.22087	 42.30282	712.31000	 32.00	
 13.601	-21.647	 38.60132	 32.92098	 -0.56115	  8.45493	 20.55087	 -1.16517	 42.30369	712.31000	 32.00	
 13.611	-14.417	 38.52679	 33.65990	 -1.11175	 10.36546	 18.16146	 -1.11695	 42.28904	712.33002	 32.00	
 13.608	 -7.147	 38.47167	 34.09547	 -1.49915	 12.43099	 15.73979	 -1.09253	 42.30404	712.27002	 32.00	
 13.600	  0.000	 38.40632	 34.19701	 -1.69225	 14.74452	 13.49689	 -1.08947	 42.29317	712.39001	 32.00	
 13.608	  7.147	 38.35174	 33.99670	 -1.58648	 17.15545	 11.30074	 -1.12665	 42.29810	712.38000	 32.00	
 13.611	 14.417	 38.30668	 33.46758	 -1.21414	 19.56468	  9.10761	 -1.14621	 42.29996	712.32001	 32.00	
 13.601	 21.647	 38.24626	 32.61782	 -0.70395	 21.87288	  7.09883	 -1.13426	 42.29855	712.37000	 32.00	
 13.609	 28.790	 38.20858	 31.50372	 -0.08126	 23.95184	  5.21846	 -1.11429	 42.30988	712.38000	 32.00	
 13.611	 36.001	 38.17020	 30.09127	  0.90295	 26.04207	  3.46625	 -1.15569	 42.32164	712.34998	 31.90	
 13.601	 43.175	 38.15318	 28.43700	  2.15337	 27.99346	  1.96225	 -1.23685	 42.34331	712.32001	 31.90	
 13.596	 50.360	 38.13065	 26.62341	  3.58167	 29.71596	  0.66962	 -1.37456	 42.32341	712.29999	 31.90	
 13.611	 57.569	 38.09160	 24.57014	  5.17725	 31.21527	 -0.46320	 -1.48089	 42.30436	712.37000	 31.90	
 13.604	 64.789	 38.09453	 22.38009	  6.99287	 32.43407	 -1.26536	 -1.48902	 42.31075	712.32001	 31.90	
 13.595	 71.958	 38.07863	 20.12499	  8.89214	 33.39329	 -1.84455	 -1.46318	 42.28155	712.37000	 31.90	
 13.607	 79.207	 38.11288	 17.76634	 10.93250	 34.05797	 -2.32849	 -1.46717	 42.31625	712.33002	 31.90	
 13.601	 86.383	 38.12595	 15.42986	 13.11102	 34.36090	 -2.60536	 -1.48585	 42.30743	712.41998	 31.90	
 13.601	 93.617	 38.15872	 13.14771	 15.39523	 34.40404	 -2.67004	 -1.53929	 42.29598	712.34003	 31.90	
 13.607	100.793	 38.23140	 11.03015	 17.76805	 33.98132	 -2.40925	 -1.59615	 42.31134	712.39001	 31.90	
 13.595	108.042	 38.27930	  8.96760	 20.09782	 33.31599	 -2.00530	 -1.62180	 42.31100	712.31000	 31.90	
 13.604	115.211	 38.35487	  7.03759	 22.35524	 32.36675	 -1.37262	 -1.56260	 42.31781	712.35999	 31.90	
 13.611	122.431	 38.40442	  5.21086	 24.50984	 31.10367	 -0.54841	 -1.52392	 42.30287	712.37000	 31.90	
 13.596	129.640	 38.46413	  3.55212	 26.53465	 29.53632	  0.59284	 -1.55468	 42.29682	712.28003	 31.90	
 13.601	136.825	 38.52719	  2.14724	 28.36566	 27.80438	  1.97301	 -1.57195	 42.30224	712.37000	 31.90	
 13.611	143.999	 38.59522	  1.02942	 30.01484	 25.83079	  3.53747	 -1.61975	 42.30022	712.34003	 31.80	
 13.609	151.210	 38.68713	  0.17597	 31.40816	 23.82350	  5.32818	 -1.59855	 42.31704	712.31000	 31.90	
 13.601	158.353	 38.74108	 -0.49228	 32.47094	 21.63627	  7.19687	 -1.52579	 42.31086	712.38000	 31.80	
 13.611	165.583	 38.80714	 -0.94243	 33.28532	 19.29290	  9.25395	 -1.47195	 42.30575	712.39001	 31.80	
 13.608	172.853	 38.88028	 -1.15300	 33.77146	 16.84494	 11.37998	 -1.42916	 42.30729	712.37000	 31.80	
 15.298	173.587	 37.80833	 -3.60255	 35.26256	 15.94679	 10.54258	 -1.67082	 42.29282	712.37000	 31.80	
 15.291	167.167	 37.74324	 -3.38972	 34.83295	 18.31166	  8.45383	 -1.73010	 42.28714	712.44000	 31.80	
 15.307	160.676	 37.66930	 -3.00966	 34.12070	 20.65705	  6.45047	 -1.81262	 42.30743	712.29999	 31.80	
 15.300	154.261	 37.61906	 -2.50424	 33.13820	 22.92568	  4.51309	 -1.92772	 42.33092	712.37000	 31.80	
 15.288	147.854	 37.52901	 -1.79686	 31.83389	 25.05214	  2.68596	 -1.99672	 42.29864	712.42999	 31.80	
 15.293	141.428	 37.46590	 -0.88653	 30.33626	 27.07780	  1.01870	 -1.97879	 42.30404	712.31000	 31.80	
 15.299	134.985	 37.37592	  0.33035	 28.61204	 28.94768	 -0.41300	 -1.95627	 42.26845	712.29999	 31.80	
 15.305	128.583	 37.32270	  1.78856	 26.75571	 30.66705	 -1.53042	 -1.93095	 42.28126	712.41998	 31.80	
 15.309	122.142	 37.28207	  3.37168	 24.75143	 32.21921	 -2.58462	 -1.91891	 42.32287	712.40002	 31.80	
 15.304	115.711	 37.17922	  5.13301	 22.57271	 33.50707	 -3.50831	 -1.95293	 42.29792	712.42999	 31.80	
 15.297	109.291	 37.11090	  7.05597	 20.30419	 34.50676	 -4.12435	 -2.01227	 42.29159	712.46002	 31.80	
 15.293	102.897	 37.06673	  9.06643	 18.01633	 35.21854	 -4.56974	 -2.02740	 42.29485	712.44000	 31.80	
 15.293	 96.458	 36.99109	 11.19376	 15.65283	 35.63126	 -4.81875	 -2.00020	 42.27322	712.37000	 31.80	
 15.300	 90.000	 36.94757	 13.34476	 13.36497	 35.86666	 -4.94268	 -1.93423	 42.27405	712.40997	 31.80	
 15.293	 83.542	 36.92584	 15.62724	 11.16029	 35.69978	 -4.87595	 -1.94238	 42.29747	712.35999	 31.80	
 15.293	 77.103	 36.87821	 17.93944	  9.02209	 35.27480	 -4.65459	 -1.92413	 42.29985	712.44000	 31.80	
 15.297	 70.709	 36.87897	 20.30080	  7.04007	 34.57016	 -4.12287	 -1.94296	 42.30545	712.46997	 31.80	
 15.304	 64.289	 36.90324	 22.55916	  5.19692	 33.59980	 -3.46031	 -1.98048	 42.31152	712.44000	 31.80	
 15.309	 57.858	 36.88383	 24.73155	  3.46047	 32.31896	 -2.66827	 -1.95777	 42.29417	712.40997	 31.80	
 15.305	 51.417	 36.94426	 26.83546	  1.87355	 30.82308	 -1.75905	 -1.86081	 42.30463	712.58002	 31.80	
 15.299	 45.015	 36.95983	 28.68361	  0.42807	 29.11886	 -0.57666	 -1.73618	 42.30579	712.46002	 31.80	
 15.293	 38.572	 36.95380	 30.40907	 -0.86363	 27.25064	  0.96673	 -1.60832	 42.30994	712.48999	 31.80	
 15.288	 32.146	 36.99319	 31.94891	 -1.91691	 25.20608	  2.56662	 -1.56437	 42.30420	712.40997	 31.80	
 15.300	 25.739	 37.03645	 33.20139	 -2.62206	 23.14303	  4.35848	 -1.54265	 42.29811	712.38000	 31.80	
 15.307	 19.324	 37.08207	 34.23312	 -3.14178	 20.93961	  6.22979	 -1.53465	 42.29102	712.33002	 31.80	
 15.291	 12.833	 37.15817	 35.01933	 -3.62814	 18.57763	  8.27946	 -1.52277	 42.31086	712.35999	 31.80	
 15.298	  6.413	 37.18181	 35.49535	 -3.97424	 16.12452	 10.41673	 -1.50201	 42.30120	712.40002	 31.70	
 15.300	  0.000	 37.24545	 35.67331	 -4.03393	 13.77513	 12.62382	 -1.44837	 42.30440	712.40997	 31.80	
 15.298	 -6.413	 37.28412	 35.57730	 -3.86816	 11.58652	 14.87974	 -1.41243	 42.27413	712.34998	 31.70	
 15.291	-12.833	 37.34679	 35.19116	 -3.53986	  9.50976	 17.19325	 -1.40949	 42.27996	712.40997	 31.70	
 15.307	-19.324	 37.42227	 34.56394	 -3.07792	  7.55285	 19.61711	 -1.41862	 42.29298	712.39001	 31.70	
 15.300	-25.739	 37.45307	 33.62932	 -2.55971	  5.68717	 21.91187	 -1.46179	 42.28913	712.33002	 31.70	
 15.288	-32.146	 37.51112	 32.41669	 -1.79606	  3.95775	 24.10205	 -1.46113	 42.27299	712.31000	 31.70	
 15.293	-38.572	 37.57567	 30.98830	 -0.76904	  2.39374	 26.15237	 -1.42473	 42.27417	712.37000	 31.70	
 15.299	-45.015	 37.62876	 29.31257	  0.44852	  0.92707	 28.04758	 -1.36889	 42.27923	712.38000	 31.70	
 15.305	-51.417	 37.65777	 27.46393	  1.83076	 -0.42265	 29.81056	 -1.31111	 42.28500	712.47998	 31.70	
 15.309	-57.858	 37.70552	 25.48161	  3.46109	 -1.46361	 31.35881	 -1.29283	 42.28967	712.50000	 31.70	
 15.304	-64.289	 37.76167	 23.35385	  5.29359	 -2.31488	 32.66454	 -1.28181	 42.30243	712.45001	 31.70	
 15.297	-70.709	 37.79900	 21.12892	  7.18676	 -2.98548	 33.66363	 -1.26991	 42.29680	712.44000	 31.70	
 15.293	-77.103	 37.84578	 18.85419	  9.19149	 -3.30746	 34.34887	 -1.25307	 42.28243	712.46997	 31.70	
 15.293	-83.542	 37.89874	 16.47313	 11.31282	 -3.54965	 34.77864	 -1.20956	 42.27456	712.41998	 31.70	
 15.300	-90.000	 37.95686	 14.22530	 13.53680	 -3.73424	 34.95438	 -1.16213	 42.29826	712.46997	 31.70	
 15.293	-96.458	 37.99129	 12.04743	 15.85984	 -3.67806	 34.82718	 -1.13958	 42.31194	712.39001	 31.70	
 15.293	-102.897	 38.03039	  9.93724	 18.22054	 -3.45530	 34.40731	 -1.16938	 42.31572	712.40997	 31.70	
 15.297	-109.291	 38.01666	  7.92159	 20.49112	 -3.10661	 33.66288	 -1.20601	 42.27904	712.46002	 31.70	
 15.304	-115.711	 38.06928	  6.02417	 22.76029	 -2.49303	 32.69617	 -1.24228	 42.30110	712.45001	 31.70	
 15.309	-122.142	 38.10686	  4.26110	 24.94651	 -1.61455	 31.40357	 -1.24947	 42.29788	712.46997	 31.70	
 15.305	-128.583	 38.12634	  2.62455	 26.96797	 -0.53067	 29.85484	 -1.25323	 42.29516	712.46997	 31.70	
 15.299	-134.985	 38.13130	  1.12531	 28.84321	  0.67194	 28.10443	 -1.25872	 42.28861	712.51001	 31.70	
 15.293	-141.428	 38.10320	 -0.23822	 30.54178	  2.05480	 26.17944	 -1.26952	 42.29588	712.50000	 31.70	
 15.288	-147.854	 38.07886	 -1.32745	 32.02987	  3.64776	 24.12069	 -1.33543	 42.30019	712.48999	 31.70	
 15.300	-154.261	 38.06629	 -2.08803	 33.26107	  5.41999	 21.96189	 -1.40972	 42.29478	712.52002	 31.70	
 15.307	-160.676	 38.02869	 -2.72883	 34.21030	  7.28318	 19.66198	 -1.50751	 42.29762	712.44000	 31.70	
 15.291	-167.167	 37.99676	 -3.16383	 34.88340	  9.27507	 17.28531	 -1.55637	 42.30020	712.44000	 31.70	
 15.298	-173.587	 37.93801	 -3.46461	 35.28646	 11.43196	 14.93330	 -1.61551	 42.30051	712.45001	 31.70	
 15.300	180.000	 37.86776	 -3.64704	 35.42672	 13.62598	 12.73300	 -1.63530	 42.30412	712.39001	 31.70	
 17.000	180.000	 36.63965	 -6.01555	 36.78505	 12.65731	 11.79676	 -1.73858	 42.28375	712.51001	 31.70	
 16.990	-174.179	 36.70603	 -5.91650	 36.67005	 10.49599	 14.02040	 -1.69821	 42.29416	712.56000	 31.70	
 17.009	-168.383	 36.78539	 -5.55160	 36.32207	  8.37039	 16.25516	 -1.62467	 42.29376	712.60999	 31.70	
 17.000	-162.596	 36.84432	 -5.08329	 35.70186	  6.41205	 18.54203	 -1.54996	 42.29354	712.56000	 31.60	
 16.990	-156.759	 36.89628	 -4.52391	 34.82662	  4.50579	 20.98645	 -1.46194	 42.29315	712.47998	 31.70	
 16.995	-150.919	 36.88838	 -3.98374	 33.71061	  2.68087	 23.21379	 -1.35403	 42.29457	712.46997	 31.60	
 16.988	-145.161	 36.91687	 -3.12317	 32.38104	  1.07290	 25.28545	 -1.27926	 42.29523	712.52002	 31.70	
 17.014	-139.343	 36.93518	 -2.00597	 30.80947	 -0.40122	 27.28455	 -1.23151	 42.30791	712.45001	 31.60	
 17.007	-133.546	 36.93485	 -0.66645	 29.01369	 -1.75011	 29.21078	 -1.21488	 42.28594	712.46002	 31.60	
 17.001	-127.699	 36.93071	  0.83758	 27.09020	 -2.93162	 30.98083	 -1.19220	 42.28071	712.53998	 31.60	
 17.006	-121.937	 36.91837	  2.42962	 25.06980	 -3.91634	 32.48828	 -1.16625	 42.30289	712.57001	 31.60	
 17.002	-116.134	 36.86273	  4.16685	 22.88774	 -4.74556	 33.74089	 -1.18578	 42.26928	712.53998	 31.60	
 17.001	-110.310	 36.83352	  6.07175	 20.62086	 -5.36239	 34.80048	 -1.16310	 42.28139	712.46002	 31.70	
 16.988	-104.517	 36.80623	  7.99506	 18.35101	 -5.70200	 35.56909	 -1.11697	 42.28965	712.53998	 31.60	
 17.008	-98.662	 36.72839	 10.04130	 15.99094	 -5.99373	 36.10649	 -1.11966	 42.26891	712.64001	 31.60	
 16.996	-92.909	 36.70200	 12.18170	 13.69198	 -6.12032	 36.33160	 -1.11085	 42.26513	712.46002	 31.60	
 16.996	-87.091	 36.67253	 14.37035	 11.42621	 -6.07661	 36.32670	 -1.13692	 42.26300	712.59998	 31.60	
 17.012	-81.253	 36.62275	 16.58925	  9.26612	 -5.88292	 36.08475	 -1.17104	 42.28303	712.60999	 31.60	
 16.988	-75.483	 36.60598	 18.99853	  7.26669	 -5.49648	 35.54368	 -1.19211	 42.28437	712.47998	 31.60	
 17.001	-69.690	 36.54209	 21.23102	  5.33539	 -5.18076	 34.77197	 -1.22682	 42.29166	712.60999	 31.60	
 17.002	-63.866	 36.49387	 23.46997	  3.45311	 -4.55069	 33.71481	 -1.24612	 42.28552	712.52002	 31.60	
 17.006	-58.063	 36.41827	 25.57994	  1.64966	 -3.79164	 32.42423	 -1.27448	 42.26945	712.44000	 31.60	
 17.001	-52.301	 36.37776	 27.53316	  0.01647	 -2.81617	 30.94994	 -1.32395	 42.28255	712.47998	 31.60	
 17.007	-46.454	 36.35038	 29.46831	 -1.39631	 -1.58714	 29.21075	 -1.38410	 42.28349	712.56000	 31.60	
 17.014	-40.657	 36.30068	 31.24632	 -2.69273	 -0.21184	 27.26569	 -1.43939	 42.28521	712.51001	 31.60	
 16.988	-34.839	 36.23919	 32.79497	 -3.72468	  1.31375	 25.28242	 -1.52239	 42.28121	712.53998	 31.60	
 16.995	-29.081	 36.20608	 34.11684	 -4.43926	  2.92853	 23.18419	 -1.58877	 42.30026	712.50000	 31.60	
 16.990	-23.241	 36.14632	 35.17692	 -4.96236	  4.73419	 20.91411	 -1.58491	 42.27275	712.59998	 31.60	
 17.000	-17.404	 36.12169	 36.03816	 -5.45978	  6.63027	 18.49945	 -1.60663	 42.29448	712.63000	 31.60	
 17.009	-11.617	 36.04372	 36.61186	 -5.93834	  8.60020	 16.20298	 -1.64661	 42.28556	712.54999	 31.60	
 16.990	 -5.821	 35.98211	 36.93887	 -6.18662	 10.69913	 13.93276	 -1.69379	 42.28383	712.57001	 31.60	
 17.000	  0.000	 35.92616	 37.00685	 -6.36598	 12.81702	 11.65939	 -1.76958	 42.28002	712.54999	 31.60	
 16.990	  5.821	 35.88034	 36.84427	 -6.31037	 15.08370	  9.47748	 -1.83811	 42.29705	712.54999	 31.60	
 17.009	 11.617	 35.81449	 36.42578	 -6.07569	 17.48271	  7.31005	 -1.89241	 42.29755	712.56000	 31.60	
 17.000	 17.404	 35.77961	 35.71736	 -5.63477	 19.83953	  5.27180	 -1.91012	 42.30336	712.52002	 31.60	
 16.990	 23.241	 35.72392	 34.73919	 -5.05392	 22.13317	  3.38681	 -1.92355	 42.28447	712.47998	 31.60	
 16.995	 29.081	 35.64694	 33.54546	 -4.52874	 24.27289	  1.56268	 -1.95420	 42.27831	712.47998	 31.60	
 16.988	 34.839	 35.61758	 32.18119	 -3.73231	 26.36723	 -0.12487	 -2.01408	 42.28849	712.45001	 31.60	
 17.014	 40.657	 35.57966	 30.57950	 -2.67085	 28.31281	 -1.64941	 -2.08890	 42.27552	712.53998	 31.60	
 17.007	 46.454	 35.59059	 28.77271	 -1.39627	 30.16384	 -2.87887	 -2.23470	 42.29391	712.51001	 31.50	
 17.001	 52.301	 35.58868	 26.86601	 -0.00206	 31.84750	 -3.96481	 -2.36635	 42.30211	712.47998	 31.50	
 17.006	 58.063	 35.55916	 24.87413	  1.57183	 33.30496	 -4.86742	 -2.47157	 42.29505	712.46002	 31.50	
 17.002	 63.866	 35.56782	 22.69690	  3.30848	 34.57806	 -5.67862	 -2.46775	 42.29736	712.45001	 31.60	
 17.001	 69.690	 35.54694	 20.42079	  5.17000	 35.57925	 -6.31273	 -2.42920	 42.27982	712.46002	 31.50	
 16.988	 75.483	 35.56617	 18.04586	  7.09944	 36.34240	 -6.75946	 -2.42284	 42.27534	712.39001	 31.50	
 17.012	 81.253	 35.58295	 15.79354	  9.14503	 36.85873	 -7.13415	 -2.42896	 42.27367	712.38000	 31.50	
 16.996	 87.091	 35.65258	 13.51610	 11.34103	 37.10369	 -7.26481	 -2.40982	 42.29238	712.40997	 31.50	
 16.996	 92.909	 35.68429	 11.34840	 13.54112	 37.10823	 -7.33424	 -2.43798	 42.28662	712.46997	 31.50	
 17.008	 98.662	 35.71505	  9.18024	 15.81051	 36.84118	 -7.23096	 -2.47823	 42.28139	712.32001	 31.50	
 16.988	104.517	 35.79882	  7.10197	 18.15113	 36.31014	 -6.85653	 -2.47362	 42.28483	712.38000	 31.50	
 17.001	110.310	 35.85342	  5.11487	 20.43634	 35.53194	 -6.34914	 -2.42421	 42.27920	712.35999	 31.50	
 17.002	116.134	 35.91984	  3.21591	 22.70134	 34.48576	 -5.69383	 -2.35831	 42.30820	712.33002	 31.50	
 17.006	121.937	 35.96475	  1.49012	 24.80538	 33.19472	 -5.00297	 -2.29548	 42.28824	712.32001	 31.50	
 17.001	127.699	 36.04474	 -0.07215	 26.80866	 31.70822	 -4.02248	 -2.27038	 42.30018	712.39001	 31.50	
 17.007	133.546	 36.10617	 -1.50028	 28.73044	 30.00683	 -2.89441	 -2.27432	 42.29963	712.38000	 31.50	
 17.014	139.343	 36.17197	 -2.74038	 30.52412	 28.11042	 -1.52547	 -2.29335	 42.29145	712.38000	 31.50	
 16.988	145.161	 36.24681	 -3.64719	 32.11066	 26.15429	  0.02713	 -2.26517	 42.29652	712.35999	 31.50	
 16.995	150.919	 36.30511	 -4.34358	 33.49197	 24.11872	  1.71442	 -2.23792	 42.27627	712.35999	 31.50	
 16.990	156.759	 36.40320	 -4.96538	 34.66093	 21.88858	  3.58366	 -2.13651	 42.29331	712.34003	 31.50	
 17.000	162.596	 36.47406	 -5.45147	 35.60466	 19.57639	  5.52284	 -2.00742	 42.31093	712.25000	 31.50	
 17.009	168.383	 36.52636	 -5.74043	 36.23754	 17.24458	  7.53881	 -1.91011	 42.28091	712.35999	 31.50	
 16.990	174.179	 36.60878	 -5.94341	 36.63780	 14.89460	  9.65197	 -1.82483	 42.29518	712.40997	 31.50	
 18.709	174.675	 35.24849	 -8.20280	 37.88168	 13.79903	  8.65634	 -1.90431	 42.28336	712.38000	 31.50	
 18.703	169.441	 35.18772	 -8.04313	 37.52219	 16.08999	  6.54355	 -2.04563	 42.28038	712.46002	 31.50	
 18.691	164.085	 35.14033	 -7.73061	 36.91624	 18.46412	  4.51631	 -2.10628	 42.29283	712.45001	 31.50	
 18.706	158.818	 35.05266	 -7.35923	 36.09253	 20.73482	  2.54865	 -2.23356	 42.29659	712.31000	 31.50	
 18.695	153.537	 34.98387	 -6.77073	 34.99062	 23.02542	  0.71605	 -2.35822	 42.29370	712.39001	 31.50	
 18.704	148.255	 34.93430	 -6.08963	 33.70383	 25.16128	 -0.97438	 -2.44604	 42.30252	712.34003	 31.50	
 18.698	142.952	 34.87845	 -5.27485	 32.23327	 27.15227	 -2.45438	 -2.52489	 42.28473	712.39001	 31.50	
 18.699	137.625	 34.80711	 -4.35206	 30.56340	 29.08847	 -3.73172	 -2.58470	 42.29163	712.32001	 31.50	
 18.705	132.343	 34.73082	 -3.22670	 28.78551	 30.89218	 -4.88898	 -2.62479	 42.27638	712.39001	 31.50	
 18.713	127.067	 34.66577	 -1.93453	 26.86927	 32.53796	 -5.83972	 -2.65194	 42.29826	712.38000	 31.50	
 18.700	121.794	 34.59012	 -0.41220	 24.84090	 33.98709	 -6.67153	 -2.69495	 42.27248	712.37000	 31.50	
 18.698	116.504	 34.52186	  1.24647	 22.71340	 35.29709	 -7.42163	 -2.75622	 42.27201	712.38000	 31.50	
 18.707	111.165	 34.44616	  3.08548	 20.43237	 36.43631	 -8.16534	 -2.79308	 42.29248	712.38000	 31.50	
 18.690	105.863	 34.35109	  5.06410	 18.09772	 37.26684	 -8.73844	 -2.84607	 42.27407	712.37000	 31.50	
 18.696	100.583	 34.29046	  7.07142	 15.81658	 37.89108	 -9.13665	 -2.87163	 42.29854	712.34998	 31.50	
 18.700	 95.309	 34.19349	  9.18855	 13.51525	 38.22158	 -9.37447	 -2.85631	 42.27532	712.40997	 31.50	
 18.700	 90.000	 34.10303	 11.16362	 11.37137	 38.36190	 -9.74757	 -2.80793	 42.29082	712.37000	 31.50	
 18.700	 84.691	 34.04559	 13.28041	  9.22051	 38.26915	 -9.87008	 -2.76905	 42.27672	712.32001	 31.50	
 18.696	 79.417	 34.01814	 15.58361	  7.15269	 37.92407	 -9.62210	 -2.78081	 42.27336	712.34998	 31.40	
 18.690	 74.137	 34.02625	 17.77282	  5.17142	 37.36646	 -9.20984	 -2.80095	 42.28913	712.42999	 31.50	
 18.707	 68.835	 34.02227	 20.19580	  3.26569	 36.53970	 -8.63871	 -2.81561	 42.29513	712.40997	 31.40	
 18.698	 63.496	 34.02024	 22.56303	  1.40286	 35.44114	 -7.95110	 -2.82610	 42.27597	712.35999	 31.50	
 18.700	 58.206	 34.03098	 24.75042	 -0.26871	 34.16405	 -7.15919	 -2.83015	 42.26772	712.37000	 31.40	
 18.713	 52.933	 34.04222	 26.74975	 -1.72134	 32.72300	 -6.19289	 -2.75535	 42.27579	712.32001	 31.40	
 18.705	 47.657	 34.06364	 28.65456	 -3.00155	 31.17533	 -5.09009	 -2.63295	 42.26556	712.28998	 31.40	
 18.699	 42.375	 34.12317	 30.55395	 -4.13200	 29.35750	 -3.86151	 -2.55014	 42.27633	712.35999	 31.40	
 18.698	 37.048	 34.16917	 32.28398	 -5.23852	 27.36354	 -2.51669	 -2.47532	 42.29334	712.40002	 31.40	
 18.704	 31.745	 34.19689	 33.76863	 -6.07744	 25.30227	 -1.11986	 -2.40940	 42.26999	712.28003	 31.40	
 18.695	 26.463	 34.26006	 35.05736	 -6.75288	 23.23783	  0.57543	 -2.34645	 42.28541	712.39001	 31.40	
 18.706	 21.182	 34.28211	 36.15560	 -7.47353	 20.99244	  2.38639	 -2.29976	 42.28115	712.40002	 31.40	
 18.691	 15.915	 34.32981	 37.00428	 -7.89522	 18.74254	  4.30699	 -2.23128	 42.27326	712.40997	 31.50	
 18.703	 10.559	 34.35230	 37.66760	 -8.31932	 16.37366	  6.31232	 -2.17448	 42.27203	712.26001	 31.40	
 18.709	  5.325	 34.40529	 38.08607	 -8.56543	 14.02759	  8.43581	 -2.06857	 42.28436	712.38000	 31.40	
 18.700	  0.000	 34.46924	 38.23903	 -8.62595	 11.82645	 10.61215	 -1.98554	 42.27942	712.34998	 31.40	
 18.709	 -5.325	 34.52028	 38.17065	 -8.44454	  9.68541	 12.87356	 -1.88168	 42.28434	712.31000	 31.40	
 18.703	-10.559	 34.57450	 37.86988	 -8.20475	  7.62345	 15.13840	 -1.78765	 42.27314	712.32001	 31.40	
 18.691	-15.915	 34.66013	 37.34158	 -7.84307	  5.63076	 17.39510	 -1.73558	 42.27606	712.26001	 31.40	
 18.706	-21.182	 34.72693	 36.60313	 -7.33035	  3.70602	 19.73189	 -1.66853	 42.28679	712.29999	 31.40	
 18.695	-26.463	 34.77744	 35.60695	 -6.90305	  1.86313	 22.07838	 -1.61281	 42.30128	712.28003	 31.40	
 18.704	-31.745	 34.81213	 34.39005	 -6.26016	  0.20891	 24.23459	 -1.53355	 42.29622	712.32001	 31.40	
 18.698	-37.048	 34.85327	 32.95065	 -5.43490	 -1.35268	 26.28917	 -1.45932	 42.27718	712.37000	 31.40	
 18.699	-42.375	 34.91706	 31.30462	 -4.40179	 -2.79141	 28.33578	 -1.39672	 42.29325	712.31000	 31.40	
 18.705	-47.657	 34.95177	 29.49628	 -3.18013	 -4.01712	 30.19950	 -1.32756	 42.29043	712.31000	 31.40	
 18.713	-52.933	 34.99623	 27.56860	 -1.74274	 -5.09591	 31.86500	 -1.25194	 42.28054	712.34003	 31.40	
 18.700	-58.206	 35.06087	 25.63651	 -0.16469	 -6.02147	 33.35760	 -1.22361	 42.29638	712.32001	 31.40	
 18.698	-63.496	 35.09325	 23.52470	  1.52898	 -6.71791	 34.63975	 -1.18934	 42.26848	712.28998	 31.40	
 18.707	-68.835	 35.15255	 21.29801	  3.36208	 -7.23752	 35.72443	 -1.15650	 42.27518	712.12000	 31.40	
 18.690	-74.137	 35.19386	 19.00804	  5.25587	 -7.70046	 36.54322	 -1.12137	 42.26539	712.17999	 31.40	
 18.696	-79.417	 35.22801	 16.61651	  7.22904	 -8.07807	 37.15966	 -1.09184	 42.26490	712.23999	 31.40	
 18.700	-84.691	 35.29276	 14.46452	  9.33817	 -8.36947	 37.54104	 -1.06069	 42.28148	712.28003	 31.40	
 18.700	-90.000	 35.31914	 12.23337	 11.50743	 -8.52919	 37.66005	 -1.06251	 42.26978	712.35999	 31.40	
 18.700	-95.309	 35.35008	 10.09459	 13.75873	 -8.48682	 37.57214	 -1.05828	 42.28282	712.45001	 31.40	
 18.696	-100.583	 35.40091	  8.00367	 16.03942	 -8.29321	 37.20964	 -1.05776	 42.28352	712.29999	 31.40	
 18.690	-105.863	 35.43022	  6.02180	 18.32834	 -8.02324	 36.60674	 -1.06208	 42.25878	712.31000	 31.40	
 18.707	-111.165	 35.52016	  4.11128	 20.65847	 -7.51044	 35.81252	 -1.05700	 42.30013	712.31000	 31.40	
 18.698	-116.504	 35.54123	  2.27414	 22.90903	 -6.95178	 34.69569	 -1.06526	 42.26641	712.26001	 31.40	
 18.700	-121.794	 35.57387	  0.54583	 25.06096	 -6.24510	 33.37426	 -1.05079	 42.28122	712.29999	 31.40	
 18.713	-127.067	 35.57277	 -1.03898	 27.07947	 -5.31885	 31.86454	 -1.06684	 42.24419	712.37000	 31.40	
 18.705	-132.343	 35.58780	 -2.50599	 29.00639	 -4.20291	 30.19547	 -1.13251	 42.25649	712.31000	 31.40	
 18.699	-137.625	 35.61075	 -3.73777	 30.81733	 -2.90857	 28.35932	 -1.16058	 42.27588	712.27002	 31.40	
 18.698	-142.952	 35.60366	 -4.82136	 32.47530	 -1.50648	 26.38408	 -1.21776	 42.26340	712.23999	 31.40	
 18.704	-148.255	 35.59718	 -5.77184	 33.95020	 -0.02375	 24.31789	 -1.28623	 42.26918	712.27002	 31.40	
 18.695	-153.537	 35.55712	 -6.50941	 35.17597	  1.60983	 22.16656	 -1.35531	 42.25446	712.32001	 31.40	
 18.706	-158.818	 35.49631	 -7.15756	 36.21140	  3.41419	 19.81894	 -1.44621	 42.23963	712.26001	 31.40	
 18.691	-164.085	 35.49983	 -7.50023	 37.00742	  5.40908	 17.45900	 -1.54408	 42.26556	712.32001	 31.30	
 18.703	-169.441	 35.41834	 -7.93506	 37.57626	  7.40950	 15.22224	 -1.63369	 42.25967	712.28003	 31.40	
 18.709	-174.675	 35.35413	 -8.26874	 37.91440	  9.47165	 13.00120	 -1.67181	 42.28290	712.29999	 31.30	
 18.700	180.000	 35.27655	 -8.32695	 37.98981	 11.61666	 10.79246	 -1.78073	 42.26093	712.27002	 31.30	
 20.400	180.000	 33.81128	-10.47880	 39.08731	 10.48862	  9.70697	 -1.72208	 42.27660	712.20001	 31.30	
 20.401	-175.153	 33.85209	-10.56094	 39.02196	  8.39947	 11.80691	 -1.58718	 42.29445	712.25000	 31.30	
 20.407	-170.264	 33.88760	-10.50454	 38.73104	  6.27046	 14.01561	 -1.52339	 42.26918	712.26001	 31.30	
 20.410	-165.423	 33.95212	-10.24445	 38.24150	  4.33559	 16.20326	 -1.42544	 42.26537	712.31000	 31.30	
 20.392	-160.496	 34.04381	 -9.42974	 37.47091	  2.36617	 18.55020	 -1.37264	 42.25803	712.27002	 31.30	
 20.401	-155.705	 34.04654	 -9.22413	 36.56762	  0.55254	 20.80610	 -1.30314	 42.26842	712.28003	 31.40	
 20.405	-150.835	 34.09177	 -8.63021	 35.41990	 -1.07875	 23.08543	 -1.21293	 42.25990	712.25000	 31.30	
 20.397	-145.903	 34.14117	 -7.50088	 33.99075	 -2.56054	 25.31385	 -1.13957	 42.23188	712.22998	 31.30	
 20.392	-141.062	 34.20158	 -6.37066	 32.46106	 -3.95633	 27.39734	 -1.13353	 42.27818	712.22998	 31.30	
 20.396	-136.227	 34.17282	 -5.41346	 30.74434	 -5.20883	 29.28864	 -1.07858	 42.24477	712.29999	 31.30	
 20.408	-131.372	 34.19395	 -4.26043	 28.98832	 -6.31803	 31.11769	 -1.04614	 42.28557	712.32001	 31.30	
 20.410	-126.511	 34.16717	 -2.94901	 27.06252	 -7.29742	 32.75696	 -1.00998	 42.26384	712.28998	 31.30	
 20.400	-121.604	 34.12895	 -1.42385	 25.01156	 -8.20266	 34.21322	 -0.97311	 42.26854	712.32001	 31.30	
 20.403	-116.741	 34.07621	  0.24646	 22.86092	 -9.00670	 35.48645	 -0.99480	 42.26301	712.27002	 31.30	
 20.413	-111.900	 34.01805	  2.00586	 20.65934	 -9.61083	 36.59760	 -0.97867	 42.27259	712.28998	 31.30	
 20.398	-107.004	 33.97868	  3.92968	 18.33187	-10.13619	 37.47740	 -1.00370	 42.26729	712.22998	 31.30	
 20.394	-102.132	 33.93027	  5.92714	 16.04927	-10.46263	 38.11697	 -1.01319	 42.25864	712.21002	 31.30	
 20.403	-97.332	 33.89961	  7.95643	 13.80161	-10.64658	 38.55246	 -0.99846	 42.27204	712.21997	 31.30	
 20.392	-92.440	 33.85116	 10.10949	 11.52082	-10.74709	 38.71527	 -0.97476	 42.23643	712.34998	 31.30	
 20.392	-87.560	 33.84655	 12.27314	  9.36894	-10.68114	 38.72299	 -1.01225	 42.26876	712.28003	 31.30	
 20.403	-82.668	 33.76094	 14.49619	  7.22387	-10.49023	 38.49867	 -1.00829	 42.25051	712.27002	 31.30	
 20.394	-77.868	 33.71972	 16.66045	  5.15631	-10.16311	 38.05862	 -1.03506	 42.25440	712.42999	 31.30	
 20.398	-72.996	 33.68932	 18.98097	  3.16872	 -9.74909	 37.40693	 -1.09188	 42.26574	712.39001	 31.30	
 20.413	-68.100	 33.58736	 21.29848	  1.26713	 -9.30450	 36.53281	 -1.09782	 42.24191	712.35999	 31.30	
 20.403	-63.259	 33.55698	 23.47153	 -0.43243	 -8.81070	 35.46628	 -1.12621	 42.26894	712.35999	 31.30	
 20.400	-58.396	 33.48199	 25.54577	 -2.00063	 -8.19445	 34.14424	 -1.16608	 42.23333	712.21997	 31.30	
 20.410	-53.489	 33.43500	 27.51738	 -3.51564	 -7.32515	 32.58749	 -1.17553	 42.22876	712.40997	 31.30	
 20.408	-48.628	 33.42214	 29.54922	 -4.88433	 -6.19542	 30.90209	 -1.26286	 42.26985	712.28003	 31.30	
 20.396	-43.773	 33.35363	 31.33029	 -6.07720	 -5.24467	 29.08265	 -1.30631	 42.26299	712.28998	 31.30	
 20.392	-38.938	 33.31312	 32.97227	 -7.03283	 -4.01874	 27.26465	 -1.37382	 42.26812	712.31000	 31.30	
 20.397	-34.097	 33.25714	 34.39782	 -7.90140	 -2.58114	 25.20078	 -1.45653	 42.26183	712.44000	 31.30	
 20.405	-29.165	 33.17526	 35.77038	 -8.92116	 -0.94441	 22.93896	 -1.49268	 42.25711	712.35999	 31.30	
 20.401	-24.295	 33.11757	 36.89999	 -9.46744	  0.73301	 20.71379	 -1.57659	 42.26170	712.44000	 31.30	
 20.392	-19.504	 33.11835	 37.80863	 -9.74918	  2.54553	 18.42032	 -1.71003	 42.27132	712.40002	 31.30	
 20.410	-14.577	 33.03733	 38.53249	-10.28156	  4.49923	 16.19839	 -1.76665	 42.27491	712.29999	 31.30	
 20.407	 -9.736	 32.98658	 38.98234	-10.56148	  6.51212	 13.95347	 -1.85843	 42.26636	712.31000	 31.30	
 20.401	 -4.847	 32.91538	 39.22681	-10.80134	  8.64704	 11.61192	 -1.96811	 42.25798	712.28003	 31.30	
 20.400	  0.000	 32.87411	 39.28819	-10.95731	 10.69011	  9.48874	 -2.09143	 42.28616	712.31000	 31.30	
 20.401	  4.847	 32.78502	 39.15801	-11.10149	 12.72676	  7.40260	 -2.20801	 42.26692	712.38000	 31.30	
 20.407	  9.736	 32.72979	 38.77481	-10.83379	 14.91887	  5.24150	 -2.32814	 42.26641	712.39001	 31.30	
 20.410	 14.577	 32.69873	 38.18949	-10.43885	 17.23156	  3.23564	 -2.43857	 42.26762	712.41998	 31.30	
 20.392	 19.504	 32.65673	 37.39118	-10.10248	 19.57481	  1.24766	 -2.51812	 42.26468	712.40002	 31.30	
 20.401	 24.295	 32.62717	 36.41914	 -9.41297	 21.96972	 -0.51009	 -2.60973	 42.29609	712.34998	 31.30	
 20.405	 29.165	 32.56805	 35.19340	 -8.88568	 24.11232	 -2.06724	 -2.66467	 42.27888	712.40002	 31.30	
 20.397	 34.097	 32.54420	 33.73523	 -8.02261	 26.20970	 -3.51168	 -2.75360	 42.27110	712.41998	 31.30	
 20.392	 38.938	 32.52214	 32.11635	 -6.91644	 28.29726	 -4.91332	 -2.83097	 42.27548	712.34998	 31.30	
 20.396	 43.773	 32.47028	 30.37339	 -5.86315	 30.21069	 -6.22153	 -2.91713	 42.28122	712.27002	 31.30	
 20.408	 48.628	 32.42506	 28.45600	 -4.69019	 31.96814	 -7.42664	 -2.99001	 42.25699	712.35999	 31.30	
 20.410	 53.489	 32.40805	 26.52927	 -3.44892	 33.58239	 -8.50459	 -3.08864	 42.25314	712.34998	 31.30	
 20.400	 58.396	 32.39909	 24.45732	 -1.99352	 35.03854	 -9.43747	 -3.09888	 42.27730	712.34998	 31.30	
 20.403	 63.259	 32.35501	 22.23908	 -0.42177	 36.26886	-10.25186	 -3.09136	 42.26283	712.28998	 31.30	
 20.413	 68.100	 32.32873	 19.86052	  1.26744	 37.31517	-10.96538	 -3.10167	 42.28450	712.39001	 31.30	
 20.398	 72.996	 32.34251	 17.53338	  3.17376	 38.16896	-11.49571	 -3.09949	 42.26789	712.33002	 31.30	
 20.394	 77.868	 32.35783	 15.29749	  5.11344	 38.81515	-11.91248	 -3.09501	 42.27882	712.27002	 31.30	
 20.403	 82.668	 32.35602	 12.99432	  7.12325	 39.17629	-12.23417	 -3.06497	 42.24541	712.25000	 31.30	
 20.392	 87.560	 32.41515	 10.80135	  9.24043	 39.37050	-12.32904	 -3.10013	 42.25490	712.40997	 31.30	
 20.392	 92.440	 32.52042	  8.90409	 11.29442	 39.35733	-11.92831	 -3.16921	 42.25948	712.33002	 31.30	
 20.403	 97.332	 32.55712	  6.95141	 13.33323	 39.14703	-11.81836	 -3.19539	 42.24952	712.34998	 31.30	
 20.394	102.132	 32.65213	  4.89883	 15.60913	 38.72858	-11.50189	 -3.13849	 42.25708	712.31000	 31.30	
 20.398	107.004	 32.70387	  2.87097	 17.78028	 38.09292	-11.46126	 -3.03469	 42.27684	712.33002	 31.30	
 20.413	111.900	 32.77748	  0.91863	 20.12300	 37.19461	-10.89270	 -2.98091	 42.27362	712.32001	 31.30	
 20.403	116.741	 32.88743	 -0.75246	 22.41362	 36.06861	-10.06924	 -2.94220	 42.26682	712.29999	 31.30	
 20.400	121.604	 33.03135	 -2.18528	 24.65425	 34.75662	 -8.79565	 -2.98796	 42.25848	712.28003	 31.30	
 20.410	126.511	 33.12350	 -3.58959	 26.74551	 33.33500	 -7.84134	 -2.97961	 42.27137	712.28003	 31.30	
 20.408	131.372	 33.18229	 -4.94223	 28.74986	 31.67594	 -6.88857	 -2.88699	 42.28898	712.34003	 31.30	
 20.396	136.227	 33.23808	 -6.10782	 30.55276	 29.93605	 -5.94836	 -2.75928	 42.27873	712.34998	 31.30	
 20.392	141.062	 33.30685	 -7.14382	 32.26576	 28.02454	 -4.73755	 -2.69513	 42.27725	712.29999	 31.30	
 20.397	145.903	 33.36093	 -8.09248	 33.81897	 25.98816	 -3.47774	 -2.59396	 42.27576	712.31000	 31.30	
 20.405	150.835	 33.37971	 -8.98778	 35.20787	 23.81532	 -2.06806	 -2.47876	 42.26902	712.25000	 31.30	
 20.401	155.705	 33.41769	 -9.71884	 36.34119	 21.57554	 -0.46574	 -2.36863	 42.26591	712.34003	 31.30	
 20.392	160.496	 33.49632	-10.19596	 37.31720	 19.31812	  1.44844	 -2.22519	 42.25459	712.34998	 31.30	
 20.410	165.423	 33.56149	-10.59875	 38.12354	 16.96111	  3.43437	 -2.08908	 42.27671	712.28998	 31.30	
 20.407	170.264	 33.65329	-10.65841	 38.64652	 14.69551	  5.49953	 -2.01130	 42.26802	712.27002	 31.30	
 20.401	175.153	 33.72573	-10.51615	 38.96295	 12.53298	  7.62736	 -1.86289	 42.25932	712.28998	 31.30	
  0.141	 45.000	 42.39091	 18.42129	 17.98726	 18.66772	 17.05420	  0.87605	 42.28342	712.33002	 31.30	
  4.001	128.691	 42.17510	 14.34620	 21.25236	 22.51722	 12.51567	  0.61812	 42.27156	712.33002	 31.30	
  4.002	 76.995	 42.14739	 19.04217	 16.44880	 23.68975	 11.46756	  0.74589	 42.28161	712.21002	 31.30	
  4.002	 25.892	 42.17787	 22.98371	 12.86796	 20.61873	 14.33738	  0.83627	 42.28828	712.33002	 31.20	
  4.002	-25.892	 42.22461	 23.09686	 12.89640	 15.74700	 19.35082	  0.77843	 42.25996	712.39001	 31.30	
  4.002	-76.995	 42.26619	 19.29346	 16.51919	 12.69818	 22.46301	  0.64830	 42.26208	712.40002	 31.30	
  4.001	-128.691	 42.27985	 14.52119	 21.28767	 13.80056	 21.33943	  0.56756	 42.27236	712.39001	 31.20	
  4.000	180.000	 42.23518	 12.35369	 23.40218	 18.04174	 16.83183	  0.53508	 42.27116	712.39001	 31.20	
  8.000	180.000	 41.43196	  6.87594	 28.15789	 16.98038	 15.81610	 -0.13644	 42.27290	712.34998	 31.20	
  7.991	-152.370	 41.51479	  8.06770	 26.81203	 11.97259	 21.16392	 -0.20420	 42.25853	712.37000	 31.20	
  7.997	-124.550	 41.55494	 11.17942	 23.20432	  8.51096	 25.25961	 -0.22576	 42.24426	712.32001	 31.20	
  8.006	-96.837	 41.52596	 15.92346	 18.13851	  6.94860	 27.33712	 -0.08960	 42.25690	712.34003	 31.20	
  7.988	-69.228	 41.49148	 21.21251	 12.96936	  7.53053	 26.62561	  0.00725	 42.27562	712.39001	 31.20	
  7.997	-41.563	 41.41458	 25.57965	  9.09654	 10.17992	 23.45697	  0.02271	 42.27552	712.41998	 31.20	
  8.008	-13.821	 41.28797	 28.08940	  6.92990	 14.59590	 18.53164	  0.13345	 42.26591	712.34003	 31.20	
  8.008	 13.821	 41.17583	 27.97183	  6.86627	 19.92002	 13.15227	  0.15996	 42.27290	712.23999	 31.20	
  7.997	 41.563	 41.09134	 25.28007	  8.86859	 24.69906	  8.91058	  0.10343	 42.27414	712.29999	 31.20	
  7.988	 69.228	 41.05904	 20.75039	 12.82039	 27.85650	  6.25502	 -0.03275	 42.28090	712.29999	 31.20	
  8.006	 96.837	 41.09077	 15.34868	 18.00931	 28.53799	  5.81570	 -0.10974	 42.27719	712.27002	 31.20	
  7.997	124.550	 41.20438	 10.80044	 23.10706	 26.41779	  7.33955	 -0.19448	 42.28476	712.44000	 31.20	
  7.991	152.370	 41.30151	  7.89030	 26.72945	 22.32032	 10.89739	 -0.13203	 42.25706	712.34003	 31.20	
 12.009	161.059	 39.65789	  1.66786	 31.41668	 20.86716	  9.29812	 -1.20766	 42.27260	712.35999	 31.20	
 12.013	142.081	 39.47817	  3.45109	 28.57314	 25.76728	  4.92000	 -1.25160	 42.26520	712.33002	 31.20	
 12.006	123.113	 39.33741	  6.79989	 24.28730	 29.85797	  1.76727	 -1.17158	 42.27114	712.34003	 31.20	
 12.007	104.200	 39.19345	 11.24088	 19.11407	 32.21874	  0.08706	 -1.20341	 42.25913	712.35999	 31.20	
 11.989	 85.301	 39.13128	 16.41748	 13.72288	 32.79263	 -0.19700	 -1.07639	 42.27670	712.21002	 31.20	
 12.013	 66.294	 39.07915	 21.88656	  8.83215	 31.36192	  0.82805	 -1.06222	 42.27116	712.25000	 31.20	
 12.012	 47.388	 39.08583	 26.67691	  4.84355	 28.15084	  3.15222	 -0.90078	 42.25768	712.26001	 31.20	
 11.990	 28.440	 39.21788	 30.35744	  2.17204	 23.66444	  6.94300	 -0.76113	 42.29229	712.16998	 31.20	
 11.991	  9.464	 39.34074	 32.34116	  0.92240	 18.39528	 11.69074	 -0.75543	 42.27763	712.32001	 31.20	
 11.991	 -9.464	 39.46352	 32.47394	  0.95397	 12.89793	 16.93322	 -0.74299	 42.28375	712.29999	 31.20	
 11.990	-28.440	 39.57359	 30.70214	  2.33497	  8.29130	 22.37970	 -0.89701	 42.26698	712.22998	 31.20	
 12.012	-47.388	 39.67142	 27.19283	  4.96706	  4.53198	 26.99772	 -0.95707	 42.27088	712.22998	 31.20	
 12.013	-66.294	 39.80770	 22.57325	  8.94401	  2.14305	 30.25263	 -1.00836	 42.28658	712.32001	 31.20	
 11.989	-85.301	 39.89939	 17.14895	 13.93105	  1.15162	 31.74529	 -1.02291	 42.28973	712.35999	 31.20	
 12.007	-104.200	 39.94572	 11.90074	 19.34497	  1.42794	 31.25374	 -0.99970	 42.26873	712.27002	 31.20	
 12.006	-123.113	 39.99405	  7.52946	 24.45699	  3.09382	 28.80626	 -1.08795	 42.25303	712.40002	 31.20	
 12.013	-142.081	 40.00747	  4.05036	 28.73497	  6.06066	 24.88239	 -1.03976	 42.29435	712.33002	 31.20	
 12.009	-161.059	 39.93745	  1.95782	 31.47219	 10.22659	 19.87822	 -1.16451	 42.27988	712.38000	 31.20	
 16.000	180.000	 37.34816	 -4.61804	 35.97311	 13.24898	 12.33669	 -1.69383	 42.25186	712.22998	 31.20	
 15.990	-165.604	 37.50515	 -3.98621	 35.27043	  8.22384	 17.65577	 -1.58001	 42.26258	712.34998	 31.20	
 16.002	-151.165	 37.59352	 -2.70850	 33.16465	  3.83182	 23.06705	 -1.36792	 42.29436	712.28003	 31.20	
 16.002	-136.836	 37.64227	 -0.17551	 29.65246	  0.22479	 27.80552	 -1.25463	 42.28016	712.23999	 31.20	
 15.995	-122.439	 37.64374	  3.42014	 25.14767	 -2.49601	 31.77181	 -1.24271	 42.29684	712.29999	 31.20	
 15.993	-107.966	 37.57360	  7.75244	 19.93099	 -4.10761	 34.40110	 -1.18118	 42.29748	712.27002	 31.20	
 16.005	-93.629	 37.47862	 12.55115	 14.50403	 -4.69385	 35.52240	 -1.13949	 42.30069	712.27002	 31.20	
 15.992	-79.234	 37.38563	 17.85432	  9.37402	 -4.32694	 35.11827	 -1.21759	 42.28806	712.40002	 31.20	
 16.009	-64.774	 37.22255	 23.17409	  4.73669	 -3.31974	 33.21693	 -1.26062	 42.25126	712.32001	 31.20	
 15.997	-50.364	 37.15919	 27.97349	  0.76077	 -1.12217	 29.91239	 -1.33896	 42.28876	712.33002	 31.20	
 15.997	-36.045	 37.02408	 31.97203	 -2.17429	  2.17134	 25.51734	 -1.50327	 42.26495	712.26001	 31.20	
 16.000	-21.597	 36.91395	 34.77751	 -3.83218	  6.20739	 20.39727	 -1.53241	 42.29298	712.19000	 31.20	
 16.003	 -7.169	 36.81010	 36.15089	 -4.79654	 10.91429	 14.90740	 -1.51305	 42.31632	712.15997	 31.20	
 16.003	  7.169	 36.65213	 36.02012	 -4.93109	 16.10442	  9.68069	 -1.65028	 42.30051	712.17999	 31.20	
 16.000	 21.597	 36.53725	 34.38422	 -3.86023	 21.64897	  4.91389	 -1.71308	 42.27901	712.26001	 31.20	
 15.997	 36.045	 36.40697	 31.39259	 -2.25760	 26.59402	  0.74132	 -1.77524	 42.29487	712.25000	 31.20	
 15.997	 50.364	 36.39343	 27.28100	  0.78299	 30.85962	 -2.39938	 -2.03173	 42.28555	712.21997	 31.20	
 16.009	 64.774	 36.33510	 22.34086	  4.64397	 34.14468	 -4.54494	 -2.16409	 42.27887	712.15997	 31.20	
 15.992	 79.234	 36.35381	 16.87574	  9.19251	 35.96559	 -5.71034	 -2.12752	 42.26862	712.29999	 31.20	
 16.005	 93.629	 36.46644	 11.69484	 14.31329	 36.32076	 -5.83316	 -2.15552	 42.29164	712.16998	 31.20	
 15.993	107.966	 36.58265	  6.84156	 19.69905	 35.18296	 -5.13824	 -2.19731	 42.27179	712.21002	 31.20	
 15.995	122.439	 36.73359	  2.50939	 24.88890	 32.51930	 -3.47552	 -2.06124	 42.26945	712.29999	 31.20	
 16.002	136.836	 36.87501	 -0.96234	 29.38136	 28.64154	 -0.94541	 -2.10204	 42.25343	712.37000	 31.20	
 16.002	151.165	 37.03104	 -3.11370	 32.93903	 23.98426	  2.83233	 -2.10946	 42.26740	712.23999	 31.20	
 15.990	165.604	 37.21701	 -4.22908	 35.18908	 18.68368	  7.38152	 -1.84166	 42.25787	712.15997	 31.20	
 20.003	168.362	 33.98742	 -9.99468	 38.22089	 15.83685	  5.03033	 -2.05499	 42.26122	712.22998	 31.20	
 20.008	156.764	 33.80785	 -9.24147	 36.38800	 21.18989	  0.47029	 -2.30635	 42.26867	712.26001	 31.20	
 20.000	145.147	 33.71604	 -7.32342	 33.33210	 26.30994	 -3.18345	 -2.57597	 42.24253	712.15997	 31.20	
 19.995	133.545	 33.56139	 -5.01620	 29.51255	 30.77474	 -5.83347	 -2.83040	 42.23320	712.33002	 31.20	
 20.009	121.926	 33.39502	 -1.89254	 24.84536	 34.47140	 -8.15221	 -2.94759	 42.23711	712.23999	 31.20	
 20.005	110.327	 33.14730	  2.00428	 19.56778	 37.25238	-10.26789	 -2.99324	 42.22720	712.31000	 31.20	
 19.989	 98.733	 32.98079	  6.69810	 14.24688	 38.79723	-11.12640	 -3.10645	 42.24382	712.13000	 31.20	
 19.999	 87.075	 32.78851	 11.31999	  9.28563	 39.13177	-11.79435	 -3.03373	 42.24476	712.21002	 31.20	
 19.992	 75.457	 32.73228	 16.64205	  4.48895	 38.28355	-11.16676	 -3.02073	 42.25566	712.20001	 31.20	
 20.009	 63.844	 32.74843	 22.07397	  0.17000	 36.17516	 -9.82603	 -3.05656	 42.26105	712.21997	 31.20	
 19.989	 52.269	 32.83119	 26.99979	 -3.16723	 33.04347	 -7.66447	 -2.97881	 42.22573	712.23999	 31.20	
 19.999	 40.602	 32.89274	 31.41254	 -5.88535	 28.92452	 -4.90764	 -2.80729	 42.23267	712.23999	 31.20	
 20.004	 29.051	 32.95866	 35.00315	 -8.13705	 24.15284	 -1.65275	 -2.63407	 42.22696	712.27002	 31.20	
 20.005	 17.433	 33.04752	 37.52145	 -9.65477	 18.89017	  2.48025	 -2.44918	 42.23473	712.26001	 31.20	
 20.006	  5.780	 33.16261	 38.84894	-10.34916	 13.48440	  7.26120	 -2.20926	 42.24599	712.25000	 31.20	
 20.006	 -5.780	 33.29715	 38.92820	-10.13877	  8.54033	 12.31483	 -1.93560	 42.23142	712.23999	 31.20	
 20.005	-17.433	 33.43677	 37.88197	 -9.44799	  3.75013	 17.60247	 -1.75092	 42.24572	712.20001	 31.20	
 20.004	-29.051	 33.54586	 35.60967	 -8.45483	 -0.45070	 22.92923	 -1.51897	 42.23870	712.19000	 31.20	
 19.999	-40.602	 33.68063	 32.21260	 -6.29544	 -4.01121	 27.87352	 -1.38039	 42.24724	712.13000	 31.20	
 19.989	-52.269	 33.80854	 28.00089	 -3.43771	 -6.56424	 32.08098	 -1.23627	 42.23658	712.09003	 31.20	
 20.009	-63.844	 33.87965	 23.20885	  0.16267	 -8.42643	 35.37012	 -1.16637	 42.21179	712.15997	 31.20	
 19.992	-75.457	 34.02859	 17.89127	  4.51968	 -9.47403	 37.49417	 -1.04404	 42.21885	712.22998	 31.20	
 19.999	-87.075	 34.16445	 12.70769	  9.43843	-10.13969	 38.43164	 -1.01165	 42.24074	712.19000	 31.20	
 19.989	-98.733	 34.23104	  7.66378	 14.66138	-10.05000	 38.13787	 -1.03786	 42.21478	712.17999	 31.20	
 20.005	-110.327	 34.32450	  3.01542	 20.01409	 -9.20580	 36.64710	 -0.97643	 42.22286	712.15002	 31.20	
 20.009	-121.926	 34.44728	 -1.06170	 25.14185	 -7.67869	 33.89422	 -0.98717	 42.22780	712.21997	 31.20	
 19.995	-133.545	 34.50956	 -4.38716	 29.69190	 -5.38502	 30.18731	 -1.04259	 42.23517	712.25000	 31.20	
 20.000	-145.147	 34.50468	 -6.68620	 33.59172	 -2.35088	 25.65438	 -1.18244	 42.23568	712.22998	 31.20	
 20.008	-156.764	 34.39650	 -8.61157	 36.56527	  1.36601	 20.45064	 -1.33918	 42.23556	712.21002	 31.20	
 20.003	-168.362	 34.26932	 -9.62426	 38.27551	  5.83366	 15.10870	 -1.49903	 42.22582	712.22998	 31.20	
 20.000	180.000	 34.15458	 -9.90399	 38.81105	 10.76976	  9.96595	 -1.74621	 42.24313	712.32001	 31.20	
