FileType=PCF
NHL=14
Date=03/12/19	10:24:02
Facility=APL
Serial=16071-11
Customer=NASA
NP=6
Mach=0.380000
Calibration=1:1
CalPts=490
TstPts=95
PortNumbering=AP Standard
Units=Torr C m/s kg/m^3 deg mm 
Theta[deg]	Phi[deg]	P1[Torr]	P2[Torr]	P3[Torr]	P4[Torr]	P5[Torr]	P6[Torr]	Pt[Torr]	Ps[Abs,Torr]	Ts[C]	
  0.000	  0.000	 66.57729	 29.28218	 28.76211	 29.47565	 27.44139	  1.21935	 66.42723	711.95001	 39.40	
  1.691	128.401	 66.53525	 26.86652	 30.85018	 32.05698	 24.49185	  1.13270	 66.41666	711.95001	 39.40	
  1.692	 77.194	 66.54733	 29.90236	 27.85436	 32.74095	 23.76940	  1.21106	 66.44299	711.92999	 39.30	
  1.699	 26.182	 66.52156	 32.34766	 25.41368	 30.92341	 25.73902	  1.27245	 66.40437	711.90002	 39.30	
  1.699	-26.182	 66.54008	 32.39727	 25.44677	 27.80924	 28.99067	  1.23200	 66.40332	711.98999	 39.20	
  1.692	-77.194	 66.51515	 30.01009	 27.90198	 25.85044	 30.97657	  1.14052	 66.37523	711.90002	 39.20	
  1.691	-128.401	 66.50082	 26.96791	 30.87137	 26.51760	 30.18927	  1.08460	 66.36226	712.03003	 39.20	
  1.700	180.000	 66.50609	 25.49301	 32.20682	 29.29938	 27.30209	  1.06404	 66.37754	711.92999	 39.10	
  3.400	180.000	 66.39975	 21.49363	 35.62520	 28.94935	 26.98378	  0.82953	 66.36537	711.96997	 39.10	
  3.388	-152.325	 66.44286	 22.43815	 34.80502	 25.61799	 30.44984	  0.83795	 66.38205	711.97998	 39.10	
  3.397	-124.529	 66.46619	 24.83569	 32.48412	 23.02452	 33.12841	  0.85023	 66.38080	711.91998	 39.10	
  3.399	-96.763	 66.46035	 28.14820	 29.26382	 21.85112	 34.30174	  0.93686	 66.36076	712.00000	 39.00	
  3.394	-69.283	 66.44775	 31.54794	 25.83912	 22.32101	 33.94353	  0.98428	 66.37032	711.98999	 39.00	
  3.400	-41.398	 66.41093	 34.22760	 22.94472	 24.30050	 31.97296	  1.08190	 66.36760	712.03003	 38.90	
  3.401	-14.021	 66.36510	 35.79008	 21.34336	 27.34236	 28.80387	  1.15131	 66.33945	711.97998	 38.90	
  3.401	 14.021	 66.32153	 35.69875	 21.27938	 30.79273	 25.18272	  1.18736	 66.35103	711.96002	 38.90	
  3.400	 41.398	 66.29582	 34.13620	 22.85336	 33.63929	 22.03240	  1.16958	 66.35196	712.02002	 38.90	
  3.394	 69.283	 66.26678	 31.25587	 25.73349	 35.70764	 19.95923	  1.10652	 66.35719	711.95001	 38.80	
  3.399	 96.763	 66.26794	 27.80050	 29.15259	 36.06799	 19.57946	  1.02227	 66.34541	711.85999	 38.80	
  3.397	124.529	 66.24507	 24.52850	 32.34987	 34.71162	 20.84120	  0.93188	 66.29480	711.92999	 38.80	
  3.388	152.325	 66.34065	 22.25327	 34.71472	 32.18900	 23.53780	  0.84684	 66.35258	712.01001	 38.70	
  5.099	161.165	 65.99551	 17.93090	 38.33094	 31.73485	 22.85467	  0.48063	 66.32838	712.02002	 38.70	
  5.109	142.013	 65.91483	 19.41494	 36.49081	 34.96814	 19.51713	  0.52724	 66.31250	711.97998	 38.70	
  5.095	123.033	 65.89581	 22.08477	 33.78244	 37.59414	 17.26405	  0.61975	 66.34840	711.96997	 38.60	
  5.105	104.191	 65.81219	 25.36696	 30.49628	 39.19183	 15.91212	  0.68818	 66.30829	711.90002	 38.60	
  5.093	 85.207	 65.76540	 28.97374	 26.93037	 39.54128	 15.71222	  0.79064	 66.29938	712.01001	 38.60	
  5.104	 66.290	 65.76231	 32.50156	 23.46817	 38.60894	 16.45534	  0.88003	 66.30197	711.96997	 38.60	
  5.094	 47.331	 65.81176	 35.46129	 20.55809	 36.55103	 18.33121	  0.94162	 66.32726	711.98999	 38.50	
  5.089	 28.397	 65.85606	 37.70702	 18.63376	 33.64437	 21.11940	  0.98276	 66.32066	712.01001	 38.50	
  5.096	  9.576	 65.87952	 39.02130	 17.56968	 30.39063	 24.62454	  0.98425	 66.29510	712.06000	 38.40	
  5.096	 -9.576	 65.94048	 39.13099	 17.61144	 26.85206	 28.31423	  0.95749	 66.30695	712.03003	 38.40	
  5.089	-28.397	 65.99862	 37.88423	 18.69064	 23.46564	 31.80688	  0.88305	 66.29321	712.06000	 38.40	
  5.094	-47.331	 66.03829	 35.72841	 20.64494	 20.58007	 34.68065	  0.78593	 66.27170	712.04999	 38.40	
  5.104	-66.290	 66.08387	 32.89641	 23.55208	 18.74845	 36.67065	  0.71653	 66.28379	712.09998	 38.40	
  5.093	-85.207	 66.12661	 29.49790	 27.05141	 17.99461	 37.55991	  0.63052	 66.27998	712.03003	 38.30	
  5.105	-104.191	 66.15360	 25.85926	 30.63269	 18.21135	 37.23824	  0.56223	 66.29691	712.01001	 38.30	
  5.095	-123.033	 66.13203	 22.47635	 33.83411	 19.43547	 35.68440	  0.52662	 66.26807	712.09998	 38.30	
  5.109	-142.013	 66.09767	 19.72347	 36.57934	 21.69436	 33.19176	  0.49155	 66.26258	712.10999	 38.30	
  5.099	-161.165	 66.03720	 18.06737	 38.34559	 24.82120	 30.08113	  0.46548	 66.23528	712.12000	 38.20	
  5.100	180.000	 66.01872	 17.46308	 38.94656	 28.33312	 26.44773	  0.45549	 66.27975	712.01001	 38.20	
  6.800	180.000	 65.48463	 13.60462	 42.19531	 27.71933	 25.72041	  0.03543	 66.26945	712.04999	 38.20	
  6.796	-166.229	 65.56850	 14.09387	 41.77669	 24.22629	 29.31316	  0.03145	 66.28089	712.06000	 38.20	
  6.808	-152.311	 65.57610	 15.27997	 40.41810	 20.94489	 32.74913	  0.04158	 66.23959	712.06000	 38.20	
  6.795	-138.383	 65.65493	 17.20497	 38.34492	 18.42920	 35.58231	  0.07742	 66.26799	712.15997	 38.10	
  6.792	-124.591	 65.67602	 19.68223	 35.59163	 16.37183	 37.95229	  0.04236	 66.25632	712.09998	 38.10	
  6.787	-110.754	 65.64901	 22.81855	 32.46020	 14.72602	 39.79424	  0.11191	 66.24020	712.07001	 38.10	
  6.800	-96.985	 65.62309	 26.24457	 29.07187	 13.94332	 40.78803	  0.17045	 66.22974	711.98999	 38.10	
  6.800	-83.015	 65.59737	 29.80233	 25.54528	 13.96310	 40.81236	  0.21288	 66.24492	712.09003	 38.10	
  6.787	-69.246	 65.56318	 33.11520	 22.19469	 14.74043	 39.86729	  0.28167	 66.25013	712.09003	 38.10	
  6.792	-55.409	 65.48508	 36.12672	 19.32707	 16.39758	 38.03904	  0.36173	 66.22253	712.02002	 38.00	
  6.795	-41.617	 65.43637	 38.73432	 16.80177	 18.52692	 35.67988	  0.42707	 66.24426	711.96997	 38.00	
  6.808	-27.689	 65.37019	 40.83827	 14.93133	 21.24333	 32.70646	  0.50831	 66.23199	712.10999	 38.00	
  6.796	-13.771	 65.30242	 42.13298	 13.80077	 24.57900	 29.28292	  0.58786	 66.23275	712.12000	 38.00	
  6.800	  0.000	 65.19212	 42.49509	 13.36364	 28.04858	 25.68953	  0.62728	 66.21748	711.96997	 38.00	
  6.796	 13.771	 65.15493	 41.91440	 13.79349	 31.49783	 22.12187	  0.64020	 66.24266	712.00000	 37.90	
  6.808	 27.689	 65.08480	 40.48556	 14.89760	 34.65210	 18.96037	  0.66024	 66.23074	712.04999	 37.90	
  6.795	 41.617	 65.04619	 38.23014	 16.73565	 37.64268	 16.21189	  0.42453	 66.23713	712.01001	 37.90	
  6.792	 55.409	 65.02295	 35.62310	 19.20342	 40.08886	 14.04819	  0.52233	 66.25838	711.98999	 37.90	
  6.787	 69.246	 64.96734	 32.50952	 22.04184	 41.77217	 12.57443	  0.43551	 66.20602	712.06000	 37.90	
  6.800	 83.015	 65.01503	 29.07666	 25.39696	 42.75704	 11.80687	  0.37850	 66.26550	712.16998	 37.90	
  6.800	 96.985	 65.02275	 25.45912	 28.94129	 42.68289	 11.80187	  0.30625	 66.23123	712.00000	 37.80	
  6.787	110.754	 65.08337	 22.05975	 32.31298	 41.65529	 12.61850	  0.23288	 66.22628	712.08002	 37.80	
  6.792	124.591	 65.18260	 19.04443	 35.47564	 39.83925	 14.07425	  0.15831	 66.27131	712.03003	 37.80	
  6.795	138.383	 65.20841	 16.69431	 38.17444	 37.38696	 16.13470	  0.12425	 66.22603	712.02002	 37.80	
  6.808	152.311	 65.30769	 14.99419	 40.32990	 34.35645	 18.87549	  0.04636	 66.23941	712.07001	 37.80	
  6.796	166.229	 65.35089	 13.97583	 41.66030	 31.06343	 22.08368	  0.02679	 66.19705	712.07001	 37.70	
  8.491	168.704	 64.61625	 10.12351	 44.83526	 30.44462	 21.21753	 -0.45061	 66.21738	712.00000	 37.70	
  8.502	157.493	 64.48017	 10.86869	 43.67606	 33.85418	 18.02912	 -0.63471	 66.17404	712.10999	 37.70	
  8.494	146.194	 64.41859	 12.27862	 41.80882	 37.00084	 15.01949	 -0.53387	 66.20320	712.02002	 37.70	
  8.495	135.039	 64.32589	 14.15888	 39.40992	 39.86635	 12.58743	 -0.34595	 66.17974	712.02002	 37.70	
  8.487	123.723	 64.27467	 16.61531	 36.50071	 42.36673	 10.53396	 -0.63501	 66.23059	712.02002	 37.60	
  8.492	112.575	 64.18619	 19.40956	 33.34721	 44.26043	  9.03460	 -0.43393	 66.22623	712.15002	 37.60	
  8.510	101.220	 64.07270	 22.73017	 29.85826	 45.53219	  8.02955	 -0.19908	 66.19798	712.10999	 37.60	
  8.500	 90.000	 64.01855	 26.40058	 26.28863	 45.94249	  7.71367	 -0.14660	 66.20010	712.15997	 37.60	
  8.510	 78.780	 64.00249	 30.03461	 22.81129	 45.63240	  8.05685	 -0.31275	 66.21885	712.12000	 37.60	
  8.492	 67.425	 64.03447	 33.58500	 19.63507	 44.46392	  8.98137	 -0.38454	 66.24546	712.17999	 37.60	
  8.487	 56.277	 64.01505	 36.64637	 16.70255	 42.58659	 10.51486	 -0.01507	 66.19691	712.15002	 37.60	
  8.495	 44.961	 64.07773	 39.45538	 14.09100	 40.17303	 12.58313	 -0.20566	 66.21452	712.06000	 37.60	
  8.494	 33.806	 64.09648	 41.97564	 12.10077	 37.32228	 15.02169	 -0.05497	 66.20351	712.09998	 37.50	
  8.502	 22.507	 64.14182	 43.88410	 10.67020	 34.14908	 17.93959	  0.08034	 66.19164	712.08002	 37.50	
  8.491	 11.296	 64.23292	 45.10128	  9.80636	 30.79111	 21.22118	 -0.07643	 66.20267	712.22998	 37.50	
  8.500	  0.000	 64.29513	 45.60069	  9.51850	 27.24886	 24.78100	  0.21280	 66.18797	712.15997	 37.50	
  8.491	-11.296	 64.42787	 45.31610	  9.85890	 23.70675	 28.49188	  0.13920	 66.23217	712.21997	 37.50	
  8.502	-22.507	 64.48524	 44.22858	 10.76248	 20.32704	 32.00437	  0.01373	 66.20338	712.25000	 37.50	
  8.494	-33.806	 64.54874	 42.44266	 12.32280	 17.48851	 35.22141	 -0.00550	 66.17459	712.21997	 37.50	
  8.495	-44.961	 64.62902	 40.09016	 14.21095	 14.73267	 38.09521	 -0.19967	 66.18203	712.15002	 37.40	
  8.487	-56.277	 64.69981	 37.25188	 16.92477	 12.64388	 40.65967	 -0.14681	 66.20122	712.15002	 37.40	
  8.492	-67.425	 64.73578	 34.19827	 19.81298	 11.10011	 42.58318	 -0.23328	 66.18281	712.10999	 37.40	
  8.510	-78.780	 64.78120	 30.82417	 22.94984	 10.16533	 43.75803	 -0.29836	 66.19597	712.21997	 37.40	
  8.500	-90.000	 64.77904	 27.26596	 26.43589	  9.88342	 44.08673	 -0.32063	 66.15361	712.19000	 37.40	
  8.510	-101.220	 64.83365	 23.69783	 30.00130	 10.10663	 43.72348	 -0.36118	 66.16484	712.22998	 37.40	
  8.492	-112.575	 64.87284	 20.26326	 33.46957	 11.05932	 42.47871	 -0.42222	 66.17860	712.21002	 37.40	
  8.487	-123.723	 64.90125	 17.40789	 36.62470	 12.46814	 40.62385	 -0.65787	 66.18613	712.13000	 37.30	
  8.495	-135.039	 64.88885	 14.85962	 39.55785	 14.41928	 38.07170	 -0.46133	 66.17700	712.22998	 37.30	
  8.494	-146.194	 64.83196	 12.76887	 41.94550	 17.09997	 35.33298	 -0.43167	 66.16549	712.13000	 37.30	
  8.502	-157.493	 64.78651	 11.16018	 43.77179	 20.02355	 32.12382	 -0.48900	 66.17167	712.15997	 37.30	
  8.491	-168.704	 64.74026	 10.13973	 44.87016	 23.29249	 28.57006	 -0.48080	 66.18227	712.22998	 37.30	
  8.500	180.000	 64.62934	  9.71992	 45.23687	 26.89843	 24.87915	 -0.46791	 66.15897	712.27002	 37.30	
 10.200	180.000	 63.68970	  6.00404	 48.10253	 25.87530	 23.68883	 -1.04214	 66.18127	712.22998	 37.30	
 10.191	-170.497	 63.79148	  6.40946	 47.79158	 22.31968	 27.70721	 -1.28206	 66.20475	712.19000	 37.30	
 10.210	-161.034	 63.81041	  7.15887	 46.87954	 19.07069	 31.33074	 -1.35846	 66.16027	712.26001	 37.30	
 10.194	-151.526	 63.89846	  8.55245	 45.32403	 15.77367	 34.70802	 -1.18788	 66.17651	712.25000	 37.20	
 10.190	-142.105	 63.98225	 10.31274	 43.23198	 13.12698	 37.79668	 -0.93933	 66.19913	712.15002	 37.20	
 10.215	-132.646	 63.95810	 12.42769	 40.57502	 10.76293	 40.65503	 -1.02324	 66.15831	712.16998	 37.20	
 10.203	-123.092	 63.91632	 14.99736	 37.52025	  8.85988	 43.12297	 -1.28583	 66.14330	712.09998	 37.20	
 10.192	-113.678	 63.95364	 17.85768	 34.36470	  7.55356	 45.03793	 -0.97371	 66.20156	712.20001	 37.20	
 10.208	-104.249	 63.89563	 21.00592	 30.93216	  6.62352	 46.28033	 -1.17205	 66.17506	712.13000	 37.20	
 10.210	-94.801	 63.82938	 24.60604	 27.29421	  6.18657	 46.94396	 -0.89817	 66.13184	712.09003	 37.20	
 10.210	-85.199	 63.77470	 28.25705	 23.66480	  6.21316	 46.91808	 -0.86513	 66.10519	712.15002	 37.20	
 10.208	-75.751	 63.74994	 31.81775	 20.36322	  6.61438	 46.31828	 -0.88200	 66.16807	712.20001	 37.20	
 10.192	-66.322	 63.69059	 35.13920	 17.14415	  7.62680	 44.99295	 -0.84120	 66.14334	712.15002	 37.10	
 10.203	-56.908	 63.66308	 38.23296	 14.22359	  9.02395	 43.11419	 -0.72747	 66.17861	712.09003	 37.10	
 10.215	-47.354	 63.57112	 41.24233	 11.66347	 10.92790	 40.54654	 -0.90162	 66.15456	712.16998	 37.10	
 10.190	-37.895	 63.50109	 43.80845	  9.56114	 13.35043	 37.63597	 -0.95081	 66.13084	712.21002	 37.10	
 10.194	-28.474	 63.42191	 45.83669	  7.89024	 16.24409	 34.53185	 -0.89371	 66.14967	712.13000	 37.10	
 10.210	-18.966	 63.33228	 47.38950	  6.66457	 19.34964	 31.16490	 -0.78344	 66.16396	712.06000	 37.10	
 10.191	 -9.503	 63.30512	 48.24184	  5.97246	 22.74638	 27.49394	 -0.55674	 66.21391	712.09998	 37.10	
 10.200	  0.000	 63.19008	 48.48933	  5.63885	 26.35689	 23.55306	 -0.65777	 66.20340	712.21997	 37.10	
 10.191	  9.503	 63.09784	 48.05052	  5.92182	 29.95751	 20.23696	 -0.69587	 66.18073	712.10999	 37.10	
 10.210	 18.966	 62.95959	 46.98461	  6.52390	 33.39977	 16.84840	 -0.72718	 66.15381	712.16998	 37.10	
 10.194	 28.474	 62.90006	 45.32874	  7.67643	 36.67718	 13.75782	 -0.71208	 66.16706	712.23999	 37.10	
 10.190	 37.895	 62.83832	 43.12157	  9.31451	 39.79955	 11.09842	 -0.74018	 66.15067	712.33002	 37.10	
 10.215	 47.354	 62.82036	 40.39117	 11.44058	 42.70167	  8.74217	 -0.89964	 66.19775	712.23999	 37.10	
 10.203	 56.908	 62.79833	 37.44672	 14.01369	 45.10524	  6.79481	 -1.05750	 66.20523	712.21997	 37.00	
 10.192	 66.322	 62.77621	 34.33302	 16.91598	 46.91949	  5.31970	 -1.10317	 66.20983	712.28003	 37.00	
 10.208	 75.751	 62.73762	 30.84297	 20.13279	 48.12754	  4.35805	 -1.10675	 66.16656	712.28003	 37.00	
 10.210	 85.199	 62.77025	 27.23681	 23.45313	 48.75014	  3.92357	 -1.05543	 66.16681	712.28998	 37.00	
 10.210	 94.801	 62.83584	 23.40185	 27.07752	 48.71321	  3.87118	 -1.32184	 66.16463	712.34998	 37.00	
 10.208	104.249	 62.88347	 19.87811	 30.67037	 48.04096	  4.32574	 -0.76949	 66.16222	712.27002	 37.00	
 10.192	113.678	 62.97411	 16.73396	 34.09949	 46.73130	  5.38863	 -1.31724	 66.16277	712.32001	 36.90	
 10.203	123.092	 63.06756	 13.91176	 37.31134	 44.81476	  6.84504	 -1.30980	 66.14598	712.15002	 36.90	
 10.215	132.646	 63.19100	 11.40179	 40.38444	 42.40622	  8.76862	 -0.91306	 66.17796	712.23999	 36.90	
 10.190	142.105	 63.26693	  9.47180	 42.98831	 39.46298	 11.19497	 -1.41493	 66.14223	712.34998	 36.90	
 10.194	151.526	 63.36940	  7.94529	 45.17143	 36.33364	 13.94805	 -1.20640	 66.16064	712.33002	 36.90	
 10.210	161.034	 63.45841	  6.80769	 46.78783	 33.02063	 17.08357	 -1.45861	 66.16044	712.21002	 36.90	
 10.191	170.497	 63.57512	  6.15422	 47.73514	 29.47463	 20.46684	 -1.33972	 66.15458	712.20001	 36.90	
 11.899	171.783	 62.33340	  2.31855	 50.41990	 28.30528	 19.41581	 -1.96645	 66.12730	712.32001	 36.90	
 11.890	163.610	 62.24929	  2.76977	 49.57340	 31.91991	 16.06262	 -1.97144	 66.15324	712.28003	 36.90	
 11.889	155.445	 62.14053	  3.72472	 48.18206	 35.31140	 12.90157	 -2.04611	 66.14555	712.32001	 36.90	
 11.909	147.299	 62.04975	  4.92722	 46.35501	 38.52919	  9.98313	 -2.08057	 66.17670	712.29999	 36.90	
 11.902	139.148	 61.91515	  6.51200	 43.95254	 41.68476	  7.29138	 -2.02575	 66.13710	712.29999	 36.90	
 11.894	130.867	 61.83224	  8.63006	 41.12165	 44.57772	  5.03732	 -1.98541	 66.16618	712.28003	 36.90	
 11.897	122.732	 61.74085	 11.12046	 38.03352	 46.98841	  3.20687	 -1.97288	 66.16891	712.23999	 36.90	
 11.903	114.597	 61.64046	 13.94784	 34.78212	 48.83042	  1.81265	 -1.98678	 66.15854	712.28998	 36.90	
 11.893	106.346	 61.53558	 17.12102	 31.30645	 50.18049	  0.78055	 -1.70042	 66.15370	712.20001	 36.90	
 11.892	 98.155	 61.46125	 20.50851	 27.66432	 51.05558	  0.09903	 -1.97896	 66.15128	712.15997	 36.90	
 11.900	 90.000	 61.42942	 24.05843	 24.05937	 51.43717	 -0.08748	 -1.87274	 66.18854	712.19000	 36.80	
 11.892	 81.845	 61.37600	 27.83302	 20.67271	 51.16983	  0.20097	 -1.79692	 66.18860	712.22998	 36.80	
 11.893	 73.654	 61.32620	 31.47854	 17.27364	 50.33020	  0.79592	 -1.75114	 66.17995	712.16998	 36.80	
 11.903	 65.403	 61.28163	 34.94945	 14.12011	 48.97499	  1.76982	 -1.77858	 66.13582	712.32001	 36.80	
 11.897	 57.268	 61.30358	 38.07709	 11.31485	 47.17620	  3.18335	 -1.78152	 66.11694	712.22998	 36.80	
 11.894	 49.133	 61.36351	 41.13634	  8.79906	 44.91584	  5.03762	 -1.62351	 66.17215	712.26001	 36.80	
 11.902	 40.852	 61.39123	 44.05142	  6.59830	 42.09662	  7.22553	 -1.39465	 66.16431	712.27002	 36.80	
 11.909	 32.701	 61.45580	 46.49171	  4.77807	 38.96962	  9.69984	 -1.32737	 66.17213	712.23999	 36.80	
 11.889	 24.555	 61.53409	 48.40882	  3.41288	 35.73079	 12.54002	 -1.36805	 66.17670	712.27002	 36.80	
 11.890	 16.390	 61.59296	 49.78001	  2.52752	 32.37090	 15.72827	 -1.36715	 66.14220	712.22998	 36.80	
 11.899	  8.217	 61.71245	 50.72210	  1.91660	 28.78212	 19.13316	 -1.32086	 66.18263	712.26001	 36.80	
 11.900	  0.000	 61.76774	 51.08900	  1.67213	 25.11391	 22.61723	 -1.26451	 66.14872	712.29999	 36.80	
 11.899	 -8.217	 61.86531	 50.90049	  1.92992	 21.49300	 26.32899	 -1.26173	 66.14996	712.16998	 36.80	
 11.890	-16.390	 62.01189	 50.18495	  2.64735	 18.20318	 30.15716	 -1.35795	 66.18874	712.27002	 36.80	
 11.889	-24.555	 62.09437	 48.89764	  3.75799	 15.05546	 33.63474	 -1.46968	 66.15569	712.28998	 36.70	
 11.909	-32.701	 62.17738	 47.16225	  5.05289	 12.12780	 36.86604	 -1.55357	 66.14930	712.28003	 36.70	
 11.902	-40.852	 62.23545	 44.89111	  6.78013	  9.50591	 39.92254	 -1.56762	 66.13824	712.21002	 36.70	
 11.894	-49.133	 62.33155	 42.14179	  8.93992	  7.25688	 42.85046	 -1.54920	 66.16744	712.25000	 36.70	
 11.897	-57.268	 62.40260	 39.05514	 11.43876	  5.50769	 45.22854	 -1.40644	 66.14641	712.31000	 36.70	
 11.903	-65.403	 62.43370	 35.92316	 14.24057	  4.02100	 47.19370	 -1.65506	 66.12983	712.31000	 36.70	
 11.893	-73.654	 62.47459	 32.54197	 17.47345	  2.95780	 48.62469	 -1.61833	 66.12470	712.20001	 36.70	
 11.892	-81.845	 62.54880	 28.98335	 20.95356	  2.44341	 49.46624	 -1.64972	 66.13177	712.26001	 36.70	
 11.900	-90.000	 62.60820	 25.36169	 24.35225	  2.26823	 49.76776	 -1.39867	 66.15044	712.26001	 36.70	
 11.892	-98.155	 62.66029	 21.75109	 27.97435	  2.48192	 49.48347	 -1.59861	 66.14231	712.34998	 36.70	
 11.893	-106.346	 62.70348	 18.41181	 31.61751	  2.99627	 48.63641	 -1.62645	 66.14610	712.39001	 36.70	
 11.903	-114.597	 62.73400	 15.29113	 35.04670	  3.97905	 47.24016	 -1.70903	 66.13419	712.39001	 36.70	
 11.897	-122.732	 62.79058	 12.47945	 38.29041	  5.35446	 45.36140	 -1.74064	 66.14697	712.39001	 36.70	
 11.894	-130.867	 62.76211	  9.87350	 41.33090	  7.02530	 42.98073	 -1.71746	 66.10996	712.38000	 36.70	
 11.902	-139.148	 62.72592	  7.59294	 44.15986	  9.14389	 39.99674	 -1.69193	 66.09547	712.44000	 36.60	
 11.909	-147.299	 62.69671	  5.75796	 46.49498	 11.64673	 37.01214	 -1.74199	 66.10091	712.31000	 36.60	
 11.889	-155.445	 62.67911	  4.38214	 48.30291	 14.50775	 33.78675	 -1.85201	 66.13052	712.38000	 36.60	
 11.890	-163.610	 62.60863	  3.24354	 49.63993	 17.78139	 30.32901	 -1.93660	 66.13304	712.34998	 36.60	
 11.899	-171.783	 62.51884	  2.47909	 50.43432	 21.14949	 26.58287	 -2.01045	 66.11623	712.32001	 36.60	
 11.900	180.000	 62.46982	  2.24650	 50.73381	 24.67439	 22.89073	 -1.75003	 66.16246	712.32001	 36.60	
 13.600	180.000	 60.99352	 -1.82592	 53.19601	 23.29618	 21.66467	 -2.38994	 66.14551	712.25000	 36.60	
 13.608	-172.853	 61.09401	 -1.57972	 53.00205	 19.96081	 25.14708	 -2.39695	 66.15908	712.34003	 36.60	
 13.611	-165.583	 61.14719	 -0.96891	 52.28915	 16.39876	 29.01806	 -2.35450	 66.13261	712.40997	 36.60	
 13.601	-158.353	 61.26289	  0.07206	 51.12469	 13.17966	 32.61140	 -2.22556	 66.14812	712.35999	 36.60	
 13.609	-151.210	 61.31361	  1.30058	 49.48477	 10.29382	 36.00211	 -2.07458	 66.14999	712.37000	 36.60	
 13.611	-143.999	 61.32364	  2.92453	 47.37530	  7.58570	 39.20869	 -1.97965	 66.11462	712.46997	 36.60	
 13.601	-136.825	 61.35651	  4.85120	 44.88881	  5.35354	 42.24624	 -1.96023	 66.11880	712.35999	 36.60	
 13.596	-129.640	 61.40350	  7.10241	 42.04190	  3.56365	 45.01159	 -1.96764	 66.14768	712.31000	 36.60	
 13.611	-122.431	 61.37223	  9.71331	 38.88429	  1.87408	 47.42899	 -1.97291	 66.14122	712.32001	 36.60	
 13.604	-115.211	 61.28924	 12.58932	 35.53180	  0.44472	 49.30828	 -1.92041	 66.10312	712.40002	 36.60	
 13.595	-108.042	 61.23605	 15.64034	 32.10590	 -0.64476	 50.73721	 -1.85276	 66.10945	712.39001	 36.60	
 13.607	-100.793	 61.20164	 18.87566	 28.49229	 -1.46785	 51.78624	 -1.79194	 66.15202	712.38000	 36.60	
 13.601	-93.617	 61.11989	 22.23260	 24.80023	 -1.89385	 52.26289	 -1.80132	 66.12136	712.44000	 36.60	
 13.601	-86.383	 61.09228	 25.86119	 21.37668	 -1.85303	 52.27985	 -1.85460	 66.14840	712.46997	 36.60	
 13.607	-79.207	 61.01738	 29.52842	 17.88671	 -1.46057	 51.76283	 -1.93234	 66.13283	712.37000	 36.60	
 13.595	-71.958	 60.97078	 33.11365	 14.47723	 -0.64690	 50.74733	 -1.98319	 66.13367	712.37000	 36.60	
 13.604	-64.789	 60.89499	 36.45204	 11.44172	  0.44287	 49.27847	 -1.93703	 66.11425	712.27002	 36.60	
 13.611	-57.569	 60.83263	 39.66850	  8.62216	  1.85945	 47.32606	 -1.92170	 66.12324	712.28003	 36.60	
 13.596	-50.360	 60.80262	 42.85719	  6.24081	  3.58283	 44.87963	 -1.93165	 66.14982	712.23999	 36.60	
 13.601	-43.175	 60.69900	 45.67546	  4.07278	  5.58654	 42.08749	 -2.01698	 66.12169	712.26001	 36.60	
 13.611	-36.001	 60.60454	 48.10681	  2.28217	  7.99371	 39.04676	 -2.06321	 66.12181	712.34003	 36.50	
 13.609	-28.790	 60.56343	 50.10286	  0.74778	 10.74206	 35.83044	 -2.03918	 66.14133	712.28998	 36.50	
 13.601	-21.647	 60.48167	 51.60937	 -0.53841	 13.68758	 32.40108	 -1.94303	 66.13510	712.29999	 36.50	
 13.611	-14.417	 60.35427	 52.73222	 -1.59802	 16.91928	 28.69833	 -1.85959	 66.12512	712.21997	 36.50	
 13.608	 -7.147	 60.25402	 53.42408	 -2.20185	 20.42235	 24.89523	 -1.81471	 66.14803	712.31000	 36.50	
 13.600	  0.000	 60.18420	 53.58262	 -2.39253	 23.85591	 21.35469	 -1.81842	 66.16241	712.29999	 36.50	
 13.608	  7.147	 60.05617	 53.23484	 -2.23981	 27.47370	 17.87571	 -1.91124	 66.14269	712.28998	 36.50	
 13.611	 14.417	 59.97011	 52.37963	 -1.61260	 31.17012	 14.43656	 -1.97401	 66.13280	712.27002	 36.50	
 13.601	 21.647	 59.91092	 51.09027	 -0.71030	 34.63810	 11.27448	 -1.96330	 66.15330	712.32001	 36.50	
 13.609	 28.790	 59.82365	 49.40714	  0.46747	 37.87704	  8.31635	 -1.96073	 66.14142	712.28998	 36.50	
 13.611	 36.001	 59.73178	 47.23775	  1.95971	 41.17076	  5.56347	 -1.98224	 66.14030	712.39001	 36.50	
 13.601	 43.175	 59.67334	 44.63837	  3.86855	 44.16566	  3.23010	 -2.10984	 66.11649	712.45001	 36.50	
 13.596	 50.360	 59.65178	 41.70096	  6.03606	 46.80791	  1.26170	 -2.29818	 66.11936	712.40002	 36.50	
 13.611	 57.569	 59.61919	 38.56007	  8.51763	 49.09690	 -0.48091	 -2.46629	 66.13020	712.42999	 36.50	
 13.604	 64.789	 59.61462	 35.32757	 11.31481	 50.96988	 -1.86582	 -2.46757	 66.12884	712.34003	 36.50	
 13.595	 71.958	 59.59813	 31.87995	 14.33038	 52.38630	 -2.88227	 -2.43498	 66.13418	712.22998	 36.50	
 13.607	 79.207	 59.63012	 28.20811	 17.58496	 53.38452	 -3.62351	 -2.48011	 66.14268	712.39001	 36.50	
 13.601	 86.383	 59.67061	 24.47351	 21.05170	 53.84713	 -3.94643	 -2.48579	 66.12177	712.41998	 36.50	
 13.601	 93.617	 59.74936	 20.93962	 24.51571	 53.80094	 -3.99625	 -2.53814	 66.11346	712.32001	 36.50	
 13.607	100.793	 59.84973	 17.54011	 28.16596	 53.27919	 -3.65165	 -2.63668	 66.16833	712.27002	 36.50	
 13.595	108.042	 59.92560	 14.22567	 31.80230	 52.18560	 -2.90831	 -2.67902	 66.10344	712.32001	 36.50	
 13.604	115.211	 60.05261	 11.15423	 35.23776	 50.78625	 -1.89413	 -2.59314	 66.14135	712.37000	 36.50	
 13.611	122.431	 60.15045	  8.33820	 38.54435	 48.85885	 -0.55971	 -2.56368	 66.13162	712.32001	 36.50	
 13.596	129.640	 60.26502	  5.80006	 41.72234	 46.51051	  1.05189	 -2.58630	 66.13951	712.31000	 36.50	
 13.601	136.825	 60.33820	  3.61245	 44.59455	 43.79737	  3.11179	 -2.60469	 66.12345	712.31000	 36.40	
 13.611	143.999	 60.46634	  1.89979	 47.15932	 40.74714	  5.83784	 -2.64522	 66.15745	712.32001	 36.40	
 13.609	151.210	 60.54671	  0.48533	 49.28981	 37.41958	  8.65474	 -2.62889	 66.13428	712.34003	 36.40	
 13.601	158.353	 60.66670	 -0.58837	 50.96659	 34.17434	 11.61951	 -2.51830	 66.15186	712.26001	 36.40	
 13.611	165.583	 60.77138	 -1.39908	 52.22118	 30.62352	 14.82361	 -2.41151	 66.13698	712.44000	 36.40	
 13.608	172.853	 60.89395	 -1.83707	 52.98477	 26.88091	 18.26275	 -2.37053	 66.15099	712.34003	 36.40	
 15.298	173.587	 59.23376	 -5.76467	 55.24889	 25.32172	 16.86814	 -2.69596	 66.16352	712.35999	 36.40	
 15.291	167.167	 59.10106	 -5.31718	 54.52153	 29.04212	 13.51507	 -2.77244	 66.10495	712.28003	 36.40	
 15.307	160.676	 58.98650	 -4.64567	 53.42076	 32.70630	 10.29699	 -2.91256	 66.11733	712.35999	 36.40	
 15.300	154.261	 58.90176	 -3.75990	 51.94809	 36.13005	  7.30217	 -3.09385	 66.14272	712.35999	 36.40	
 15.288	147.854	 58.80828	 -2.50285	 49.99998	 39.38332	  4.51644	 -3.18893	 66.12846	712.33002	 36.40	
 15.293	141.428	 58.70207	 -0.95532	 47.68936	 42.62342	  2.00873	 -3.22588	 66.12480	712.44000	 36.40	
 15.299	134.985	 58.63290	  0.86355	 45.03804	 45.61991	 -0.22586	 -3.19907	 66.13974	712.47998	 36.40	
 15.305	128.583	 58.46233	  2.96520	 42.04532	 48.31154	 -2.42477	 -3.16811	 66.12817	712.39001	 36.40	
 15.309	122.142	 58.34499	  5.43164	 38.85923	 50.58077	 -4.14997	 -3.11621	 66.12644	712.33002	 36.40	
 15.304	115.711	 58.23305	  8.25551	 35.52759	 52.51675	 -5.48013	 -3.15028	 66.12874	712.28998	 36.40	
 15.297	109.291	 58.11409	 11.29057	 32.02669	 54.05541	 -6.56689	 -3.27972	 66.10609	712.34003	 36.40	
 15.293	102.897	 58.04541	 14.49059	 28.47219	 55.15813	 -7.31893	 -3.29429	 66.13603	712.38000	 36.40	
 15.293	 96.458	 57.92276	 17.83413	 24.81542	 55.81945	 -7.73671	 -3.24403	 66.11226	712.42999	 36.30	
 15.300	 90.000	 57.86456	 21.23169	 21.35456	 56.09383	 -7.77735	 -3.16263	 66.12804	712.42999	 36.30	
 15.293	 83.542	 57.79368	 24.71155	 17.91460	 55.88488	 -7.75767	 -3.14813	 66.14036	712.34998	 36.30	
 15.293	 77.103	 57.73256	 28.43166	 14.56452	 55.24829	 -7.23183	 -3.12658	 66.12148	712.31000	 36.30	
 15.297	 70.709	 57.68757	 32.04558	 11.45100	 54.19658	 -6.49851	 -3.10748	 66.10896	712.29999	 36.30	
 15.304	 64.289	 57.70620	 35.56021	  8.50284	 52.72923	 -5.45940	 -3.16776	 66.12749	712.28003	 36.30	
 15.309	 57.858	 57.75807	 38.88191	  5.71642	 50.84616	 -4.09470	 -3.16068	 66.16113	712.33002	 36.30	
 15.305	 51.417	 57.77214	 42.04379	  3.16601	 48.56752	 -2.42655	 -2.99096	 66.15087	712.31000	 36.30	
 15.299	 45.015	 57.80228	 45.05949	  0.99714	 45.95023	 -0.45224	 -2.81249	 66.13546	712.29999	 36.30	
 15.293	 38.572	 57.87184	 47.75098	 -0.90302	 43.04096	  1.80278	 -2.68314	 66.14315	712.28003	 36.30	
 15.288	 32.146	 57.95418	 50.11172	 -2.51224	 39.82014	  4.30174	 -2.61075	 66.14705	712.27002	 36.30	
 15.300	 25.739	 58.02962	 52.07655	 -3.84057	 36.56599	  6.98123	 -2.53800	 66.17883	712.34003	 36.30	
 15.307	 19.324	 58.05275	 53.63417	 -4.89401	 33.20007	  9.92096	 -2.54943	 66.13749	712.23999	 36.30	
 15.291	 12.833	 58.11826	 54.76620	 -5.62113	 29.57644	 13.15855	 -2.50655	 66.09785	712.27002	 36.30	
 15.298	  6.413	 58.20678	 55.53533	 -6.12822	 25.86036	 16.56225	 -2.41988	 66.11787	712.29999	 36.30	
 15.300	  0.000	 58.32234	 55.87620	 -6.26133	 22.34949	 19.99167	 -2.35414	 66.15277	712.28998	 36.30	
 15.298	 -6.413	 58.40570	 55.68437	 -5.97242	 18.96769	 23.47513	 -2.28055	 66.10349	712.38000	 36.30	
 15.291	-12.833	 58.53030	 55.13408	 -5.52803	 15.52788	 27.11151	 -2.29715	 66.12328	712.34998	 36.30	
 15.307	-19.324	 58.61340	 54.16087	 -4.81468	 12.29391	 30.85490	 -2.29975	 66.12410	712.28003	 36.30	
 15.300	-25.739	 58.73624	 52.74604	 -3.79795	  9.33608	 34.47880	 -2.33337	 66.15453	712.33002	 36.30	
 15.288	-32.146	 58.83769	 50.95237	 -2.52643	  6.59968	 37.84722	 -2.34301	 66.14744	712.27002	 36.30	
 15.293	-38.572	 58.91515	 48.77023	 -0.83343	  4.14088	 41.02114	 -2.29827	 66.13562	712.33002	 36.30	
 15.299	-45.015	 59.00728	 46.22658	  1.10044	  1.83057	 44.02794	 -2.15254	 66.14163	712.33002	 36.30	
 15.305	-51.417	 59.03463	 43.30769	  3.31712	 -0.32868	 46.79115	 -2.06171	 66.16223	712.39001	 36.30	
 15.309	-57.858	 59.10852	 40.09908	  5.90022	 -2.15057	 49.22362	 -2.02627	 66.16884	712.33002	 36.20	
 15.304	-64.289	 59.16318	 36.84707	  8.67054	 -3.50437	 51.13033	 -2.00625	 66.13418	712.35999	 36.20	
 15.297	-70.709	 59.24449	 33.48582	 11.61806	 -4.50680	 52.63245	 -1.99072	 66.13245	712.38000	 36.20	
 15.293	-77.103	 59.30542	 29.97085	 14.80339	 -5.23625	 53.77575	 -1.93246	 66.12859	712.27002	 36.20	
 15.293	-83.542	 59.39764	 26.26824	 18.25942	 -5.66974	 54.46477	 -1.86453	 66.13582	712.27002	 36.20	
 15.300	-90.000	 59.47110	 22.65941	 21.77958	 -5.76092	 54.70757	 -1.81795	 66.12984	712.37000	 36.20	
 15.293	-96.458	 59.52390	 19.28203	 25.22344	 -5.73948	 54.50551	 -1.77970	 66.15951	712.40002	 36.20	
 15.293	-102.897	 59.55255	 15.94398	 28.86955	 -5.33235	 53.80688	 -1.77913	 66.13184	712.32001	 36.20	
 15.297	-109.291	 59.64650	 12.82774	 32.43887	 -4.67998	 52.76197	 -1.86077	 66.17609	712.46002	 36.20	
 15.304	-115.711	 59.68179	  9.78931	 35.87857	 -3.65245	 51.22456	 -1.89325	 66.14073	712.38000	 36.20	
 15.309	-122.142	 59.72672	  6.94664	 39.22585	 -2.25533	 49.30427	 -1.89946	 66.14392	712.46997	 36.20	
 15.305	-128.583	 59.74307	  4.31548	 42.42469	 -0.48697	 46.95250	 -1.94654	 66.13723	712.37000	 36.20	
 15.299	-134.985	 59.76408	  1.97171	 45.37548	  1.52265	 44.24329	 -1.95169	 66.13303	712.37000	 36.20	
 15.293	-141.428	 59.75241	 -0.06180	 48.00935	  3.76461	 41.13802	 -2.00868	 66.14307	712.34003	 36.20	
 15.288	-147.854	 59.65633	 -1.72759	 50.22823	  6.18172	 38.00623	 -2.10303	 66.09097	712.34998	 36.20	
 15.300	-154.261	 59.64718	 -3.03781	 52.15046	  8.86812	 34.71820	 -2.22996	 66.14916	712.34998	 36.20	
 15.307	-160.676	 59.58073	 -4.13589	 53.60539	 11.78309	 31.18975	 -2.34928	 66.11887	712.34998	 36.20	
 15.291	-167.167	 59.53125	 -4.96567	 54.64451	 14.99830	 27.47079	 -2.48004	 66.14499	712.44000	 36.20	
 15.298	-173.587	 59.43109	 -5.46891	 55.30140	 18.41870	 23.81230	 -2.55155	 66.14169	712.34998	 36.20	
 15.300	180.000	 59.30829	 -5.81086	 55.47683	 21.89044	 20.28662	 -2.61724	 66.14239	712.34003	 36.20	
 17.000	180.000	 57.40072	 -9.65736	 57.57101	 20.11896	 18.84568	 -2.76207	 66.12192	712.32001	 36.20	
 16.990	-174.179	 57.53983	 -9.24880	 57.40110	 16.89196	 22.21583	 -2.60859	 66.13963	712.44000	 36.20	
 17.009	-168.383	 57.60624	 -8.99683	 56.87082	 13.56023	 25.69640	 -2.48362	 66.13675	712.38000	 36.20	
 17.000	-162.596	 57.70369	 -8.19191	 55.91653	 10.45150	 29.40895	 -2.35405	 66.13487	712.38000	 36.20	
 16.990	-156.759	 57.79847	 -7.15501	 54.57490	  7.50727	 33.10992	 -2.21187	 66.14156	712.35999	 36.20	
 16.995	-150.919	 57.84019	 -5.97597	 52.84877	  4.63043	 36.61516	 -2.07340	 66.12757	712.35999	 36.20	
 16.988	-145.161	 57.89658	 -4.45962	 50.81604	  2.01583	 39.84452	 -1.98591	 66.13461	712.32001	 36.10	
 17.014	-139.343	 57.90104	 -2.64941	 48.39940	 -0.40643	 42.97295	 -1.91119	 66.12933	712.29999	 36.20	
 17.007	-133.546	 57.92191	 -0.58181	 45.62689	 -2.48024	 45.99945	 -1.85303	 66.10991	712.37000	 36.20	
 17.001	-127.699	 57.90317	  1.65818	 42.56034	 -4.31891	 48.65751	 -1.80979	 66.10637	712.33002	 36.20	
 17.006	-121.937	 57.88613	  4.10425	 39.43549	 -5.92096	 50.89135	 -1.75364	 66.14097	712.38000	 36.20	
 17.002	-116.134	 57.85260	  6.89702	 36.11104	 -7.25043	 52.79240	 -1.74863	 66.13630	712.37000	 36.10	
 17.001	-110.310	 57.74883	  9.86191	 32.58517	 -8.33614	 54.42326	 -1.73308	 66.11815	712.33002	 36.10	
 16.988	-104.517	 57.69486	 12.97102	 28.96794	 -9.07915	 55.64523	 -1.70126	 66.15062	712.27002	 36.10	
 17.008	-98.662	 57.59502	 16.21925	 25.31631	 -9.69806	 56.52064	 -1.66694	 66.15069	712.26001	 36.10	
 16.996	-92.909	 57.55752	 19.57659	 21.84995	 -9.67259	 56.88557	 -1.66811	 66.15777	712.28998	 36.10	
 16.996	-87.091	 57.49673	 22.87000	 18.42523	 -9.57160	 56.84492	 -1.71131	 66.13484	712.33002	 36.10	
 17.012	-81.253	 57.37741	 26.36759	 15.00391	 -9.45500	 56.45932	 -1.73141	 66.13302	712.33002	 36.10	
 16.988	-75.483	 57.33749	 30.09779	 11.79927	 -8.95185	 55.58517	 -1.79936	 66.11781	712.39001	 36.10	
 17.001	-69.690	 57.30832	 33.66782	  8.78648	 -8.18035	 54.42801	 -1.86967	 66.15909	712.28998	 36.10	
 17.002	-63.866	 57.21476	 37.10098	  5.78897	 -7.11285	 52.80836	 -1.89410	 66.15166	712.35999	 36.10	
 17.006	-58.063	 57.11997	 40.34944	  2.95432	 -5.79675	 50.84623	 -1.94289	 66.14429	712.31000	 36.10	
 17.001	-52.301	 57.10349	 43.50388	  0.56102	 -4.16013	 48.54907	 -2.02062	 66.17351	712.38000	 36.10	
 17.007	-46.454	 57.03369	 46.51122	 -1.69916	 -2.29258	 45.83676	 -2.11246	 66.15961	712.29999	 36.10	
 17.014	-40.657	 56.94820	 49.22548	 -3.74308	 -0.09516	 42.79757	 -2.21850	 66.17712	712.39001	 36.10	
 16.988	-34.839	 56.86371	 51.54663	 -5.47250	  2.41880	 39.63910	 -2.33787	 66.18059	712.34003	 36.10	
 16.995	-29.081	 56.74162	 53.51571	 -6.87504	  4.97540	 36.42180	 -2.41286	 66.15312	712.27002	 36.20	
 16.990	-23.241	 56.71218	 55.21287	 -7.92917	  7.92554	 32.87029	 -2.47764	 66.18159	712.17999	 36.10	
 17.000	-17.404	 56.58712	 56.47509	 -8.81942	 10.93180	 28.97657	 -2.48730	 66.14524	712.13000	 36.10	
 17.009	-11.617	 56.47744	 57.34250	 -9.50692	 14.06319	 25.40110	 -2.53441	 66.12672	712.26001	 36.20	
 16.990	 -5.821	 56.40553	 57.81470	 -9.73711	 17.45561	 21.79998	 -2.63013	 66.13471	712.31000	 36.20	
 17.000	  0.000	 56.32328	 58.03379	-10.02024	 20.84374	 18.39833	 -2.78730	 66.17361	712.22998	 36.20	
 16.990	  5.821	 56.19141	 57.62960	 -9.96811	 24.23601	 14.97919	 -2.90035	 66.12553	712.28998	 36.20	
 17.009	 11.617	 56.10535	 57.02105	 -9.54973	 27.91865	 11.61933	 -3.02860	 66.15477	712.32001	 36.20	
 17.000	 17.404	 56.05098	 55.93535	 -8.85226	 31.54968	  8.46415	 -3.04968	 66.16204	712.28003	 36.20	
 16.990	 23.241	 55.96634	 54.44630	 -7.83709	 35.03428	  5.60057	 -3.06591	 66.12968	712.34998	 36.10	
 16.995	 29.081	 55.89569	 52.63149	 -6.70896	 38.37439	  2.84385	 -3.14041	 66.15176	712.25000	 36.10	
 16.988	 34.839	 55.80558	 50.50040	 -5.33213	 41.60001	  0.30391	 -3.24290	 66.14247	712.28003	 36.10	
 17.014	 40.657	 55.73869	 48.05191	 -3.69514	 44.71061	 -2.06388	 -3.35040	 66.13396	712.37000	 36.10	
 17.007	 46.454	 55.73489	 45.21379	 -1.72335	 47.63573	 -4.18091	 -3.50260	 66.17714	712.39001	 36.10	
 17.001	 52.301	 55.71207	 42.07481	  0.47783	 50.16888	 -5.96845	 -3.67805	 66.16373	712.25000	 36.10	
 17.006	 58.063	 55.64123	 38.93295	  2.83528	 52.33524	 -7.57555	 -3.79781	 66.10544	712.25000	 36.10	
 17.002	 63.866	 55.69371	 35.65782	  5.59444	 54.26359	 -8.95329	 -3.81101	 66.18990	712.35999	 36.10	
 17.001	 69.690	 55.67767	 32.10013	  8.54696	 55.81114	-10.02893	 -3.77851	 66.16046	712.27002	 36.10	
 16.988	 75.483	 55.71552	 28.38084	 11.62068	 57.03877	-10.79830	 -3.76733	 66.18224	712.19000	 36.10	
 17.012	 81.253	 55.70270	 24.76217	 14.78361	 57.86528	-11.44285	 -3.78230	 66.17490	712.15002	 36.10	
 16.996	 87.091	 55.77218	 21.15628	 18.20781	 58.25157	-11.75840	 -3.77599	 66.17980	712.29999	 36.10	
 16.996	 92.909	 55.84070	 17.91863	 21.53514	 58.22447	-11.58472	 -3.83185	 66.14838	712.21002	 36.10	
 17.008	 98.662	 55.87802	 14.63707	 24.91191	 57.74547	-11.55496	 -3.90365	 66.15157	712.34998	 36.10	
 16.988	104.517	 56.02488	 11.36842	 28.53394	 56.89069	-11.00010	 -3.87851	 66.13971	712.38000	 36.10	
 17.001	110.310	 56.11687	  8.29064	 32.13475	 55.64512	-10.11737	 -3.81938	 66.13574	712.25000	 36.10	
 17.002	116.134	 56.24002	  5.33407	 35.66784	 54.08178	 -9.02795	 -3.69113	 66.15055	712.29999	 36.10	
 17.006	121.937	 56.33917	  2.65004	 38.98632	 52.16050	 -7.70220	 -3.62317	 66.14452	712.26001	 36.10	
 17.001	127.699	 56.48292	  0.26580	 42.17574	 49.93513	 -6.00644	 -3.62469	 66.13618	712.33002	 36.10	
 17.007	133.546	 56.59053	 -1.92065	 45.24207	 47.33101	 -4.08589	 -3.62816	 66.14407	712.28998	 36.10	
 17.014	139.343	 56.70545	 -3.79606	 48.04149	 44.36219	 -1.90897	 -3.64950	 66.16038	712.16998	 36.10	
 16.988	145.161	 56.80954	 -5.33026	 50.45208	 41.18860	  0.51566	 -3.60464	 66.12418	712.26001	 36.10	
 16.995	150.919	 56.93026	 -6.65644	 52.57561	 37.99474	  3.06632	 -3.52379	 66.16624	712.33002	 36.10	
 16.990	156.759	 57.01828	 -7.76457	 54.34436	 34.60472	  5.87342	 -3.30023	 66.15533	712.28003	 36.10	
 17.000	162.596	 57.08588	 -8.64287	 55.73978	 31.01288	  8.86161	 -3.10651	 66.11608	712.25000	 36.10	
 17.009	168.383	 57.22839	 -9.25943	 56.79483	 27.28766	 12.07896	 -2.97867	 66.16205	712.31000	 36.10	
 16.990	174.179	 57.33719	 -9.64974	 57.38703	 23.78811	 15.46645	 -2.81431	 66.15173	712.21997	 36.10	
 18.709	174.675	 55.20755	-13.18318	 59.32652	 21.78628	 13.84790	 -2.82845	 66.14950	712.32001	 36.10	
 18.703	169.441	 55.12703	-12.98525	 58.74447	 25.50308	 10.55853	 -3.05025	 66.13913	712.32001	 36.10	
 18.691	164.085	 55.03178	-12.38036	 57.81401	 29.04703	  7.37447	 -3.22923	 66.15292	712.27002	 36.10	
 18.706	158.818	 54.92204	-11.48471	 56.53926	 32.70929	  4.38662	 -3.42612	 66.14484	712.20001	 36.10	
 18.695	153.537	 54.82192	-10.41492	 54.87542	 36.24309	  1.58343	 -3.64751	 66.14354	712.22998	 36.10	
 18.704	148.255	 54.73040	 -9.26783	 52.95288	 39.49486	 -1.03454	 -3.81766	 66.17040	712.15002	 36.00	
 18.698	142.952	 54.59956	 -7.84125	 50.68281	 42.69612	 -3.45183	 -3.90846	 66.16505	712.15997	 36.00	
 18.699	137.625	 54.50295	 -6.21348	 48.14280	 45.86703	 -5.74424	 -3.97279	 66.19030	712.16998	 36.00	
 18.705	132.343	 54.32979	 -4.34579	 45.22816	 48.76766	 -7.86173	 -3.98992	 66.14233	712.19000	 36.00	
 18.713	127.067	 54.27748	 -2.21845	 42.16270	 51.28172	 -9.51912	 -4.02295	 66.17431	712.20001	 36.00	
 18.700	121.794	 54.20869	  0.01325	 38.96920	 53.47659	-10.93258	 -4.08208	 66.16517	712.19000	 36.10	
 18.698	116.504	 54.06738	  2.50190	 35.60752	 55.41232	-12.10361	 -4.14986	 66.14934	712.15002	 36.00	
 18.707	111.165	 53.92058	  5.28425	 32.00601	 57.07901	-12.98021	 -4.26871	 66.13591	712.23999	 36.00	
 18.690	105.863	 53.77203	  8.17185	 28.39359	 58.36912	-13.77403	 -4.39110	 66.14211	712.28003	 36.00	
 18.696	100.583	 53.68045	 11.32798	 24.85944	 59.32587	-14.44040	 -4.46056	 66.18179	712.19000	 36.00	
 18.700	 95.309	 53.54600	 14.64658	 21.25590	 59.84177	-14.72998	 -4.52984	 66.15875	712.25000	 36.00	
 18.700	 90.000	 53.46838	 17.65123	 18.13666	 60.09171	-14.88121	 -4.45067	 66.14935	712.16998	 36.00	
 18.700	 84.691	 53.37592	 20.97400	 14.90785	 59.94807	-14.85619	 -4.38312	 66.15318	712.17999	 36.00	
 18.696	 79.417	 53.37341	 24.58274	 11.68080	 59.36767	-14.56542	 -4.39189	 66.16025	712.19000	 36.00	
 18.690	 74.137	 53.35677	 28.18160	  8.51055	 58.43602	-14.21119	 -4.37752	 66.13607	712.27002	 36.00	
 18.707	 68.835	 53.46556	 31.87727	  5.44080	 57.17542	-13.46112	 -4.37255	 66.14604	712.26001	 36.00	
 18.698	 63.496	 53.39859	 35.52835	  2.62473	 55.53982	-12.23458	 -4.38876	 66.14687	712.28003	 36.00	
 18.700	 58.206	 53.45327	 38.90140	  0.06937	 53.62831	-10.89743	 -4.38972	 66.16986	712.28003	 36.00	
 18.713	 52.933	 53.44844	 42.08823	 -2.28172	 51.45659	 -9.46276	 -4.29640	 66.18001	712.26001	 36.00	
 18.705	 47.657	 53.41619	 45.18424	 -4.48052	 48.98102	 -7.83147	 -4.11627	 66.16340	712.13000	 36.00	
 18.699	 42.375	 53.49302	 48.11919	 -6.43970	 46.20087	 -5.85616	 -3.98815	 66.22216	712.23999	 36.00	
 18.698	 37.048	 53.52720	 50.71576	 -8.14464	 43.08570	 -3.56315	 -3.86862	 66.18414	712.19000	 36.00	
 18.704	 31.745	 53.60989	 52.96884	 -9.62784	 39.90540	 -1.20918	 -3.74968	 66.17771	712.14001	 36.00	
 18.695	 26.463	 53.67986	 54.98281	-10.90007	 36.65543	  1.26901	 -3.62425	 66.20188	712.28003	 36.00	
 18.706	 21.182	 53.76595	 56.67816	-11.95787	 33.18368	  4.04215	 -3.54621	 66.19262	712.14001	 36.00	
 18.691	 15.915	 53.88387	 58.02474	-12.71273	 29.60368	  7.02299	 -3.49448	 66.21423	712.31000	 36.00	
 18.703	 10.559	 53.90707	 58.99314	-13.41761	 25.90088	 10.12910	 -3.35050	 66.21179	712.26001	 36.00	
 18.709	  5.325	 53.94375	 59.60106	-13.86360	 22.35986	 13.40003	 -3.19851	 66.17442	712.22998	 36.00	
 18.700	  0.000	 54.05477	 59.87962	-13.99553	 18.77746	 16.83154	 -3.06624	 66.19364	712.19000	 36.00	
 18.709	 -5.325	 54.13983	 59.76139	-13.67870	 15.65289	 20.10520	 -2.87107	 66.17387	712.13000	 36.00	
 18.703	-10.559	 54.22795	 59.30279	-13.45892	 12.48235	 23.59189	 -2.71727	 66.16703	712.19000	 36.00	
 18.691	-15.915	 54.38189	 58.50665	-12.79874	  9.39942	 27.26156	 -2.59647	 66.17256	712.26001	 36.00	
 18.706	-21.182	 54.45297	 57.35295	-12.04850	  6.33390	 30.92920	 -2.49909	 66.15188	712.25000	 36.00	
 18.695	-26.463	 54.54641	 55.82460	-11.04504	  3.39299	 34.57701	 -2.38928	 66.14441	712.15002	 36.00	
 18.704	-31.745	 54.59409	 53.97116	 -9.84133	  0.63465	 37.98623	 -2.28878	 66.13383	712.27002	 36.00	
 18.698	-37.048	 54.71836	 51.79652	 -8.32790	 -1.84157	 41.25204	 -2.15679	 66.15928	712.20001	 36.00	
 18.699	-42.375	 54.81758	 49.37108	 -6.56528	 -4.06116	 44.37956	 -2.06248	 66.15946	712.23999	 36.00	
 18.705	-47.657	 54.82643	 46.56800	 -4.57168	 -6.05040	 47.34652	 -1.96242	 66.14077	712.23999	 36.00	
 18.713	-52.933	 54.90509	 43.55750	 -2.33921	 -7.71306	 49.93007	 -1.89027	 66.11440	712.20001	 36.00	
 18.700	-58.206	 55.02126	 40.42504	  0.01153	 -9.26839	 52.24458	 -1.77297	 66.15121	712.22998	 36.00	
 18.698	-63.496	 55.04829	 37.10899	  2.67410	-10.70550	 54.24033	 -1.72422	 66.12450	712.25000	 36.00	
 18.707	-68.835	 55.06425	 33.59907	  5.62137	-11.88643	 55.92456	 -1.65607	 66.10358	712.27002	 36.00	
 18.690	-74.137	 55.18937	 30.02349	  8.72414	-12.65462	 57.24052	 -1.58950	 66.13750	712.14001	 36.00	
 18.696	-79.417	 55.23452	 26.30809	 11.86962	-13.18796	 58.14878	 -1.55942	 66.11004	712.34998	 36.00	
 18.700	-84.691	 55.36023	 22.77055	 15.18030	-13.54444	 58.75278	 -1.52990	 66.15633	712.20001	 36.00	
 18.700	-90.000	 55.42325	 19.47713	 18.47544	-13.45984	 58.91537	 -1.49750	 66.14953	712.28003	 36.00	
 18.700	-95.309	 55.38803	 16.29924	 21.68982	-13.72307	 58.76898	 -1.51096	 66.11596	712.21997	 36.00	
 18.696	-100.583	 55.44309	 12.95469	 25.30001	-13.44542	 58.20521	 -1.58939	 66.10120	712.32001	 36.00	
 18.690	-105.863	 55.55608	  9.80396	 28.86331	-12.77724	 57.29971	 -1.57397	 66.12704	712.20001	 36.00	
 18.707	-111.165	 55.62579	  6.75919	 32.48471	-12.01876	 56.03008	 -1.54842	 66.13914	712.17999	 36.00	
 18.698	-116.504	 55.74048	  3.85122	 36.06722	-10.86457	 54.34601	 -1.54332	 66.14172	712.27002	 36.00	
 18.700	-121.794	 55.80761	  1.31191	 39.39199	 -9.52934	 52.35418	 -1.55968	 66.13515	712.28998	 36.00	
 18.713	-127.067	 55.83183	 -1.09721	 42.59919	 -8.00987	 50.12541	 -1.60908	 66.11509	712.14001	 36.00	
 18.705	-132.343	 55.82617	 -3.37465	 45.67699	 -6.28016	 47.57738	 -1.64338	 66.13411	712.21997	 36.00	
 18.699	-137.625	 55.86460	 -5.38511	 48.52264	 -4.31568	 44.66670	 -1.68370	 66.15522	712.20001	 36.00	
 18.698	-142.952	 55.84422	 -7.12789	 51.04668	 -2.09876	 41.45686	 -1.76171	 66.11597	712.26001	 36.00	
 18.704	-148.255	 55.82620	 -8.70961	 53.29221	  0.31186	 38.27934	 -1.85392	 66.15289	712.25000	 36.00	
 18.695	-153.537	 55.74852	-10.05800	 55.14968	  2.96071	 34.88625	 -1.93448	 66.11244	712.16998	 36.00	
 18.706	-158.818	 55.64394	-11.18866	 56.72649	  5.88484	 31.25234	 -2.06791	 66.09960	712.20001	 36.00	
 18.691	-164.085	 55.62815	-12.08852	 57.99234	  8.95068	 27.52581	 -2.20683	 66.15443	712.02002	 36.00	
 18.703	-169.441	 55.49018	-12.90352	 58.87899	 12.01637	 23.89643	 -2.33124	 66.15156	712.21997	 36.00	
 18.709	-174.675	 55.34696	-13.24570	 59.39727	 15.18140	 20.36908	 -2.48966	 66.11983	712.15002	 36.00	
 18.700	180.000	 55.27740	-13.46566	 59.53563	 18.14172	 17.27956	 -2.69105	 66.13645	712.27002	 36.00	
 20.400	180.000	 52.98661	-16.49994	 61.17256	 16.12438	 15.64271	 -2.59254	 66.14922	712.19000	 36.00	
 20.401	-175.153	 53.07817	-16.43570	 61.03650	 13.43534	 18.50930	 -2.30940	 66.13518	712.07001	 36.00	
 20.407	-170.264	 53.21044	-16.13846	 60.61967	 10.42272	 21.93840	 -2.15274	 66.16100	712.14001	 36.00	
 20.410	-165.423	 53.31819	-15.66498	 59.87706	  7.25126	 25.50479	 -2.02787	 66.16853	712.21002	 36.00	
 20.392	-160.496	 53.42046	-15.10376	 58.71466	  4.10111	 29.22747	 -1.89777	 66.14276	712.21002	 36.00	
 20.401	-155.705	 53.46094	-14.12417	 57.25129	  1.34425	 32.86599	 -1.78042	 66.13177	712.14001	 36.00	
 20.405	-150.835	 53.54031	-12.90036	 55.49816	 -1.13633	 36.37749	 -1.70709	 66.14642	712.09998	 36.00	
 20.397	-145.903	 53.60787	-11.45809	 53.41420	 -3.59139	 39.84739	 -1.63449	 66.18980	712.20001	 36.00	
 20.392	-141.062	 53.60264	 -9.83516	 51.04165	 -5.86493	 42.98483	 -1.54360	 66.16600	712.17999	 35.90	
 20.396	-136.227	 53.59620	 -8.05922	 48.42726	 -7.92073	 46.06797	 -1.49589	 66.12195	712.12000	 35.90	
 20.408	-131.372	 53.57177	 -6.10515	 45.58064	 -9.75035	 48.86094	 -1.48791	 66.14774	712.10999	 35.90	
 20.410	-126.511	 53.57076	 -3.92413	 42.47308	-11.37371	 51.41575	 -1.44317	 66.15666	712.17999	 35.90	
 20.400	-121.604	 53.48851	 -1.48023	 39.15990	-12.78603	 53.66908	 -1.41548	 66.11302	712.27002	 35.90	
 20.403	-116.741	 53.42205	  1.05311	 35.80138	-14.03110	 55.63351	 -1.40301	 66.12975	712.17999	 35.90	
 20.413	-111.900	 53.34946	  3.71195	 32.25838	-15.12760	 57.39823	 -1.42641	 66.14394	712.16998	 35.90	
 20.398	-107.004	 53.26559	  6.63491	 28.60847	-15.85514	 58.71324	 -1.42274	 66.13727	712.23999	 35.90	
 20.394	-102.132	 53.20772	  9.77340	 25.07016	-16.45666	 59.72353	 -1.42653	 66.16203	712.22998	 35.90	
 20.403	-97.332	 53.08176	 12.97890	 21.44942	-17.20500	 60.34901	 -1.40647	 66.10466	712.19000	 35.90	
 20.392	-92.440	 53.07651	 16.35339	 17.93127	-17.43608	 60.63211	 -1.41879	 66.13790	712.21997	 35.90	
 20.392	-87.560	 53.05751	 19.19034	 15.14763	-17.35472	 60.62297	 -1.36513	 66.14793	712.31000	 35.90	
 20.403	-82.668	 53.04065	 22.61520	 11.85278	-17.32203	 60.31494	 -1.37935	 66.15831	712.17999	 35.90	
 20.394	-77.868	 52.93731	 26.12270	  8.60437	-16.87712	 59.61523	 -1.42927	 66.09823	712.14001	 35.90	
 20.398	-72.996	 52.91078	 29.72844	  5.47107	-16.25748	 58.60477	 -1.45847	 66.12421	712.28998	 35.90	
 20.413	-68.100	 52.81503	 33.36819	  2.43221	-15.41451	 57.27356	 -1.48152	 66.12319	712.22998	 35.90	
 20.403	-63.259	 52.75871	 36.87828	 -0.35860	-14.00457	 55.60462	 -1.53882	 66.16772	712.20001	 35.90	
 20.400	-58.396	 52.59421	 40.13988	 -2.87157	-12.66751	 53.54066	 -1.59728	 66.11736	712.22998	 35.90	
 20.410	-53.489	 52.51676	 43.38785	 -5.25303	-11.18704	 51.20248	 -1.65605	 66.13504	712.26001	 35.90	
 20.408	-48.628	 52.51178	 46.48281	 -7.49292	 -9.55309	 48.62738	 -1.76559	 66.13058	712.28998	 35.90	
 20.396	-43.773	 52.42953	 49.27810	 -9.44515	 -7.71310	 45.70903	 -1.81298	 66.12045	712.28003	 35.90	
 20.392	-38.938	 52.37521	 51.79821	-11.08746	 -5.72212	 42.67876	 -1.90243	 66.14347	712.29999	 35.90	
 20.397	-34.097	 52.30539	 54.07350	-12.49752	 -3.54296	 39.52871	 -2.03021	 66.13795	712.32001	 35.90	
 20.405	-29.165	 52.19526	 56.13123	-14.02251	 -1.14818	 36.08714	 -2.10608	 66.13174	712.32001	 35.90	
 20.401	-24.295	 52.08317	 57.80802	-15.15535	  1.52071	 32.52668	 -2.23937	 66.11325	712.28998	 35.90	
 20.392	-19.504	 52.03659	 59.24433	-15.99763	  4.53155	 28.89946	 -2.37156	 66.15084	712.28998	 35.90	
 20.410	-14.577	 51.91270	 60.35246	-16.79713	  7.67160	 25.22992	 -2.53054	 66.17214	712.25000	 36.00	
 20.407	 -9.736	 51.80890	 61.03263	-17.24339	 10.86944	 21.59785	 -2.65489	 66.15519	712.25000	 35.90	
 20.401	 -4.847	 51.75765	 61.40609	-17.46835	 14.18324	 17.93075	 -2.84522	 66.15710	712.33002	 36.00	
 20.400	  0.000	 51.63364	 61.45193	-17.69036	 16.81839	 15.08135	 -3.19791	 66.12901	712.29999	 36.00	
 20.401	  4.847	 51.58641	 61.27303	-17.55906	 20.29703	 11.73528	 -3.32428	 66.19666	712.29999	 36.00	
 20.407	  9.736	 51.45517	 60.66132	-17.17973	 23.95644	  8.35613	 -3.52669	 66.14236	712.28998	 36.00	
 20.410	 14.577	 51.40025	 59.76947	-16.71359	 27.50584	  5.26117	 -3.68080	 66.16027	712.31000	 36.00	
 20.392	 19.504	 51.33015	 58.51852	-15.93513	 31.19909	  2.39889	 -3.82667	 66.15788	712.27002	 36.00	
 20.401	 24.295	 51.18538	 56.97608	-15.04908	 34.69647	 -0.34694	 -3.93232	 66.14011	712.14001	 36.00	
 20.405	 29.165	 51.19411	 55.11555	-13.85822	 38.06953	 -2.89426	 -4.07475	 66.17756	712.29999	 36.00	
 20.397	 34.097	 51.14773	 52.89988	-12.41495	 41.36121	 -5.21066	 -4.24894	 66.15273	712.38000	 36.00	
 20.392	 38.938	 51.07536	 50.53476	-10.93779	 44.47536	 -7.39574	 -4.39644	 66.13612	712.22998	 36.00	
 20.396	 43.773	 51.02651	 47.89132	 -9.26581	 47.41117	 -9.43580	 -4.47240	 66.13143	712.29999	 36.00	
 20.408	 48.628	 50.99744	 44.92552	 -7.38741	 50.12875	-11.33302	 -4.60444	 66.14364	712.29999	 36.00	
 20.410	 53.489	 51.01266	 41.80090	 -5.14691	 52.62772	-12.91936	 -4.73652	 66.13313	712.20001	 36.00	
 20.400	 58.396	 51.02061	 38.51473	 -2.77834	 54.87136	-14.32129	 -4.79369	 66.13188	712.35999	 36.00	
 20.403	 63.259	 51.02635	 35.12181	 -0.29302	 56.83082	-15.47773	 -4.81242	 66.16866	712.39001	 36.00	
 20.413	 68.100	 50.98920	 31.52530	  2.33026	 58.39189	-16.50698	 -4.79835	 66.15972	712.26001	 36.00	
 20.398	 72.996	 50.94479	 27.87605	  5.24253	 59.69580	-17.28871	 -4.80149	 66.12520	712.20001	 36.00	
 20.394	 77.868	 50.90312	 24.27667	  8.34130	 60.67920	-17.91783	 -4.82351	 66.10238	712.20001	 36.00	
 20.403	 82.668	 50.90953	 20.69039	 11.56287	 61.30162	-18.34321	 -4.84294	 66.11082	712.26001	 36.00	
 20.392	 87.560	 50.97882	 17.10103	 14.90571	 61.62329	-18.53696	 -4.96287	 66.11144	712.32001	 36.00	
 20.392	 92.440	 51.06287	 14.29983	 17.71268	 61.57076	-18.43849	 -5.03249	 66.10602	712.32001	 36.00	
 20.403	 97.332	 51.16928	 11.14087	 21.03217	 61.28593	-18.31718	 -5.02749	 66.13879	712.31000	 36.00	
 20.394	102.132	 51.28230	  8.03665	 24.57611	 60.62011	-17.83760	 -4.89072	 66.10814	712.32001	 36.00	
 20.398	107.004	 51.40218	  5.06187	 28.10592	 59.60727	-17.19709	 -4.74935	 66.12222	712.25000	 36.00	
 20.413	111.900	 51.46896	  2.19344	 31.75483	 58.24584	-16.43988	 -4.62614	 66.14291	712.31000	 36.00	
 20.403	116.741	 51.63272	 -0.32331	 35.28370	 56.55872	-15.47748	 -4.51008	 66.12505	712.27002	 36.00	
 20.400	121.604	 51.79244	 -2.67371	 38.64308	 54.60959	-14.37613	 -4.39804	 66.11059	712.21997	 36.00	
 20.410	126.511	 51.81934	 -4.94559	 41.90150	 52.35996	-12.99518	 -4.29352	 66.12856	712.23999	 36.00	
 20.408	131.372	 51.91887	 -7.03125	 45.03483	 49.89167	-11.40894	 -4.15743	 66.14401	712.26001	 36.00	
 20.396	136.227	 52.02426	 -8.86886	 47.89030	 47.08464	 -9.49102	 -4.05689	 66.10296	712.33002	 36.00	
 20.392	141.062	 52.17278	-10.50099	 50.56018	 44.09575	 -7.35433	 -4.00859	 66.14969	712.37000	 36.00	
 20.397	145.903	 52.28506	-11.94752	 52.95613	 40.88757	 -5.07182	 -3.85513	 66.15081	712.33002	 36.00	
 20.405	150.835	 52.31587	-13.24650	 55.08349	 37.57836	 -2.59901	 -3.68444	 66.12280	712.35999	 36.00	
 20.401	155.705	 52.44764	-14.27096	 56.91819	 34.16848	  0.06234	 -3.49779	 66.15338	712.34998	 36.00	
 20.392	160.496	 52.56243	-15.06751	 58.41981	 30.56843	  2.89392	 -3.28992	 66.13726	712.34998	 36.00	
 20.410	165.423	 52.67830	-15.67091	 59.64720	 26.93948	  5.84635	 -3.13129	 66.13813	712.39001	 36.00	
 20.407	170.264	 52.79807	-16.14491	 60.47328	 23.35952	  8.88633	 -2.95350	 66.11532	712.40997	 36.00	
 20.401	175.153	 52.91046	-16.46478	 60.99976	 19.60663	 12.23251	 -2.74736	 66.13655	712.33002	 36.00	
  0.141	 45.000	 66.31290	 29.36636	 28.51731	 29.62194	 27.15829	  1.27511	 66.14625	712.32001	 36.00	
  4.001	128.691	 65.99404	 23.07355	 33.41305	 35.24786	 19.90199	  0.88446	 66.13194	712.45001	 36.00	
  4.002	 76.995	 65.92730	 30.34508	 26.18572	 37.11917	 18.31566	  1.08726	 66.12897	712.28998	 36.00	
  4.002	 25.892	 65.97923	 36.06069	 20.51096	 32.44985	 22.93513	  1.20774	 66.13457	712.34998	 36.00	
  4.002	-25.892	 66.12581	 36.26641	 20.57766	 25.19914	 30.64792	  1.13574	 66.18128	712.28998	 36.00	
  4.002	-76.995	 66.17364	 30.71655	 26.28999	 20.56666	 35.21985	  0.95116	 66.16188	712.28998	 36.00	
  4.001	-128.691	 66.18891	 23.34873	 33.52206	 22.13032	 33.60081	  0.82497	 66.15887	712.34003	 36.00	
  4.000	180.000	 66.12139	 19.95556	 36.76104	 28.71859	 26.79137	  0.76853	 66.18125	712.29999	 36.00	
  8.000	180.000	 64.83455	 10.85673	 44.34127	 27.14632	 25.18430	 -0.22942	 66.10184	712.25000	 36.00	
  7.991	-152.370	 65.02005	 12.88365	 42.25479	 19.40444	 33.40035	 -0.20591	 66.14211	712.39001	 36.00	
  7.997	-124.550	 65.07605	 17.94080	 36.48584	 13.63104	 39.71114	 -0.37641	 66.14432	712.29999	 36.00	
  8.006	-96.837	 65.02239	 25.46330	 28.77742	 11.13956	 43.04159	 -0.10598	 66.13348	712.32001	 35.90	
  7.988	-69.228	 64.92992	 33.55259	 20.83337	 12.04442	 41.92784	  0.02189	 66.11824	712.38000	 35.90	
  7.997	-41.563	 64.82835	 40.29044	 14.55507	 16.49442	 36.82620	  0.18726	 66.14496	712.32001	 35.90	
  8.008	-13.821	 64.64537	 44.26482	 11.15051	 23.46040	 29.30161	  0.35008	 66.13930	712.41998	 36.00	
  8.008	 13.821	 64.44596	 44.01418	 11.13169	 31.59074	 20.98803	  0.23535	 66.12782	712.40002	 35.90	
  7.997	 41.563	 64.29574	 39.64073	 14.41303	 38.85345	 14.18888	  0.10964	 66.12331	712.34003	 35.90	
  7.988	 69.228	 64.24284	 32.88631	 20.68107	 43.83807	  9.94206	 -0.10291	 66.13686	712.32001	 35.90	
  8.006	 96.837	 64.29329	 24.58068	 28.61768	 44.88098	  9.03842	  0.05899	 66.13570	712.33002	 36.00	
  7.997	124.550	 64.46941	 17.21201	 36.33803	 41.51606	 11.65354	 -0.30986	 66.14968	712.32001	 35.90	
  7.991	152.370	 64.67810	 12.53860	 42.13910	 35.03576	 17.31162	 -0.18580	 66.15620	712.40997	 35.90	
 12.009	161.059	 62.09767	  2.80383	 49.35970	 33.02306	 14.94378	 -1.91052	 66.13438	712.32001	 35.90	
 12.013	142.081	 61.87144	  5.77344	 44.97502	 40.65565	  8.09990	 -1.99313	 66.13472	712.37000	 35.90	
 12.006	123.113	 61.63657	 10.86108	 38.24051	 46.99202	  3.15284	 -1.93428	 66.13227	712.35999	 35.90	
 12.007	104.200	 61.40867	 17.88285	 30.37798	 50.60707	  0.37265	 -1.99037	 66.13348	712.27002	 35.90	
 11.989	 85.301	 61.27957	 26.20227	 22.05267	 51.47145	 -0.12695	 -1.77575	 66.14369	712.31000	 35.90	
 12.013	 66.294	 61.20108	 34.60298	 14.35100	 49.28871	  1.48900	 -1.72592	 66.13373	712.31000	 35.90	
 12.012	 47.388	 61.25566	 41.88703	  8.14902	 44.45611	  5.31604	 -1.51654	 66.14505	712.31000	 35.90	
 11.990	 28.440	 61.40238	 47.69575	  3.85025	 37.31457	 11.03404	 -1.30517	 66.15371	712.35999	 36.00	
 11.991	  9.464	 61.58722	 50.73058	  1.82157	 29.31403	 18.54832	 -1.27869	 66.13589	712.21997	 36.00	
 11.991	 -9.464	 61.79717	 50.97833	  1.84309	 20.90053	 26.90644	 -1.21947	 66.14475	712.32001	 36.00	
 11.990	-28.440	 62.06969	 48.29268	  4.18770	 13.48570	 35.27974	 -1.46803	 66.17625	712.31000	 36.00	
 12.012	-47.388	 62.22010	 42.87962	  8.25893	  7.50001	 42.39024	 -1.51046	 66.17638	712.37000	 36.00	
 12.013	-66.294	 62.35071	 35.61039	 14.44729	  3.68535	 47.55235	 -1.60916	 66.13267	712.34003	 36.00	
 11.989	-85.301	 62.49097	 27.44312	 22.33140	  2.15988	 49.81643	 -1.42603	 66.13772	712.29999	 36.00	
 12.007	-104.200	 62.60077	 19.15742	 30.70094	  2.61473	 49.09658	 -1.55639	 66.15069	712.28003	 36.00	
 12.006	-123.113	 62.69882	 12.20393	 38.52053	  5.21520	 45.40237	 -1.68460	 66.14909	712.37000	 36.00	
 12.013	-142.081	 62.65258	  6.76787	 45.19160	  9.86392	 39.06264	 -1.63856	 66.12068	712.31000	 36.00	
 12.009	-161.059	 62.56362	  3.36755	 49.46837	 16.60739	 31.49066	 -1.85839	 66.13654	712.27002	 36.00	
 16.000	180.000	 58.52652	 -7.32731	 56.32927	 21.23186	 19.72186	 -2.64498	 66.09718	712.20001	 35.90	
 15.990	-165.604	 58.77296	 -6.35351	 55.26518	 13.37140	 28.01120	 -2.42718	 66.11421	712.38000	 35.90	
 16.002	-151.165	 58.95346	 -3.92013	 52.03358	  6.47969	 36.41949	 -2.10852	 66.15787	712.25000	 35.90	
 16.002	-136.836	 59.01683	  0.07867	 46.62563	  0.79973	 43.79010	 -1.89417	 66.11170	712.28003	 35.90	
 15.995	-122.439	 59.00760	  5.68913	 39.56144	 -3.59792	 49.81390	 -1.82721	 66.14601	712.31000	 35.90	
 15.993	-107.966	 58.88281	 12.51896	 31.54350	 -6.36249	 53.78007	 -1.74711	 66.14851	712.25000	 35.90	
 16.005	-93.629	 58.68482	 20.10489	 23.15693	 -7.38497	 55.55951	 -1.68583	 66.11838	712.21002	 35.90	
 15.992	-79.234	 58.58125	 28.38752	 15.12868	 -6.97607	 54.98914	 -1.83849	 66.14652	712.20001	 36.00	
 16.009	-64.774	 58.38691	 36.61426	  7.88804	 -5.10318	 52.04543	 -1.93402	 66.13451	712.21002	 36.00	
 15.997	-50.364	 58.23677	 44.13974	  1.61610	 -1.49568	 46.91414	 -2.06428	 66.14698	712.19000	 36.00	
 15.997	-36.045	 58.06437	 50.29370	 -3.04763	  3.81568	 40.04174	 -2.29123	 66.14483	712.10999	 36.00	
 16.000	-21.597	 57.85706	 54.50872	 -5.97856	 10.22691	 32.05753	 -2.36377	 66.12825	712.06000	 35.90	
 16.003	 -7.169	 57.62856	 56.58131	 -7.48991	 17.83891	 23.37157	 -2.38698	 66.13956	712.12000	 35.90	
 16.003	  7.169	 57.39702	 56.36022	 -7.65189	 25.88122	 15.35183	 -2.61863	 66.15440	712.19000	 36.00	
 16.000	 21.597	 57.20523	 53.87447	 -5.98452	 34.31585	  7.85277	 -2.68640	 66.14454	712.25000	 36.00	
 15.997	 36.045	 57.03981	 49.29202	 -2.96650	 42.06571	  1.55404	 -2.86051	 66.14649	712.28003	 35.90	
 15.997	 50.364	 56.95265	 42.80951	  1.56155	 48.70192	 -3.43696	 -3.17544	 66.16009	712.23999	 35.90	
 16.009	 64.774	 56.83813	 35.21278	  7.67110	 53.58244	 -7.01833	 -3.37170	 66.10727	712.22998	 35.90	
 15.992	 79.234	 56.91665	 26.70446	 14.86462	 56.34093	 -8.90376	 -3.35369	 66.12341	712.15002	 35.90	
 16.005	 93.629	 57.05917	 18.60187	 22.80852	 56.85646	 -9.29961	 -3.40616	 66.12071	712.25000	 35.90	
 15.993	107.966	 57.29498	 10.98081	 31.08934	 55.13403	 -8.29806	 -3.48130	 66.13413	712.25000	 35.90	
 15.995	122.439	 57.54030	  4.10693	 39.13632	 51.12201	 -5.54758	 -3.28299	 66.12392	712.27002	 35.90	
 16.002	136.836	 57.86723	 -1.07461	 46.29722	 45.18203	 -0.93769	 -3.38560	 66.15202	712.17999	 35.90	
 16.002	151.165	 58.04427	 -4.62725	 51.72248	 37.76062	  4.81358	 -3.30641	 66.10799	712.32001	 35.90	
 15.990	165.604	 58.32507	 -6.68292	 55.15378	 29.63631	 11.88065	 -2.84637	 66.12539	712.39001	 35.90	
 20.003	168.362	 53.35418	-15.11526	 59.81193	 25.23543	  8.19639	 -3.07489	 66.12357	712.23999	 35.90	
 20.008	156.764	 53.00271	-13.72694	 56.98525	 33.53738	  1.19711	 -3.45675	 66.13937	712.27002	 35.90	
 20.000	145.147	 52.82954	-10.95091	 52.36417	 41.38430	 -4.72584	 -3.84967	 66.12692	712.28998	 35.90	
 19.995	133.545	 52.58682	 -7.09056	 46.28422	 48.57343	 -9.77015	 -4.10258	 66.15558	712.21002	 35.90	
 20.009	121.926	 52.39200	 -2.14319	 38.96284	 54.27776	-13.47398	 -4.27852	 66.15390	712.28003	 35.90	
 20.005	110.327	 52.04546	  3.74570	 30.81193	 58.37714	-15.78890	 -4.53337	 66.12318	712.28998	 35.90	
 19.989	 98.733	 51.81296	 10.78005	 22.43392	 60.75533	-17.30510	 -4.81549	 66.12931	712.17999	 35.90	
 19.999	 87.075	 51.59097	 17.93110	 15.02303	 61.26928	-17.65790	 -4.73026	 66.14053	712.26001	 35.90	
 19.992	 75.457	 51.54819	 26.36416	  7.36780	 59.90198	-16.81057	 -4.70046	 66.13320	712.28998	 35.90	
 20.009	 63.844	 51.60568	 34.83454	  0.68100	 56.71300	-14.86635	 -4.70190	 66.11884	712.26001	 35.90	
 19.989	 52.269	 51.66538	 42.58291	 -4.91841	 51.78317	-11.71150	 -4.57174	 66.11685	712.09998	 35.90	
 19.999	 40.602	 51.65345	 49.52189	 -9.58268	 45.42561	 -7.44159	 -4.29167	 66.13708	712.09998	 35.90	
 20.004	 29.051	 51.83450	 54.91739	-13.02164	 38.04947	 -2.21356	 -4.00019	 66.16589	712.20001	 35.90	
 20.005	 17.433	 51.94058	 58.76951	-15.43166	 29.83602	  4.17319	 -3.68025	 66.12018	712.10999	 35.90	
 20.006	  5.780	 52.10551	 60.79086	-16.62353	 21.37560	 11.58076	 -3.29397	 66.13799	712.12000	 35.90	
 20.006	 -5.780	 52.31509	 60.97657	-16.55736	 13.98202	 19.04194	 -2.82142	 66.12276	712.07001	 35.90	
 20.005	-17.433	 52.47194	 59.38571	-15.45177	  6.53016	 27.60168	 -2.43602	 66.13746	712.14001	 35.90	
 20.004	-29.051	 52.77742	 55.88994	-13.15625	 -0.26728	 36.07030	 -2.16105	 66.12285	712.10999	 35.90	
 19.999	-40.602	 52.98812	 50.81042	 -9.79012	 -5.64966	 43.63305	 -1.92449	 66.12609	712.21002	 35.90	
 19.989	-52.269	 53.07333	 44.16377	 -5.03771	 -9.87572	 50.29806	 -1.72039	 66.08302	712.19000	 35.90	
 20.009	-63.844	 53.27773	 36.57751	  0.59297	-13.38880	 55.46566	 -1.57021	 66.11244	712.23999	 35.90	
 19.992	-75.457	 53.48766	 28.19247	  7.68637	-15.65263	 58.78189	 -1.42802	 66.10705	712.27002	 35.90	
 19.999	-87.075	 53.61127	 19.93848	 15.28070	-16.44105	 60.18307	 -1.35157	 66.11565	712.26001	 35.90	
 19.989	-98.733	 53.68344	 12.52801	 22.92326	-16.31184	 59.77114	 -1.42014	 66.09343	712.28003	 35.90	
 20.005	-110.327	 53.90272	  5.23489	 31.27898	-14.65689	 57.50555	 -1.43610	 66.14848	712.15002	 35.90	
 20.009	-121.926	 54.06539	 -0.95231	 39.40585	-11.92437	 53.24208	 -1.42730	 66.13818	712.12000	 35.90	
 19.995	-133.545	 54.12949	 -6.26865	 46.74530	 -8.18319	 47.50591	 -1.49459	 66.11407	712.09998	 35.90	
 20.000	-145.147	 54.15903	-10.37757	 52.78968	 -3.22859	 40.34841	 -1.63078	 66.14656	712.16998	 35.90	
 20.008	-156.764	 53.97962	-13.52281	 57.26328	  2.57513	 32.21749	 -1.83841	 66.09952	712.08002	 35.90	
 20.003	-168.362	 53.80476	-15.31821	 59.95951	  9.71225	 23.67956	 -2.11235	 66.12890	712.27002	 35.90	
 20.000	180.000	 53.52459	-15.82880	 60.78885	 16.61006	 16.03396	 -2.55086	 66.11999	712.19000	 35.90	
