FileType=PCF
NHL=14
Date=03/20/19	10:15:04
Facility=APL
Serial=16071-7
Customer=NASA
NP=6
Mach=0.300000
Calibration=1:1
CalPts=490
TstPts=95
PortNumbering=AP Standard
Units=Torr C m/s kg/m^3 deg mm 
Theta[deg]	Phi[deg]	P1[Torr]	P2[Torr]	P3[Torr]	P4[Torr]	P5[Torr]	P6[Torr]	Pt[Torr]	Ps[Abs,Torr]	Ts[C]	
  0.000	  0.000	 42.64957	 17.59251	 18.75866	 18.38184	 17.60932	  0.78816	 42.70509	712.90997	 22.70	
  1.691	128.401	 42.63496	 16.14699	 20.06097	 20.22353	 15.65725	  0.74127	 42.70264	712.90002	 22.70	
  1.692	 77.194	 42.66370	 18.13028	 18.05828	 20.66908	 15.29047	  0.79964	 42.74597	712.90997	 22.80	
  1.699	 26.182	 42.67124	 19.73458	 16.50331	 19.34962	 16.57672	  0.83762	 42.72643	712.98999	 22.80	
  1.699	-26.182	 42.66428	 19.69955	 16.54766	 17.24993	 18.64205	  0.79797	 42.71473	712.90997	 22.80	
  1.692	-77.194	 42.66949	 18.03742	 18.16786	 16.01050	 19.85500	  0.74997	 42.72458	712.89001	 22.80	
  1.691	-128.401	 42.65020	 16.08791	 20.18318	 16.50691	 19.34317	  0.69810	 42.72247	712.91998	 22.90	
  1.700	180.000	 42.65338	 15.24696	 21.08990	 18.31736	 17.50136	  0.69927	 42.73614	712.94000	 22.90	
  3.400	180.000	 42.54433	 12.79186	 23.34130	 18.17279	 17.25783	  0.53702	 42.72151	712.97998	 22.90	
  3.388	-152.325	 42.57298	 13.29706	 22.81129	 16.01432	 19.44274	  0.52677	 42.74242	712.90002	 22.90	
  3.397	-124.529	 42.58443	 14.72877	 21.25125	 14.43093	 21.24108	  0.53713	 42.72428	712.90002	 23.00	
  3.399	-96.763	 42.61106	 16.74937	 19.17489	 13.66972	 22.17132	  0.58089	 42.73537	712.91998	 23.00	
  3.394	-69.283	 42.63247	 18.98190	 16.98401	 13.85733	 21.96437	  0.62722	 42.74337	712.90002	 23.00	
  3.400	-41.398	 42.64116	 20.97779	 15.09644	 15.03859	 20.65824	  0.70634	 42.73730	712.90002	 23.00	
  3.401	-14.021	 42.64847	 22.13774	 14.00316	 16.90657	 18.65749	  0.76919	 42.73874	712.84998	 23.10	
  3.401	 14.021	 42.63894	 22.19551	 13.92279	 19.20992	 16.37603	  0.79681	 42.73831	712.85999	 23.10	
  3.400	 41.398	 42.61699	 21.12378	 14.90675	 21.29045	 14.37948	  0.79117	 42.73530	712.90997	 23.10	
  3.394	 69.283	 42.61728	 19.16191	 16.67516	 22.68663	 13.10157	  0.74096	 42.74842	712.79999	 23.10	
  3.399	 96.763	 42.57340	 16.90675	 18.84651	 23.01335	 12.76277	  0.68408	 42.73378	712.84003	 23.20	
  3.397	124.529	 42.56871	 14.85817	 21.02826	 22.21285	 13.46107	  0.61528	 42.73623	712.94000	 23.20	
  3.388	152.325	 42.58080	 13.35451	 22.67647	 20.47071	 15.10454	  0.56378	 42.75317	712.87000	 23.20	
  5.099	161.165	 42.30733	 10.69132	 24.94921	 20.27499	 14.65080	  0.31425	 42.74797	712.89001	 23.20	
  5.109	142.013	 42.31226	 11.73806	 23.70802	 22.44190	 12.67683	  0.31379	 42.74760	712.94000	 23.20	
  5.095	123.033	 42.33099	 13.45720	 21.86050	 24.04935	 11.24586	  0.43108	 42.75851	712.92999	 23.30	
  5.105	104.191	 42.33582	 15.52542	 19.65468	 24.96968	 10.44817	  0.47642	 42.73835	712.85999	 23.30	
  5.093	 85.207	 42.34567	 17.80203	 17.33108	 25.10074	 10.36817	  0.54542	 42.73682	712.90002	 23.30	
  5.104	 66.290	 42.37834	 20.13389	 15.17418	 24.51002	 10.91407	  0.59880	 42.74692	712.90997	 23.30	
  5.094	 47.331	 42.42521	 22.19539	 13.38977	 23.15569	 12.13932	  0.65583	 42.75876	712.83002	 23.30	
  5.089	 28.397	 42.43133	 23.67663	 12.11923	 21.21618	 13.91678	  0.69156	 42.74881	712.89001	 23.40	
  5.096	  9.576	 42.43976	 24.44552	 11.47293	 18.93576	 16.10234	  0.68325	 42.72390	712.78003	 23.40	
  5.096	 -9.576	 42.48856	 24.38214	 11.52277	 16.56719	 18.49143	  0.64157	 42.76044	712.84003	 23.40	
  5.089	-28.397	 42.48103	 23.50798	 12.30536	 14.54985	 20.70267	  0.59535	 42.75768	712.90002	 23.40	
  5.094	-47.331	 42.47699	 21.97084	 13.74363	 12.84803	 22.61534	  0.51602	 42.76309	712.89001	 23.50	
  5.104	-66.290	 42.45404	 19.89140	 15.65204	 11.71249	 23.92990	  0.44222	 42.75054	712.89001	 23.50	
  5.093	-85.207	 42.42907	 17.59452	 17.85584	 11.26408	 24.43482	  0.37620	 42.74413	712.81000	 23.50	
  5.105	-104.191	 42.40068	 15.31986	 20.16582	 11.43677	 24.17393	  0.32438	 42.74866	712.78998	 23.50	
  5.095	-123.033	 42.37103	 13.30249	 22.26534	 12.29420	 23.06403	  0.31063	 42.73320	712.77002	 23.50	
  5.109	-142.013	 42.33295	 11.64143	 23.97444	 13.77128	 21.35368	  0.30325	 42.73369	712.77002	 23.90	
  5.099	-161.165	 42.32067	 10.62551	 25.05860	 15.70441	 19.16190	  0.28539	 42.72540	712.75000	 23.90	
  5.100	180.000	 42.31529	 10.31709	 25.41464	 17.96203	 16.89844	  0.31617	 42.73912	712.78998	 23.90	
  6.800	180.000	 41.91849	  7.88114	 27.43074	 17.56517	 16.44712	 -0.00070	 42.74580	712.76001	 23.90	
  6.796	-166.229	 41.92407	  8.10027	 27.20626	 15.40630	 18.64187	 -0.08247	 42.72778	712.84003	 24.00	
  6.808	-152.311	 41.94815	  8.76237	 26.42609	 13.39188	 20.88063	  0.00015	 42.75051	712.90002	 24.00	
  6.795	-138.383	 41.96026	  9.92882	 25.16803	 11.70075	 22.87832	  0.00980	 42.73559	712.78003	 24.00	
  6.792	-124.591	 41.99795	 11.47220	 23.50086	 10.34708	 24.51431	 -0.00939	 42.75142	712.84003	 24.00	
  6.787	-110.754	 42.04077	 13.38654	 21.43387	  9.44570	 25.72251	  0.00898	 42.74895	712.75000	 24.00	
  6.800	-96.985	 42.08058	 15.46635	 19.25851	  8.91974	 26.41636	  0.03193	 42.77293	712.82001	 24.10	
  6.800	-83.015	 42.09023	 17.72030	 16.98706	  8.90441	 26.47421	  0.07416	 42.75119	712.85999	 24.10	
  6.787	-69.246	 42.11404	 19.94961	 14.93138	  9.35670	 25.93965	  0.12352	 42.75018	712.87000	 24.10	
  6.792	-55.409	 42.11714	 22.07165	 13.00108	 10.18280	 24.90718	  0.19294	 42.74844	712.73999	 24.10	
  6.795	-41.617	 42.13416	 23.89828	 11.38366	 11.50069	 23.39612	  0.22880	 42.75224	712.82001	 24.10	
  6.808	-27.689	 42.12957	 25.34144	 10.07524	 13.19854	 21.43717	  0.33431	 42.74728	712.84003	 24.10	
  6.796	-13.771	 42.12962	 26.24542	  9.26037	 15.20915	 19.23581	  0.41634	 42.75106	712.78998	 24.10	
  6.800	  0.000	 42.11988	 26.61381	  8.97224	 17.30541	 17.00904	  0.48051	 42.76744	712.94000	 24.20	
  6.796	 13.771	 42.10605	 26.37001	  9.17766	 19.61901	 14.75378	  0.49364	 42.76067	712.84003	 24.20	
  6.808	 27.689	 42.07817	 25.57523	  9.78527	 21.87381	 12.66139	  0.50724	 42.75496	712.83002	 24.20	
  6.795	 41.617	 42.06058	 24.20764	 10.95690	 23.80492	 10.87951	  0.42950	 42.75299	712.82001	 24.20	
  6.792	 55.409	 42.01455	 22.40095	 12.43110	 25.34351	  9.46365	  0.33794	 42.72050	712.83002	 24.20	
  6.787	 69.246	 41.99310	 20.28569	 14.25262	 26.49137	  8.47475	  0.37320	 42.73701	712.92999	 24.20	
  6.800	 83.015	 41.96540	 18.01764	 16.29405	 27.09729	  7.92241	  0.19655	 42.73667	712.88000	 24.30	
  6.800	 96.985	 41.95132	 15.74845	 18.55454	 27.17486	  7.87908	  0.25704	 42.74381	712.88000	 24.30	
  6.787	110.754	 41.94174	 13.64110	 20.80253	 26.59988	  8.30739	  0.07650	 42.76193	712.94000	 24.30	
  6.792	124.591	 41.91320	 11.67491	 22.91496	 25.55454	  9.20155	  0.16299	 42.75117	712.85999	 24.30	
  6.795	138.383	 41.92046	 10.11593	 24.71419	 24.01402	 10.54776	 -0.00894	 42.76969	712.78998	 24.30	
  6.808	152.311	 41.90160	  8.87310	 26.17572	 22.07831	 12.20843	 -0.00137	 42.75323	712.85999	 24.40	
  6.796	166.229	 41.88007	  8.16453	 27.06130	 19.84060	 14.23419	 -0.05821	 42.73019	712.84003	 24.40	
  8.491	168.704	 41.33393	  5.63595	 29.04613	 19.36798	 13.58698	 -0.47447	 42.74135	712.77002	 24.40	
  8.502	157.493	 41.31221	  6.18869	 28.24935	 21.70843	 11.49762	 -0.33418	 42.75334	712.79999	 24.40	
  8.494	146.194	 41.32731	  7.17291	 27.00076	 23.80252	  9.70469	 -0.43312	 42.74516	712.94000	 24.40	
  8.495	135.039	 41.32190	  8.48809	 25.39479	 25.64519	  8.14707	 -0.23338	 42.74310	712.85999	 24.40	
  8.487	123.723	 41.34235	 10.12405	 23.47888	 27.14515	  6.86949	 -0.17650	 42.75548	712.90002	 24.40	
  8.492	112.575	 41.34668	 12.01514	 21.38199	 28.27116	  5.96255	 -0.32870	 42.74327	712.91998	 24.40	
  8.510	101.220	 41.37471	 14.19631	 19.07382	 28.97624	  5.45606	 -0.31795	 42.74269	712.92999	 24.50	
  8.500	 90.000	 41.41234	 16.41281	 16.81529	 29.17003	  5.33360	 -0.20080	 42.74699	712.82001	 24.50	
  8.510	 78.780	 41.44071	 18.70715	 14.61646	 28.90551	  5.55245	 -0.19227	 42.74820	712.85999	 24.50	
  8.492	 67.425	 41.44391	 21.02153	 12.54202	 28.12683	  6.16727	 -0.18824	 42.72508	712.91998	 24.50	
  8.487	 56.277	 41.49978	 23.15814	 10.81022	 27.00729	  7.15866	 -0.03829	 42.75655	712.82001	 24.50	
  8.495	 44.961	 41.52807	 25.06370	  9.27851	 25.44425	  8.53475	 -0.03892	 42.74308	712.84003	 24.50	
  8.494	 33.806	 41.55592	 26.59171	  8.06193	 23.60325	 10.22237	  0.22984	 42.75894	712.92999	 24.50	
  8.502	 22.507	 41.54732	 27.72900	  7.13818	 21.49294	 12.08097	  0.06624	 42.72904	712.92999	 24.50	
  8.491	 11.296	 41.59010	 28.41908	  6.64112	 19.18134	 14.25379	  0.24091	 42.75331	712.84003	 24.60	
  8.500	  0.000	 41.59338	 28.60958	  6.48270	 16.80504	 16.54826	  0.06516	 42.75019	712.90997	 24.60	
  8.491	-11.296	 41.60480	 28.30758	  6.72037	 14.69632	 18.84499	  0.13679	 42.74610	712.90002	 24.60	
  8.502	-22.507	 41.61504	 27.54099	  7.41028	 12.60285	 21.12222	  0.04120	 42.75643	712.95001	 24.60	
  8.494	-33.806	 41.61341	 26.27765	  8.48848	 10.71170	 23.25944	 -0.16702	 42.73008	712.83002	 24.60	
  8.495	-44.961	 41.62828	 24.69189	  9.85556	  9.21729	 25.09036	 -0.18194	 42.75999	712.70001	 24.60	
  8.487	-56.277	 41.59866	 22.77459	 11.49588	  7.96283	 26.58400	 -0.19051	 42.74641	712.69000	 24.60	
  8.492	-67.425	 41.58359	 20.64886	 13.33800	  7.09199	 27.66016	 -0.36556	 42.73709	712.76001	 24.60	
  8.510	-78.780	 41.54795	 18.29204	 15.47679	  6.53194	 28.37034	 -0.34481	 42.73387	712.84998	 24.60	
  8.500	-90.000	 41.53701	 16.04465	 17.73779	  6.39054	 28.53288	 -0.44086	 42.73669	712.85999	 24.70	
  8.510	-101.220	 41.49971	 13.84440	 20.03439	  6.55050	 28.22522	 -0.38176	 42.73839	712.89001	 24.70	
  8.492	-112.575	 41.47728	 11.71937	 22.27949	  7.15437	 27.39224	 -0.40721	 42.73014	712.85999	 24.70	
  8.487	-123.723	 41.45144	  9.89505	 24.28234	  8.11904	 26.13953	 -0.46929	 42.73363	712.89001	 24.70	
  8.495	-135.039	 41.43442	  8.28062	 26.04996	  9.41427	 24.52257	 -0.37863	 42.73878	712.92999	 24.70	
  8.494	-146.194	 41.40699	  7.04803	 27.49734	 10.89423	 22.65852	 -0.47634	 42.73811	712.88000	 24.70	
  8.502	-157.493	 41.38773	  6.12426	 28.56757	 12.75538	 20.45739	 -0.47355	 42.73650	712.84998	 24.70	
  8.491	-168.704	 41.36490	  5.63136	 29.19953	 14.85135	 18.16477	 -0.50419	 42.72775	712.85999	 24.70	
  8.500	180.000	 41.35912	  5.43266	 29.39190	 16.97668	 15.88671	 -0.42588	 42.74450	712.94000	 24.70	
 10.200	180.000	 40.64013	  2.91688	 31.22746	 16.36925	 15.23095	 -0.90634	 42.75360	712.96997	 24.80	
 10.191	-170.497	 40.65649	  3.08986	 31.09048	 14.24850	 17.52692	 -0.93506	 42.73415	712.84003	 24.80	
 10.210	-161.034	 40.66282	  3.48953	 30.54772	 12.14122	 19.85239	 -0.93307	 42.73429	712.82001	 24.80	
 10.194	-151.526	 40.68524	  4.22254	 29.62457	 10.13158	 22.11201	 -0.91534	 42.72825	712.92999	 24.80	
 10.190	-142.105	 40.72133	  5.24459	 28.37438	  8.46765	 24.17992	 -0.89041	 42.73907	712.82001	 24.80	
 10.215	-132.646	 40.74317	  6.56360	 26.83181	  7.01068	 26.05663	 -0.83236	 42.74126	712.96002	 24.80	
 10.203	-123.092	 40.73335	  8.18068	 24.97957	  5.77714	 27.65651	 -0.94156	 42.71632	712.97998	 24.80	
 10.192	-113.678	 40.79696	  9.98347	 22.95076	  4.84631	 28.92870	 -0.93063	 42.75760	712.89001	 24.80	
 10.208	-104.249	 40.77763	 11.97768	 20.69254	  4.21216	 29.81053	 -0.90833	 42.71151	712.84998	 24.80	
 10.210	-94.801	 40.82557	 14.20411	 18.40692	  3.87770	 30.33503	 -0.88844	 42.73746	712.91998	 24.90	
 10.210	-85.199	 40.85035	 16.49474	 16.07813	  3.85509	 30.43592	 -0.77368	 42.73953	712.88000	 24.90	
 10.208	-75.751	 40.87732	 18.81841	 13.86849	  4.17317	 30.07961	 -0.87050	 42.73536	712.88000	 24.90	
 10.192	-66.322	 40.89465	 21.13191	 11.75136	  4.77021	 29.29874	 -0.82982	 42.73242	712.84003	 24.90	
 10.203	-56.908	 40.88398	 23.27307	  9.89023	  5.60134	 28.14837	 -0.77329	 42.70522	712.78998	 24.90	
 10.215	-47.354	 40.91773	 25.32088	  8.16663	  6.77379	 26.66822	 -0.57393	 42.73698	712.73999	 24.90	
 10.190	-37.895	 40.94788	 27.02614	  6.83040	  8.24644	 24.87555	 -0.67287	 42.75277	712.78003	 24.90	
 10.194	-28.474	 40.92609	 28.41530	  5.63978	  9.90487	 22.86088	 -0.61245	 42.73700	712.82001	 24.90	
 10.210	-18.966	 40.92926	 29.51604	  4.73214	 11.86274	 20.62650	 -0.52221	 42.74963	712.91998	 24.90	
 10.191	 -9.503	 40.90578	 30.18148	  4.14533	 14.02312	 18.26377	 -0.34592	 42.71280	712.89001	 24.90	
 10.200	  0.000	 40.90051	 30.46451	  3.88543	 16.17035	 15.94748	 -0.37264	 42.72769	712.90002	 25.00	
 10.191	  9.503	 40.88778	 30.29974	  4.06749	 18.49094	 13.62097	 -0.33222	 42.72864	712.82001	 25.00	
 10.210	 18.966	 40.86108	 29.72224	  4.47451	 20.88350	 11.42316	 -0.36527	 42.73199	712.84998	 25.00	
 10.194	 28.474	 40.86662	 28.72679	  5.24173	 23.10972	  9.46073	 -0.34461	 42.73763	712.82001	 25.00	
 10.190	 37.895	 40.85011	 27.40856	  6.23807	 25.14453	  7.70742	 -0.29831	 42.74270	712.83002	 25.00	
 10.215	 47.354	 40.79415	 25.72172	  7.52155	 26.95043	  6.12038	 -0.51407	 42.71399	712.79999	 25.00	
 10.203	 56.908	 40.77031	 23.76103	  9.03572	 28.45758	  4.81155	 -0.61285	 42.71296	712.67999	 25.00	
 10.192	 66.322	 40.75788	 21.60639	 10.80518	 29.63291	  3.90781	 -0.62613	 42.70875	712.78998	 25.00	
 10.208	 75.751	 40.73670	 19.30208	 12.77192	 30.45874	  3.22901	 -0.60159	 42.72157	712.71002	 25.00	
 10.210	 85.199	 40.70580	 16.99221	 14.96458	 30.93608	  2.85342	 -0.64519	 42.73367	712.75000	 25.00	
 10.210	 94.801	 40.68671	 14.68375	 17.26041	 30.96932	  2.80084	 -0.71675	 42.73466	712.76001	 25.00	
 10.208	104.249	 40.63930	 12.43052	 19.57556	 30.57478	  3.12080	 -0.75237	 42.72243	712.78998	 25.00	
 10.192	113.678	 40.64353	 10.35708	 21.85026	 29.75115	  3.67827	 -0.77628	 42.74182	712.84003	 25.00	
 10.203	123.092	 40.58312	  8.44755	 23.97263	 28.61966	  4.48364	 -0.78490	 42.72800	712.78998	 25.00	
 10.215	132.646	 40.58311	  6.77631	 25.97287	 27.13278	  5.64752	 -0.81921	 42.73543	712.90002	 25.10	
 10.190	142.105	 40.55363	  5.42209	 27.68732	 25.31938	  7.14710	 -0.86157	 42.70390	712.78998	 25.10	
 10.194	151.526	 40.56834	  4.36118	 29.12922	 23.28978	  8.87809	 -0.87442	 42.73390	712.95001	 25.10	
 10.210	161.034	 40.52327	  3.56487	 30.18714	 21.08182	 10.73978	 -0.87572	 42.69126	712.89001	 25.10	
 10.191	170.497	 40.58134	  3.11081	 30.90391	 18.72261	 12.87661	 -0.89169	 42.71270	712.88000	 25.10	
 11.899	171.783	 39.69750	  0.52725	 32.66136	 17.96371	 12.12110	 -1.25386	 42.71487	712.87000	 25.10	
 11.890	163.610	 39.67039	  0.93771	 32.00431	 20.37026	  9.96575	 -1.23761	 42.71494	712.81000	 25.10	
 11.889	155.445	 39.68724	  1.59339	 31.07020	 22.64333	  8.06369	 -1.26673	 42.73420	712.91998	 25.10	
 11.909	147.299	 39.65845	  2.46466	 29.79184	 24.81752	  6.21085	 -1.31506	 42.71701	712.81000	 25.10	
 11.902	139.148	 39.66783	  3.59269	 28.22782	 26.76545	  4.58849	 -1.28009	 42.72382	712.84998	 25.10	
 11.894	130.867	 39.67998	  5.04398	 26.38432	 28.44730	  3.22842	 -1.22698	 42.71330	712.84998	 25.10	
 11.897	122.732	 39.71677	  6.73953	 24.36771	 29.92050	  2.16351	 -1.20060	 42.71067	712.90002	 25.10	
 11.903	114.597	 39.74557	  8.58255	 22.20474	 31.15818	  1.29625	 -1.20594	 42.73287	712.90002	 25.20	
 11.893	106.346	 39.76261	 10.63559	 19.88835	 32.04803	  0.71800	 -1.20049	 42.71529	712.82001	 25.20	
 11.892	 98.155	 39.79871	 12.85439	 17.53871	 32.61618	  0.34895	 -1.14370	 42.71835	712.71002	 25.20	
 11.900	 90.000	 39.82561	 15.11462	 15.25948	 32.75592	  0.23719	 -1.08768	 42.71373	712.89001	 25.20	
 11.892	 81.845	 39.86354	 17.39707	 13.10277	 32.52061	  0.47947	 -1.04921	 42.71868	712.83002	 25.20	
 11.893	 73.654	 39.88855	 19.72751	 10.97557	 31.95590	  0.89793	 -1.06233	 42.71328	712.84003	 25.20	
 11.903	 65.403	 39.89814	 22.06934	  8.94987	 31.07560	  1.47815	 -1.06375	 42.71529	712.87000	 25.20	
 11.897	 57.268	 39.94025	 24.24990	  7.19979	 29.82020	  2.45177	 -1.04609	 42.71655	712.96997	 25.20	
 11.894	 49.133	 39.95069	 26.23474	  5.68574	 28.31186	  3.70281	 -0.97245	 42.71468	712.89001	 25.30	
 11.902	 40.852	 39.97084	 28.04172	  4.34389	 26.56290	  5.10404	 -0.82041	 42.72924	712.79999	 25.30	
 11.909	 32.701	 39.99730	 29.51867	  3.22061	 24.58657	  6.77875	 -0.74400	 42.72561	712.78998	 25.30	
 11.889	 24.555	 40.03950	 30.70026	  2.43819	 22.35578	  8.70776	 -0.75145	 42.73841	712.85999	 25.30	
 11.890	 16.390	 40.02111	 31.54329	  1.82510	 20.08977	 10.70051	 -0.79559	 42.70856	712.75000	 25.30	
 11.899	  8.217	 40.06690	 32.14553	  1.46095	 17.75447	 12.95160	 -0.79951	 42.73919	712.90997	 25.30	
 11.900	  0.000	 40.06292	 32.25079	  1.28811	 15.45377	 15.26477	 -0.76825	 42.71889	712.78998	 25.30	
 11.899	 -8.217	 40.08560	 32.01315	  1.58518	 13.26566	 17.58729	 -0.82478	 42.73162	712.83002	 25.30	
 11.890	-16.390	 40.06945	 31.35351	  2.13038	 11.10216	 19.92630	 -0.91534	 42.69906	712.83002	 25.30	
 11.889	-24.555	 40.09540	 30.41073	  2.87523	  9.10843	 22.23969	 -0.99848	 42.72681	712.85999	 25.30	
 11.909	-32.701	 40.09230	 29.18182	  3.82966	  7.31257	 24.38147	 -1.08615	 42.73244	712.84998	 25.30	
 11.902	-40.852	 40.07726	 27.58942	  5.02181	  5.71221	 26.37035	 -1.11247	 42.73067	712.84003	 25.30	
 11.894	-49.133	 40.08408	 25.72629	  6.53993	  4.32216	 28.12623	 -1.13645	 42.72753	712.75000	 25.30	
 11.897	-57.268	 40.05976	 23.66865	  8.20237	  3.18975	 29.58538	 -1.15554	 42.73251	712.84003	 25.40	
 11.903	-65.403	 40.03605	 21.50490	 10.04232	  2.34932	 30.74302	 -1.20424	 42.70805	712.70001	 25.40	
 11.893	-73.654	 40.03460	 19.22313	 12.14159	  1.80860	 31.59198	 -1.23013	 42.72116	712.79999	 25.40	
 11.892	-81.845	 40.00428	 16.83638	 14.32948	  1.42126	 32.05630	 -1.21459	 42.70061	712.95001	 25.40	
 11.900	-90.000	 39.98237	 14.54787	 16.55737	  1.27504	 32.18296	 -1.19603	 42.70523	712.75000	 25.40	
 11.892	-98.155	 39.96482	 12.32094	 18.83829	  1.42689	 31.89826	 -1.18396	 42.71260	712.76001	 25.40	
 11.893	-106.346	 39.92258	 10.16417	 21.15058	  1.80131	 31.27646	 -1.20286	 42.70407	712.73999	 25.40	
 11.903	-114.597	 39.88566	  8.14113	 23.40429	  2.43361	 30.31304	 -1.24895	 42.70520	712.88000	 25.40	
 11.897	-122.732	 39.86326	  6.35635	 25.47867	  3.37704	 29.03912	 -1.25989	 42.70435	712.90997	 25.40	
 11.894	-130.867	 39.84864	  4.78038	 27.39053	  4.53458	 27.47995	 -1.24481	 42.69948	712.92999	 25.40	
 11.902	-139.148	 39.82569	  3.39098	 29.12194	  5.94599	 25.61311	 -1.21124	 42.70218	712.83002	 25.40	
 11.909	-147.299	 39.82137	  2.27383	 30.49268	  7.56321	 23.56915	 -1.21858	 42.71001	712.84003	 25.40	
 11.889	-155.445	 39.79377	  1.47681	 31.56667	  9.37371	 21.38988	 -1.26717	 42.69658	712.83002	 25.50	
 11.890	-163.610	 39.75733	  0.89036	 32.33462	 11.39357	 19.07026	 -1.30220	 42.67562	712.83002	 25.50	
 11.899	-171.783	 39.74670	  0.48574	 32.83358	 13.50265	 16.75166	 -1.30998	 42.69873	712.78998	 25.50	
 11.900	180.000	 39.71525	  0.35592	 32.93254	 15.69253	 14.43829	 -1.28400	 42.69881	712.79999	 25.50	
 13.600	180.000	 38.66357	 -2.28505	 34.55778	 14.91513	 13.53934	 -1.56815	 42.69373	712.89001	 25.50	
 13.608	-172.853	 38.68907	 -2.15332	 34.49747	 12.74091	 15.80701	 -1.57109	 42.70859	712.78998	 25.50	
 13.611	-165.583	 38.71649	 -1.80616	 34.08434	 10.56279	 18.18301	 -1.56204	 42.68562	712.84998	 25.50	
 13.601	-158.353	 38.74540	 -1.25128	 33.35457	  8.52375	 20.51760	 -1.50816	 42.67773	712.96997	 25.50	
 13.609	-151.210	 38.78773	 -0.59373	 32.41443	  6.68231	 22.73677	 -1.46780	 42.69713	713.04999	 25.50	
 13.611	-143.999	 38.78147	  0.32706	 31.12122	  4.92897	 24.90136	 -1.41673	 42.67503	712.94000	 25.50	
 13.601	-136.825	 38.80685	  1.49711	 29.56979	  3.37581	 26.92554	 -1.39153	 42.69398	712.97998	 25.50	
 13.596	-129.640	 38.82858	  2.88010	 27.84223	  2.07972	 28.71567	 -1.40617	 42.68604	712.94000	 25.50	
 13.611	-122.431	 38.84261	  4.48224	 25.89195	  0.95714	 30.29575	 -1.39889	 42.69476	712.89001	 25.60	
 13.604	-115.211	 38.84359	  6.30620	 23.64637	 -0.00324	 31.60577	 -1.38178	 42.66600	712.87000	 25.60	
 13.595	-108.042	 38.88011	  8.26571	 21.40537	 -0.68725	 32.62912	 -1.34936	 42.68473	712.84003	 25.60	
 13.607	-100.793	 38.89421	 10.31544	 19.12436	 -1.15709	 33.35280	 -1.34092	 42.68032	712.96002	 25.60	
 13.601	-93.617	 38.91177	 12.48217	 16.86914	 -1.42433	 33.77684	 -1.35154	 42.67114	712.89001	 25.60	
 13.601	-86.383	 38.93001	 14.81143	 14.65356	 -1.40643	 33.83768	 -1.40293	 42.66922	712.92999	 25.60	
 13.607	-79.207	 38.96873	 17.12163	 12.48098	 -1.16419	 33.60472	 -1.43108	 42.66757	712.96002	 25.60	
 13.595	-71.958	 38.98874	 19.48735	 10.32104	 -0.67024	 32.97507	 -1.44936	 42.67796	712.84998	 25.60	
 13.604	-64.789	 39.00541	 21.77204	  8.31759	 -0.04420	 32.06569	 -1.42859	 42.67676	712.87000	 25.60	
 13.611	-57.569	 38.98951	 23.98199	  6.43078	  0.77695	 30.86014	 -1.40922	 42.65582	712.92999	 25.60	
 13.596	-50.360	 39.04981	 26.09638	  4.77061	  1.84421	 29.42560	 -1.39704	 42.71019	712.96997	 25.60	
 13.601	-43.175	 39.04921	 27.99518	  3.30192	  3.12031	 27.73406	 -1.42378	 42.69646	712.84998	 25.60	
 13.611	-36.001	 39.04477	 29.66391	  2.00885	  4.63105	 25.81123	 -1.43468	 42.67574	712.89001	 25.60	
 13.609	-28.790	 39.04980	 31.08341	  1.01395	  6.33639	 23.69181	 -1.39618	 42.68259	712.82001	 25.60	
 13.601	-21.647	 39.05870	 32.24981	  0.17999	  8.16933	 21.49575	 -1.32909	 42.68693	713.03998	 25.60	
 13.611	-14.417	 39.05572	 33.14653	 -0.51486	 10.18502	 19.13072	 -1.28158	 42.69287	712.88000	 25.60	
 13.608	 -7.147	 39.04348	 33.70542	 -0.97339	 12.38548	 16.75792	 -1.20065	 42.68443	712.91998	 25.60	
 13.600	  0.000	 39.04655	 33.90885	 -1.15677	 14.59257	 14.46765	 -1.18343	 42.67757	712.85999	 25.60	
 13.608	  7.147	 39.01960	 33.82256	 -1.16452	 16.80974	 12.16552	 -1.21085	 42.69157	712.87000	 25.60	
 13.611	 14.417	 38.98541	 33.34195	 -0.90506	 19.17021	  9.91330	 -1.22152	 42.67109	712.90997	 25.70	
 13.601	 21.647	 39.00751	 32.55228	 -0.35090	 21.46959	  7.89596	 -1.17736	 42.70065	712.90002	 25.70	
 13.609	 28.790	 38.96519	 31.44402	  0.32013	 23.73902	  5.90260	 -1.15669	 42.68284	712.89001	 25.70	
 13.611	 36.001	 38.94207	 30.04322	  1.27421	 25.88510	  4.10653	 -1.18466	 42.68114	712.98999	 25.70	
 13.601	 43.175	 38.92887	 28.45323	  2.41829	 27.78386	  2.58075	 -1.30149	 42.68200	712.85999	 25.70	
 13.596	 50.360	 38.91870	 26.65199	  3.73810	 29.53753	  1.27624	 -1.43373	 42.69728	712.90002	 25.70	
 13.611	 57.569	 38.89575	 24.60707	  5.34119	 31.07544	  0.01245	 -1.50257	 42.69749	712.96997	 25.70	
 13.604	 64.789	 38.87091	 22.37293	  7.18144	 32.34963	 -0.90010	 -1.51583	 42.67587	712.96997	 25.70	
 13.595	 71.958	 38.87386	 20.06045	  9.10219	 33.32473	 -1.48267	 -1.52446	 42.69754	712.95001	 25.70	
 13.607	 79.207	 38.84023	 17.74901	 11.11075	 33.99132	 -1.90651	 -1.54669	 42.70235	712.96997	 25.70	
 13.601	 86.383	 38.79021	 15.44403	 13.24524	 34.30253	 -2.20201	 -1.52108	 42.67450	713.03003	 25.70	
 13.601	 93.617	 38.76281	 13.14201	 15.54880	 34.34724	 -2.24736	 -1.55467	 42.68922	712.92999	 25.80	
 13.607	100.793	 38.72623	 10.88531	 17.84772	 34.04855	 -2.05773	 -1.61406	 42.68488	712.95001	 25.80	
 13.595	108.042	 38.69131	  8.73629	 20.18454	 33.39565	 -1.64962	 -1.65151	 42.67981	712.84998	 25.80	
 13.604	115.211	 38.65814	  6.75914	 22.44340	 32.44141	 -1.07635	 -1.64729	 42.66945	712.88000	 25.80	
 13.611	122.431	 38.63908	  4.88983	 24.63452	 31.19618	 -0.26640	 -1.63743	 42.68147	712.90002	 25.80	
 13.596	129.640	 38.60273	  3.22247	 26.68098	 29.66619	  0.82152	 -1.65722	 42.64798	712.84998	 25.80	
 13.601	136.825	 38.58614	  1.78261	 28.52604	 27.98027	  2.11637	 -1.68761	 42.65896	712.85999	 25.80	
 13.611	143.999	 38.56831	  0.57154	 30.20376	 26.16589	  3.56851	 -1.71781	 42.66987	713.00000	 25.80	
 13.609	151.210	 38.56958	 -0.43364	 31.65650	 24.06899	  5.25998	 -1.70394	 42.66614	712.97998	 25.80	
 13.601	158.353	 38.56903	 -1.21240	 32.82981	 21.81599	  7.09631	 -1.62842	 42.67211	712.85999	 25.80	
 13.611	165.583	 38.56201	 -1.79050	 33.69434	 19.45460	  9.05256	 -1.58465	 42.66027	712.94000	 25.80	
 13.608	172.853	 38.60009	 -2.14430	 34.27330	 17.03373	 11.23610	 -1.57173	 42.65558	712.94000	 25.80	
 15.298	173.587	 37.42957	 -4.72397	 35.77328	 16.26157	 10.26393	 -1.81035	 42.67451	712.92999	 25.80	
 15.291	167.167	 37.40589	 -4.32450	 35.22823	 18.53042	  8.15919	 -1.85301	 42.66615	712.88000	 25.90	
 15.307	160.676	 37.36879	 -3.84841	 34.43443	 20.82778	  6.15660	 -1.92081	 42.65845	712.94000	 25.80	
 15.300	154.261	 37.36155	 -3.20382	 33.34718	 23.15708	  4.29347	 -2.02709	 42.65540	712.91998	 25.90	
 15.288	147.854	 37.38427	 -2.27966	 32.02859	 25.35077	  2.58983	 -2.08176	 42.66208	712.97998	 25.90	
 15.293	141.428	 37.40535	 -1.21292	 30.49690	 27.32017	  1.06081	 -2.09182	 42.67083	712.96002	 25.90	
 15.299	134.985	 37.40506	  0.00875	 28.74527	 29.18036	 -0.34116	 -2.04944	 42.65160	712.96002	 25.90	
 15.305	128.583	 37.42782	  1.42737	 26.88194	 30.91911	 -1.57825	 -2.03568	 42.66662	712.84003	 25.90	
 15.309	122.142	 37.43315	  3.03912	 24.79531	 32.40258	 -2.57425	 -2.04218	 42.64709	712.84998	 25.90	
 15.304	115.711	 37.47927	  4.87959	 22.59475	 33.61420	 -3.33126	 -2.05740	 42.66457	712.96002	 25.90	
 15.297	109.291	 37.51712	  6.84890	 20.34958	 34.57968	 -3.90968	 -2.07108	 42.65863	712.98999	 25.90	
 15.293	102.897	 37.56041	  8.91070	 18.04783	 35.29722	 -4.34783	 -2.06645	 42.67198	712.85999	 25.90	
 15.293	 96.458	 37.59193	 11.12305	 15.69942	 35.71003	 -4.59649	 -2.01171	 42.66500	712.82001	 25.90	
 15.300	 90.000	 37.62427	 13.36963	 13.42189	 35.82409	 -4.65427	 -1.96756	 42.65710	712.92999	 25.90	
 15.293	 83.542	 37.67786	 15.70664	 11.19438	 35.64494	 -4.49438	 -1.97417	 42.67651	713.01001	 25.90	
 15.293	 77.103	 37.70839	 18.00522	  9.08147	 35.18439	 -4.12391	 -2.01717	 42.66941	712.81000	 25.90	
 15.297	 70.709	 37.71579	 20.27281	  7.17175	 34.47322	 -3.74570	 -1.98853	 42.66426	712.81000	 25.90	
 15.304	 64.289	 37.72588	 22.55653	  5.35258	 33.47749	 -3.17099	 -1.97377	 42.65879	712.87000	 25.90	
 15.309	 57.858	 37.75148	 24.81517	  3.56016	 32.21724	 -2.29912	 -1.94732	 42.68043	712.89001	 25.90	
 15.305	 51.417	 37.74385	 26.87574	  1.99123	 30.64927	 -1.14535	 -1.87247	 42.66042	712.79999	 26.00	
 15.299	 45.015	 37.76241	 28.73978	  0.64680	 28.94340	  0.09124	 -1.75281	 42.64798	712.84998	 26.00	
 15.293	 38.572	 37.80332	 30.44896	 -0.48448	 27.04801	  1.56693	 -1.64793	 42.66526	712.78998	 26.00	
 15.288	 32.146	 37.79630	 31.94844	 -1.48208	 25.01798	  3.17089	 -1.58807	 42.65738	712.82001	 26.00	
 15.300	 25.739	 37.80527	 33.22064	 -2.27887	 22.79123	  5.01633	 -1.60559	 42.65215	712.82001	 26.00	
 15.307	 19.324	 37.83788	 34.19112	 -2.82814	 20.48996	  6.98725	 -1.61466	 42.66180	712.96997	 26.00	
 15.291	 12.833	 37.85682	 34.90808	 -3.25382	 18.15689	  9.08161	 -1.62171	 42.65055	712.90002	 26.00	
 15.298	  6.413	 37.87467	 35.34943	 -3.56094	 15.85152	 11.27827	 -1.60636	 42.66460	712.77002	 26.00	
 15.300	  0.000	 37.87278	 35.41682	 -3.56351	 13.63194	 13.57379	 -1.57336	 42.64550	712.77002	 26.00	
 15.298	 -6.413	 37.89006	 35.21708	 -3.38343	 11.44818	 15.87185	 -1.54939	 42.65953	712.84998	 26.00	
 15.291	-12.833	 37.91991	 34.73265	 -2.98476	  9.28287	 18.21886	 -1.57928	 42.68080	712.78998	 26.00	
 15.307	-19.324	 37.88486	 33.92523	 -2.37559	  7.20926	 20.56447	 -1.61834	 42.65506	712.78003	 26.00	
 15.300	-25.739	 37.90738	 32.86716	 -1.65167	  5.37945	 22.81449	 -1.63311	 42.65645	712.90997	 26.00	
 15.288	-32.146	 37.92656	 31.56379	 -0.78282	  3.62191	 25.03896	 -1.62462	 42.68346	712.90997	 26.00	
 15.293	-38.572	 37.88812	 29.97269	  0.28147	  1.99435	 27.08853	 -1.63268	 42.65710	712.79999	 26.00	
 15.299	-45.015	 37.86700	 28.24884	  1.55585	  0.60198	 28.92266	 -1.58813	 42.63714	712.79999	 26.00	
 15.305	-51.417	 37.85721	 26.32425	  2.97408	 -0.62814	 30.58198	 -1.54626	 42.65282	712.92999	 26.00	
 15.309	-57.858	 37.82545	 24.18941	  4.68208	 -1.66840	 32.05320	 -1.51228	 42.64656	712.81000	 26.00	
 15.304	-64.289	 37.84854	 21.96169	  6.46308	 -2.50181	 33.32283	 -1.50722	 42.67759	712.90997	 26.00	
 15.297	-70.709	 37.84803	 19.68388	  8.44665	 -3.06531	 34.27105	 -1.49438	 42.67567	712.83002	 26.10	
 15.293	-77.103	 37.79469	 17.33679	 10.43905	 -3.50081	 34.91940	 -1.48654	 42.65340	712.88000	 26.10	
 15.293	-83.542	 37.77392	 14.94609	 12.60621	 -3.81929	 35.30113	 -1.45041	 42.64559	712.83002	 26.10	
 15.300	-90.000	 37.75515	 12.64040	 14.84579	 -3.97511	 35.38683	 -1.40040	 42.66132	712.51001	 26.10	
 15.293	-96.458	 37.72577	 10.41504	 17.11289	 -3.85870	 35.14237	 -1.36911	 42.64492	712.92999	 26.10	
 15.293	-102.897	 37.72982	  8.29771	 19.39374	 -3.54073	 34.64054	 -1.35567	 42.66234	712.89001	 26.10	
 15.297	-109.291	 37.70549	  6.29259	 21.63317	 -3.06535	 33.85282	 -1.37629	 42.66611	712.97998	 26.10	
 15.304	-115.711	 37.67841	  4.39567	 23.85896	 -2.42297	 32.79073	 -1.40283	 42.65743	712.83002	 26.10	
 15.309	-122.142	 37.63823	  2.60174	 26.02452	 -1.53906	 31.43958	 -1.42814	 42.63987	712.82001	 26.10	
 15.305	-128.583	 37.64442	  0.99832	 28.05194	 -0.41509	 29.84530	 -1.44339	 42.65756	712.78003	 26.10	
 15.299	-134.985	 37.63454	 -0.37321	 29.81984	  0.85088	 28.09443	 -1.45220	 42.65854	712.81000	 26.10	
 15.293	-141.428	 37.60700	 -1.55611	 31.46393	  2.29764	 26.12771	 -1.48591	 42.64618	712.78998	 26.10	
 15.288	-147.854	 37.58960	 -2.52244	 32.90776	  3.93965	 23.98553	 -1.51515	 42.62677	712.79999	 26.10	
 15.300	-154.261	 37.57801	 -3.31066	 34.08358	  5.68665	 21.76616	 -1.61317	 42.63670	712.79999	 26.10	
 15.307	-160.676	 37.54130	 -3.89768	 34.95089	  7.58591	 19.52973	 -1.66624	 42.64268	712.13000	 26.10	
 15.291	-167.167	 37.53071	 -4.37833	 35.57967	  9.67178	 17.15962	 -1.72017	 42.65212	712.20001	 26.10	
 15.298	-173.587	 37.48461	 -4.67206	 35.93694	 11.81380	 14.82119	 -1.76322	 42.65649	712.90002	 26.10	
 15.300	180.000	 37.44714	 -4.80214	 35.97076	 13.97356	 12.55264	 -1.78630	 42.63961	712.15002	 26.20	
 17.000	180.000	 36.10354	 -7.25834	 37.31456	 12.94760	 11.48971	 -1.89286	 42.64450	712.08002	 26.20	
 16.990	-174.179	 36.17072	 -7.09643	 37.27829	 10.83621	 13.71055	 -1.83338	 42.64986	712.10999	 26.20	
 17.009	-168.383	 36.18289	 -6.84918	 36.96647	  8.67494	 16.05600	 -1.75581	 42.63253	712.65997	 26.20	
 17.000	-162.596	 36.23196	 -6.44449	 36.41359	  6.62694	 18.39173	 -1.67597	 42.63966	712.84998	 26.20	
 16.990	-156.759	 36.26987	 -5.88292	 35.62857	  4.66834	 20.69183	 -1.61743	 42.63314	712.85999	 26.20	
 16.995	-150.919	 36.28392	 -5.16332	 34.51520	  2.85066	 22.97908	 -1.55639	 42.62326	712.95001	 26.20	
 16.988	-145.161	 36.30487	 -4.38070	 33.21935	  1.22622	 25.14285	 -1.49935	 42.63094	712.91998	 26.20	
 17.014	-139.343	 36.30016	 -3.46009	 31.71884	 -0.30230	 27.17344	 -1.41339	 42.63663	712.90002	 26.20	
 17.007	-133.546	 36.34097	 -2.25113	 29.98017	 -1.65653	 29.10306	 -1.38017	 42.63858	712.94000	 26.20	
 17.001	-127.699	 36.35747	 -0.84314	 28.06467	 -2.86690	 30.88370	 -1.34319	 42.65044	712.96002	 26.20	
 17.006	-121.937	 36.34223	  0.71856	 26.03237	 -3.85940	 32.44070	 -1.30034	 42.63913	712.51001	 26.20	
 17.002	-116.134	 36.35666	  2.44694	 23.88498	 -4.62428	 33.78997	 -1.32020	 42.64150	712.52002	 26.20	
 17.001	-110.310	 36.39980	  4.29799	 21.67086	 -5.20221	 34.90093	 -1.32202	 42.65195	712.88000	 26.20	
 16.988	-104.517	 36.42580	  6.27072	 19.43198	 -5.66233	 35.71844	 -1.30174	 42.63568	712.85999	 26.20	
 17.008	-98.662	 36.42625	  8.31938	 17.15657	 -6.05390	 36.32159	 -1.31165	 42.62593	712.09998	 26.30	
 16.996	-92.909	 36.46804	 10.48688	 14.93405	 -6.23264	 36.67564	 -1.32877	 42.65797	712.28998	 26.30	
 16.996	-87.091	 36.46482	 12.73951	 12.70698	 -6.27996	 36.74841	 -1.35926	 42.64133	712.90997	 26.30	
 17.012	-81.253	 36.48143	 15.05810	 10.56267	 -6.12618	 36.57329	 -1.38608	 42.63689	712.59998	 26.30	
 16.988	-75.483	 36.52610	 17.46712	  8.48894	 -5.66189	 36.10998	 -1.41258	 42.64775	712.64001	 26.30	
 17.001	-69.690	 36.51805	 19.77180	  6.47641	 -5.22685	 35.38659	 -1.48458	 42.64059	712.20001	 26.30	
 17.002	-63.866	 36.50582	 22.07161	  4.64593	 -4.68816	 34.40967	 -1.45634	 42.62689	712.06000	 26.30	
 17.006	-58.063	 36.52220	 24.32477	  2.83068	 -3.96835	 33.17940	 -1.51980	 42.63575	712.10999	 26.30	
 17.001	-52.301	 36.51303	 26.40953	  1.21895	 -3.04896	 31.68847	 -1.54843	 42.60468	712.84998	 26.30	
 17.007	-46.454	 36.56057	 28.41381	 -0.23171	 -1.93792	 30.07928	 -1.62459	 42.63969	712.08002	 26.30	
 17.014	-40.657	 36.56974	 30.20592	 -1.53134	 -0.64261	 28.26995	 -1.68672	 42.63197	712.13000	 26.30	
 16.988	-34.839	 36.57648	 31.82852	 -2.53795	  0.83671	 26.26444	 -1.71342	 42.62814	712.07001	 26.30	
 16.995	-29.081	 36.60140	 33.25396	 -3.46287	  2.47203	 24.13598	 -1.75379	 42.63877	712.51001	 26.30	
 16.990	-23.241	 36.62214	 34.46197	 -4.18321	  4.32820	 21.85378	 -1.77678	 42.64000	712.33002	 26.30	
 17.000	-17.404	 36.59064	 35.41084	 -4.81191	  6.22080	 19.53344	 -1.78091	 42.61787	712.15997	 26.30	
 17.009	-11.617	 36.59792	 36.14487	 -5.42197	  8.26262	 17.27049	 -1.82179	 42.63279	712.25000	 26.30	
 16.990	 -5.821	 36.60307	 36.57544	 -5.74721	 10.45184	 14.92404	 -1.84067	 42.63030	712.15002	 26.30	
 17.000	  0.000	 36.59237	 36.78297	 -5.91455	 12.62572	 12.62864	 -1.88941	 42.63056	712.84003	 26.30	
 16.990	  5.821	 36.59302	 36.70776	 -5.91713	 14.82861	 10.35623	 -1.94857	 42.64285	712.92999	 26.30	
 17.009	 11.617	 36.55789	 36.32486	 -5.71839	 17.12272	  8.13341	 -2.01231	 42.62763	712.83002	 26.30	
 17.000	 17.404	 36.56183	 35.68855	 -5.34553	 19.46017	  6.08171	 -2.00457	 42.64552	712.81000	 26.30	
 16.990	 23.241	 36.51783	 34.83757	 -4.89779	 21.78036	  4.08592	 -1.99386	 42.63362	712.89001	 26.30	
 16.995	 29.081	 36.48793	 33.67056	 -4.20340	 24.05403	  2.19189	 -2.00654	 42.61953	712.12000	 26.30	
 16.988	 34.839	 36.50514	 32.30569	 -3.29876	 26.16454	  0.52924	 -2.04838	 42.64256	712.57001	 26.30	
 17.014	 40.657	 36.47351	 30.70314	 -2.30817	 28.18080	 -1.03912	 -2.13433	 42.64050	712.87000	 26.30	
 17.007	 46.454	 36.46520	 28.89732	 -1.12349	 30.01658	 -2.34640	 -2.21699	 42.63401	712.13000	 26.30	
 17.001	 52.301	 36.44212	 26.95612	  0.19839	 31.69133	 -3.45537	 -2.32237	 42.63157	712.89001	 26.30	
 17.006	 58.063	 36.45324	 24.91813	  1.69500	 33.18020	 -4.39354	 -2.40622	 42.63391	712.09003	 26.30	
 17.002	 63.866	 36.43772	 22.69659	  3.35074	 34.45619	 -5.28830	 -2.42410	 42.64148	712.12000	 26.30	
 17.001	 69.690	 36.40828	 20.41768	  5.11589	 35.49921	 -5.92642	 -2.46158	 42.63430	712.64001	 26.30	
 16.988	 75.483	 36.38967	 18.11778	  7.02875	 36.28469	 -6.35844	 -2.49668	 42.63134	712.79999	 26.30	
 17.012	 81.253	 36.32528	 15.81341	  9.08501	 36.83626	 -6.77153	 -2.48299	 42.60920	712.15002	 26.40	
 16.996	 87.091	 36.30681	 13.49920	 11.28833	 37.11800	 -6.98941	 -2.43693	 42.62538	712.97998	 26.40	
 16.996	 92.909	 36.26334	 11.23577	 13.46750	 37.15337	 -7.04158	 -2.44813	 42.61540	712.50000	 26.40	
 17.008	 98.662	 36.20582	  9.02730	 15.68855	 36.92729	 -7.01059	 -2.51194	 42.61295	712.92999	 26.40	
 16.988	104.517	 36.19536	  6.90561	 18.02564	 36.41196	 -6.72569	 -2.53353	 42.62358	712.92999	 26.40	
 17.001	110.310	 36.15859	  4.87655	 20.23023	 35.63954	 -6.21817	 -2.52497	 42.61576	712.12000	 26.40	
 17.002	116.134	 36.11480	  2.95773	 22.55886	 34.61395	 -5.54583	 -2.45086	 42.58874	712.09003	 26.40	
 17.006	121.937	 36.07959	  1.21679	 24.82342	 33.38105	 -4.82013	 -2.38877	 42.58192	712.20001	 26.40	
 17.001	127.699	 36.05457	 -0.32327	 26.82211	 31.94400	 -3.90278	 -2.37534	 42.59166	712.13000	 26.40	
 17.007	133.546	 36.03060	 -1.75064	 28.80313	 30.26596	 -2.79340	 -2.36638	 42.59473	712.53998	 26.40	
 17.014	139.343	 36.00574	 -3.01633	 30.59813	 28.40616	 -1.53252	 -2.37969	 42.59119	712.91998	 26.40	
 16.988	145.161	 35.99425	 -4.07333	 32.22221	 26.43916	 -0.06004	 -2.34426	 42.57139	712.19000	 26.40	
 16.995	150.919	 35.99088	 -5.07002	 33.62542	 24.39591	  1.50039	 -2.30500	 42.59892	712.79999	 26.40	
 16.990	156.759	 35.98838	 -5.80061	 34.84968	 22.08725	  3.24290	 -2.21126	 42.59515	712.38000	 26.40	
 17.000	162.596	 35.99611	 -6.37196	 35.83413	 19.76176	  5.13467	 -2.12514	 42.57895	712.90997	 26.40	
 17.009	168.383	 35.98856	 -6.88415	 36.56171	 17.46019	  7.08915	 -2.03895	 42.58599	712.14001	 26.40	
 16.990	174.179	 36.03787	 -7.19566	 37.04017	 15.20129	  9.23363	 -1.93370	 42.59114	712.84003	 26.40	
 18.709	174.675	 34.54118	 -9.66183	 38.26650	 14.06422	  8.16459	 -2.00992	 42.58541	712.15997	 26.50	
 18.703	169.441	 34.49508	 -9.39562	 37.82489	 16.30539	  6.08423	 -2.15333	 42.56247	712.87000	 26.50	
 18.691	164.085	 34.52125	 -8.91360	 37.15076	 18.60255	  4.08052	 -2.23602	 42.59000	712.92999	 26.50	
 18.706	158.818	 34.48219	 -8.36894	 36.22547	 20.90846	  2.16036	 -2.33815	 42.58418	712.77002	 26.50	
 18.695	153.537	 34.49724	 -7.68300	 35.10071	 23.19113	  0.44035	 -2.41416	 42.58167	712.87000	 26.50	
 18.704	148.255	 34.54702	 -6.82622	 33.83552	 25.37349	 -1.11445	 -2.48945	 42.60725	712.89001	 26.50	
 18.698	142.952	 34.54030	 -5.82663	 32.26665	 27.44648	 -2.61407	 -2.53907	 42.58090	712.84998	 26.50	
 18.699	137.625	 34.55492	 -4.72356	 30.55841	 29.39197	 -3.90426	 -2.60276	 42.58471	712.88000	 26.50	
 18.705	132.343	 34.60172	 -3.50207	 28.75865	 31.23502	 -5.03943	 -2.62363	 42.60629	712.96997	 26.50	
 18.713	127.067	 34.62088	 -2.10628	 26.78729	 32.85239	 -6.08864	 -2.64930	 42.57657	712.21997	 26.50	
 18.700	121.794	 34.64952	 -0.57364	 24.74086	 34.28643	 -7.05453	 -2.70847	 42.57543	712.34998	 26.50	
 18.698	116.504	 34.65884	  1.07838	 22.47736	 35.54487	 -7.89470	 -2.72837	 42.58931	712.32001	 26.50	
 18.707	111.165	 34.68802	  2.91412	 20.10254	 36.61174	 -8.60585	 -2.78668	 42.58678	712.82001	 26.50	
 18.690	105.863	 34.70405	  4.89502	 17.77893	 37.37556	 -9.08401	 -2.84828	 42.57314	712.12000	 26.50	
 18.696	100.583	 34.73203	  6.96737	 15.52274	 37.94675	 -9.36121	 -2.86456	 42.57065	712.09998	 26.50	
 18.700	 95.309	 34.76749	  9.09790	 13.38117	 38.26012	 -9.43687	 -2.83801	 42.55746	712.09003	 26.50	
 18.700	 90.000	 34.82278	 11.28091	 11.23170	 38.37339	 -9.39489	 -2.82676	 42.57804	712.02002	 26.50	
 18.700	 84.691	 34.87610	 13.52180	  9.12831	 38.22327	 -9.27957	 -2.85972	 42.58934	712.10999	 26.50	
 18.696	 79.417	 34.89938	 15.83125	  7.01625	 37.85532	 -9.01150	 -2.85183	 42.57993	712.19000	 26.50	
 18.690	 74.137	 34.94042	 18.11314	  5.01989	 37.23156	 -8.66326	 -2.84510	 42.59043	712.08002	 26.50	
 18.707	 68.835	 34.95407	 20.44089	  3.07114	 36.39174	 -8.10963	 -2.85419	 42.58152	712.04999	 26.50	
 18.698	 63.496	 34.98489	 22.75222	  1.30059	 35.28125	 -7.37794	 -2.81154	 42.57294	712.15002	 26.50	
 18.700	 58.206	 35.02363	 24.96052	 -0.26471	 34.00312	 -6.47508	 -2.75814	 42.59733	712.19000	 26.50	
 18.713	 52.933	 35.04097	 27.03858	 -1.59866	 32.51749	 -5.48805	 -2.69336	 42.59336	712.16998	 26.50	
 18.705	 47.657	 35.03307	 28.93673	 -2.76561	 30.87744	 -4.63215	 -2.60173	 42.58081	712.07001	 26.50	
 18.699	 42.375	 35.02195	 30.73205	 -3.97062	 29.07408	 -3.53209	 -2.51131	 42.56536	712.19000	 26.50	
 18.698	 37.048	 35.03248	 32.41448	 -5.15485	 27.17081	 -2.13432	 -2.42522	 42.58204	712.12000	 26.60	
 18.704	 31.745	 35.04133	 33.93037	 -6.08611	 25.08593	 -0.54268	 -2.36444	 42.58511	712.12000	 26.60	
 18.695	 26.463	 35.03223	 35.20446	 -6.87339	 22.89744	  1.17981	 -2.33757	 42.55660	712.16998	 26.60	
 18.706	 21.182	 35.06574	 36.28397	 -7.53155	 20.56339	  3.09266	 -2.31287	 42.59165	712.10999	 26.60	
 18.691	 15.915	 35.10038	 37.04155	 -7.88288	 18.28226	  5.09391	 -2.30269	 42.57978	712.12000	 26.60	
 18.703	 10.559	 35.10708	 37.64157	 -8.15940	 15.98008	  7.16735	 -2.26544	 42.58562	712.14001	 26.60	
 18.709	  5.325	 35.11274	 37.97034	 -8.27755	 13.74089	  9.31246	 -2.15998	 42.57532	712.44000	 26.60	
 18.700	  0.000	 35.14488	 38.02674	 -8.22988	 11.51994	 11.57514	 -2.06498	 42.58225	712.10999	 26.60	
 18.709	 -5.325	 35.13552	 37.85632	 -8.10106	  9.36063	 13.84257	 -2.00771	 42.58407	712.07001	 26.60	
 18.703	-10.559	 35.15305	 37.45326	 -7.77070	  7.25026	 16.16846	 -1.92800	 42.58767	712.12000	 26.60	
 18.691	-15.915	 35.14659	 36.77818	 -7.27944	  5.16005	 18.53669	 -1.88101	 42.57581	712.12000	 26.60	
 18.706	-21.182	 35.14742	 35.89056	 -6.64414	  3.27944	 20.78440	 -1.80634	 42.56008	712.09003	 26.60	
 18.695	-26.463	 35.14396	 34.77530	 -5.99192	  1.46207	 23.06443	 -1.75911	 42.55865	712.09003	 26.60	
 18.704	-31.745	 35.11700	 33.47584	 -5.19395	 -0.26170	 25.26825	 -1.68723	 42.54977	712.21997	 26.60	
 18.698	-37.048	 35.14235	 31.95933	 -4.26395	 -1.73025	 27.34544	 -1.65379	 42.57518	712.13000	 26.60	
 18.699	-42.375	 35.08984	 30.21480	 -3.23911	 -3.07321	 29.28311	 -1.58708	 42.55505	712.16998	 26.60	
 18.705	-47.657	 35.07600	 28.38271	 -1.95582	 -4.23925	 31.10057	 -1.53472	 42.56671	712.15002	 26.60	
 18.713	-52.933	 35.05375	 26.38195	 -0.54547	 -5.24147	 32.64112	 -1.46368	 42.55920	712.12000	 26.60	
 18.700	-58.206	 35.05074	 24.28300	  1.01718	 -6.10916	 34.05021	 -1.42889	 42.54913	712.52002	 26.60	
 18.698	-63.496	 35.02500	 22.01416	  2.67547	 -6.91642	 35.27492	 -1.36645	 42.54570	712.13000	 26.60	
 18.707	-68.835	 35.00608	 19.65241	  4.55643	 -7.62621	 36.33484	 -1.33137	 42.55026	712.15002	 26.60	
 18.690	-74.137	 35.02277	 17.34886	  6.51056	 -8.01913	 37.10961	 -1.32616	 42.56537	712.09998	 26.60	
 18.696	-79.417	 34.99622	 15.04568	  8.47724	 -8.28318	 37.63034	 -1.27659	 42.54911	712.08002	 26.60	
 18.700	-84.691	 34.97849	 12.69280	 10.55640	 -8.56326	 37.91366	 -1.24186	 42.56002	712.19000	 26.60	
 18.700	-90.000	 34.95324	 10.45978	 12.66618	 -8.57155	 37.95308	 -1.22023	 42.56812	712.21997	 26.60	
 18.700	-95.309	 34.92292	  8.29962	 14.82606	 -8.51820	 37.76259	 -1.18664	 42.55815	712.10999	 26.60	
 18.696	-100.583	 34.90868	  6.20641	 17.07198	 -8.35737	 37.34171	 -1.16006	 42.56823	712.21002	 26.60	
 18.690	-105.863	 34.88915	  4.23097	 19.31709	 -7.96789	 36.65192	 -1.17915	 42.54812	712.16998	 26.60	
 18.707	-111.165	 34.87335	  2.27601	 21.56477	 -7.43705	 35.76262	 -1.17210	 42.55062	712.25000	 26.60	
 18.698	-116.504	 34.87376	  0.44680	 23.83812	 -6.73413	 34.60152	 -1.16203	 42.55534	712.08002	 26.60	
 18.700	-121.794	 34.85831	 -1.19947	 25.97890	 -5.98527	 33.25519	 -1.17302	 42.56586	712.21002	 26.60	
 18.713	-127.067	 34.82964	 -2.72412	 27.99047	 -5.14196	 31.71349	 -1.19508	 42.56783	712.12000	 26.60	
 18.705	-132.343	 34.80384	 -4.08497	 29.91433	 -4.07485	 29.96239	 -1.22994	 42.54812	712.01001	 26.70	
 18.699	-137.625	 34.83229	 -5.11908	 31.67115	 -2.77014	 28.08094	 -1.29121	 42.54201	712.09998	 26.60	
 18.698	-142.952	 34.83842	 -6.04379	 33.28135	 -1.42561	 26.10041	 -1.35919	 42.56722	712.45001	 26.70	
 18.704	-148.255	 34.81065	 -6.98125	 34.69886	 -0.01374	 23.99520	 -1.43800	 42.57132	712.83002	 26.70	
 18.695	-153.537	 34.78977	 -7.79636	 35.92955	  1.71178	 21.73401	 -1.50431	 42.55460	712.46002	 26.70	
 18.706	-158.818	 34.75959	 -8.45711	 36.93475	  3.58030	 19.40825	 -1.54707	 42.56978	712.83002	 26.70	
 18.691	-164.085	 34.72355	 -8.91175	 37.65429	  5.55073	 17.12377	 -1.60105	 42.56127	712.01001	 26.70	
 18.703	-169.441	 34.65945	 -9.31230	 38.13496	  7.64825	 14.74568	 -1.66904	 42.54307	712.09998	 26.70	
 18.709	-174.675	 34.62204	 -9.50755	 38.41546	  9.73762	 12.48044	 -1.76952	 42.56264	712.19000	 26.70	
 18.700	180.000	 34.57920	 -9.62971	 38.44308	 11.81638	 10.34735	 -1.88269	 42.57110	712.20001	 26.70	
 20.400	180.000	 32.99399	-11.92454	 39.46632	 10.61934	  9.20187	 -1.87727	 42.56246	712.15002	 26.70	
 20.401	-175.153	 33.03624	-11.77375	 39.44114	  8.67892	 11.19632	 -1.68378	 42.55192	712.37000	 26.70	
 20.407	-170.264	 33.08125	-11.66919	 39.23050	  6.54791	 13.43129	 -1.58315	 42.56010	712.85999	 26.70	
 20.410	-165.423	 33.09742	-11.42650	 38.80127	  4.47671	 15.70916	 -1.52145	 42.55332	712.29999	 26.70	
 20.392	-160.496	 33.18639	-10.97951	 38.13570	  2.53833	 18.05485	 -1.44222	 42.57525	712.19000	 26.70	
 20.401	-155.705	 33.17416	-10.39271	 37.20020	  0.65349	 20.33585	 -1.41744	 42.53786	712.12000	 26.70	
 20.405	-150.835	 33.21354	 -9.67104	 36.07441	 -1.08817	 22.64870	 -1.36303	 42.55864	712.77002	 26.70	
 20.397	-145.903	 33.27347	 -8.75168	 34.75959	 -2.59711	 24.89207	 -1.31533	 42.56646	712.82001	 26.70	
 20.392	-141.062	 33.30824	 -7.68360	 33.25813	 -3.90140	 26.99835	 -1.26047	 42.55914	712.82001	 26.70	
 20.396	-136.227	 33.29778	 -6.60824	 31.59131	 -5.15700	 28.96191	 -1.21475	 42.55469	712.78998	 26.80	
 20.408	-131.372	 33.27962	 -5.68084	 29.82464	 -6.19786	 30.75888	 -1.15914	 42.54058	712.04999	 26.80	
 20.410	-126.511	 33.30331	 -4.51141	 27.90678	 -7.25677	 32.48181	 -1.13154	 42.55897	712.08002	 26.80	
 20.400	-121.604	 33.29972	 -3.07057	 25.81573	 -8.17075	 34.02287	 -1.08557	 42.55589	712.16998	 26.80	
 20.403	-116.741	 33.30534	 -1.51690	 23.67069	 -8.99852	 35.41648	 -1.08960	 42.58031	712.79999	 26.80	
 20.413	-111.900	 33.28973	  0.25317	 21.40096	 -9.72072	 36.57397	 -1.07846	 42.56807	712.73999	 26.80	
 20.398	-107.004	 33.27771	  2.16441	 19.10208	-10.29050	 37.51074	 -1.07847	 42.53370	712.47998	 26.80	
 20.394	-102.132	 33.30602	  4.15375	 16.86920	-10.72738	 38.24841	 -1.07756	 42.56364	712.06000	 26.80	
 20.403	-97.332	 33.31020	  6.17043	 14.69478	-10.96719	 38.75007	 -1.07042	 42.56987	712.90997	 26.80	
 20.392	-92.440	 33.36363	  8.31575	 12.47602	-10.87445	 39.02278	 -1.12172	 42.56797	712.84003	 26.80	
 20.392	-87.560	 33.38744	 10.42667	 10.43516	-10.77246	 39.07750	 -1.14258	 42.55015	712.03998	 26.80	
 20.403	-82.668	 33.37764	 12.59828	  8.37071	-10.81340	 38.97422	 -1.17481	 42.55113	712.53998	 26.80	
 20.394	-77.868	 33.37640	 14.82839	  6.34534	-10.69743	 38.61306	 -1.19205	 42.54169	712.01001	 26.80	
 20.398	-72.996	 33.38237	 17.13279	  4.35448	-10.43205	 38.03400	 -1.23363	 42.53469	712.06000	 26.80	
 20.413	-68.100	 33.36852	 19.44992	  2.52259	 -9.97395	 37.21558	 -1.25716	 42.52605	712.04999	 26.80	
 20.403	-63.259	 33.42358	 21.80776	  0.74057	 -9.24509	 36.17577	 -1.30611	 42.55077	712.59003	 26.80	
 20.400	-58.396	 33.45946	 24.07932	 -0.87196	 -8.40944	 34.93475	 -1.33213	 42.55682	712.78998	 26.80	
 20.410	-53.489	 33.47914	 26.24486	 -2.34389	 -7.43959	 33.58751	 -1.42684	 42.54053	712.77002	 26.80	
 20.408	-48.628	 33.49054	 28.29138	 -3.69409	 -6.42196	 32.00047	 -1.44844	 42.55153	712.35999	 26.80	
 20.396	-43.773	 33.51635	 30.18794	 -4.94930	 -5.32763	 30.23795	 -1.51755	 42.54071	712.78003	 26.80	
 20.392	-38.938	 33.56787	 31.95719	 -6.01826	 -4.15628	 28.37205	 -1.56881	 42.57139	712.03003	 26.80	
 20.397	-34.097	 33.57788	 33.52298	 -6.87874	 -2.88007	 26.37416	 -1.63796	 42.56606	712.26001	 26.80	
 20.405	-29.165	 33.58588	 34.98023	 -7.75945	 -1.33073	 24.22187	 -1.67458	 42.57973	712.15997	 26.80	
 20.401	-24.295	 33.56974	 36.19180	 -8.45608	  0.35653	 21.95425	 -1.73528	 42.54998	712.14001	 26.80	
 20.392	-19.504	 33.60606	 37.20667	 -9.08174	  2.16827	 19.71174	 -1.80996	 42.56517	712.08002	 26.80	
 20.410	-14.577	 33.56276	 38.00205	 -9.60216	  4.07850	 17.37918	 -1.91310	 42.53602	712.87000	 26.80	
 20.407	 -9.736	 33.57587	 38.58969	-10.02646	  6.10857	 15.05713	 -1.99119	 42.54007	712.34998	 26.80	
 20.401	 -4.847	 33.59332	 38.95667	-10.27011	  8.23827	 12.76058	 -2.10119	 42.55560	712.81000	 26.80	
 20.400	  0.000	 33.58006	 39.11144	-10.40664	 10.34339	 10.54616	 -2.18357	 42.54361	712.78998	 26.80	
 20.401	  4.847	 33.53191	 39.06221	-10.58562	 12.46300	  8.31242	 -2.32909	 42.53953	712.07001	 26.80	
 20.407	  9.736	 33.48931	 38.77712	-10.64799	 14.66015	  6.13175	 -2.43080	 42.54343	712.67999	 26.80	
 20.410	 14.577	 33.47602	 38.26037	-10.42514	 16.94174	  4.07847	 -2.49013	 42.53704	712.85999	 26.80	
 20.392	 19.504	 33.46134	 37.54901	-10.12264	 19.20286	  2.04438	 -2.50700	 42.54190	712.84998	 26.80	
 20.401	 24.295	 33.43538	 36.59301	 -9.55243	 21.42209	  0.17673	 -2.56978	 42.54332	712.07001	 26.80	
 20.405	 29.165	 33.44291	 35.39214	 -8.84560	 23.80043	 -1.57137	 -2.63897	 42.56144	711.95001	 26.80	
 20.397	 34.097	 33.45800	 33.95179	 -7.95393	 26.00614	 -3.19337	 -2.71661	 42.55648	712.85999	 26.90	
 20.392	 38.938	 33.46972	 32.36122	 -6.90759	 28.03578	 -4.57332	 -2.80783	 42.54763	712.89001	 26.90	
 20.396	 43.773	 33.48011	 30.62674	 -5.53336	 29.89500	 -5.70235	 -2.95319	 42.51983	712.78998	 26.90	
 20.408	 48.628	 33.50375	 28.86399	 -4.42826	 31.66107	 -6.55155	 -3.01446	 42.53437	712.84003	 26.90	
 20.410	 53.489	 33.46168	 26.91878	 -3.39654	 33.29080	 -7.58750	 -3.08071	 42.53955	712.76001	 26.90	
 20.400	 58.396	 33.41048	 24.76033	 -2.15134	 34.73492	 -8.68361	 -3.09360	 42.53156	712.53998	 26.90	
 20.403	 63.259	 33.36172	 22.52660	 -0.66037	 36.01162	 -9.59909	 -3.13591	 42.52340	712.47998	 26.90	
 20.413	 68.100	 33.36563	 20.33888	  1.03809	 37.11557	-10.29341	 -3.19596	 42.54001	712.56000	 26.90	
 20.398	 72.996	 33.36815	 17.99841	  2.92983	 38.01354	-10.87853	 -3.19480	 42.55011	712.87000	 26.90	
 20.394	 77.868	 33.32302	 15.69377	  4.89591	 38.64261	-11.26740	 -3.20430	 42.52200	712.09998	 26.90	
 20.403	 82.668	 33.27040	 13.38808	  6.91290	 39.10449	-11.61495	 -3.23167	 42.52800	712.87000	 26.90	
 20.392	 87.560	 33.24984	 11.11781	  8.93685	 39.32289	-11.69640	 -3.24808	 42.51352	712.96002	 26.90	
 20.392	 92.440	 33.21273	  9.06117	 10.97143	 39.33984	-11.71077	 -3.21118	 42.51147	712.20001	 26.90	
 20.403	 97.332	 33.17544	  6.92262	 13.12739	 39.20088	-11.82497	 -3.16337	 42.54622	712.07001	 26.90	
 20.394	102.132	 33.12209	  4.88192	 15.30476	 38.78121	-11.70154	 -3.12566	 42.51648	712.57001	 26.90	
 20.398	107.004	 33.09330	  2.88377	 17.54298	 38.17992	-11.35379	 -3.07138	 42.52631	712.17999	 26.90	
 20.413	111.900	 33.04346	  0.97802	 19.83969	 37.35477	-10.85964	 -3.00604	 42.53714	712.08002	 26.90	
 20.403	116.741	 33.01126	 -0.76411	 22.14170	 36.31057	-10.19741	 -2.98368	 42.52650	712.09003	 26.90	
 20.400	121.604	 33.01580	 -2.32622	 24.38310	 35.09100	 -9.35084	 -2.93857	 42.53536	712.16998	 26.90	
 20.410	126.511	 32.99036	 -3.79816	 26.53105	 33.62416	 -8.34977	 -2.91438	 42.51762	712.13000	 26.90	
 20.408	131.372	 32.98777	 -5.10575	 28.54082	 31.93212	 -7.21931	 -2.85508	 42.52334	712.10999	 26.90	
 20.396	136.227	 32.97297	 -6.29415	 30.41479	 30.12576	 -6.07873	 -2.77188	 42.51771	712.38000	 26.90	
 20.392	141.062	 32.92775	 -7.47092	 32.14547	 28.31819	 -4.98264	 -2.69918	 42.52390	712.09998	 26.90	
 20.397	145.903	 32.89405	 -8.48855	 33.72215	 26.27900	 -3.68775	 -2.58232	 42.51344	712.70001	 26.90	
 20.405	150.835	 32.85454	 -9.46027	 35.17019	 24.08831	 -2.26268	 -2.48748	 42.51892	712.94000	 26.90	
 20.401	155.705	 32.83571	-10.24072	 36.39954	 21.87766	 -0.68956	 -2.42729	 42.52895	712.59998	 26.90	
 20.392	160.496	 32.84884	-10.82684	 37.37984	 19.63257	  1.07862	 -2.34821	 42.52617	712.87000	 26.90	
 20.410	165.423	 32.83964	-11.41763	 38.24704	 17.26057	  2.99422	 -2.24768	 42.52940	712.96997	 26.90	
 20.407	170.264	 32.84175	-11.81993	 38.85229	 15.03641	  4.94671	 -2.16107	 42.51168	712.09998	 26.90	
 20.401	175.153	 32.91318	-12.01682	 39.26516	 12.76775	  7.05228	 -2.06260	 42.53619	712.56000	 26.90	
  0.141	 45.000	 42.51405	 17.68923	 18.59289	 18.47753	 17.41047	  0.77559	 42.53799	712.90997	 26.90	
  4.001	128.691	 42.30654	 13.92940	 21.65475	 22.49256	 12.86513	  0.52265	 42.52766	712.37000	 26.90	
  4.002	 76.995	 42.34832	 18.56252	 16.91898	 23.52337	 12.01771	  0.66252	 42.53491	712.06000	 27.00	
  4.002	 25.892	 42.40690	 22.47054	 13.47369	 20.36629	 14.95074	  0.74558	 42.53868	712.17999	 27.00	
  4.002	-25.892	 42.42195	 22.38601	 13.54203	 15.51352	 19.79067	  0.67537	 42.53618	712.15002	 27.00	
  4.002	-76.995	 42.38385	 18.39314	 17.30206	 12.78513	 22.82833	  0.51186	 42.52784	712.07001	 27.00	
  4.001	-128.691	 42.33027	 13.80952	 22.06301	 13.85242	 21.51820	  0.41688	 42.52689	712.12000	 27.00	
  4.000	180.000	 42.29360	 11.87545	 23.97784	 18.03759	 17.05667	  0.41048	 42.51146	712.21002	 27.00	
  8.000	180.000	 41.33131	  6.13303	 28.67532	 17.06357	 15.97363	 -0.34419	 42.52123	712.09998	 27.00	
  7.991	-152.370	 41.38099	  7.17432	 27.48860	 12.28409	 21.19722	 -0.31051	 42.52156	712.10999	 27.00	
  7.997	-124.550	 41.44150	 10.23661	 24.00931	  8.76278	 25.47428	 -0.38354	 42.52530	712.06000	 27.00	
  8.006	-96.837	 41.50066	 14.85612	 19.00756	  7.12063	 27.69661	 -0.35680	 42.53762	712.12000	 27.00	
  7.988	-69.228	 41.56086	 20.10968	 13.90259	  7.64305	 27.12264	 -0.26883	 42.52920	712.09998	 27.00	
  7.997	-41.563	 41.55772	 24.70531	  9.95215	 10.11954	 24.10102	 -0.13377	 42.50805	712.04999	 27.00	
  8.008	-13.821	 41.55861	 27.48942	  7.74877	 14.42338	 19.22297	  0.16783	 42.52127	712.02002	 27.00	
  8.008	 13.821	 41.53886	 27.61356	  7.48406	 19.61307	 13.95513	  0.27751	 42.52951	712.37000	 27.00	
  7.997	 41.563	 41.49947	 25.03464	  9.50139	 24.45130	  9.53042	  0.08652	 42.51846	712.71002	 27.00	
  7.988	 69.228	 41.43057	 20.45078	 13.24883	 27.61243	  6.74963	 -0.01831	 42.51421	712.16998	 27.00	
  8.006	 96.837	 41.36447	 15.19200	 18.19366	 28.40847	  6.06941	 -0.06714	 42.52341	712.03003	 27.00	
  7.997	124.550	 41.31642	 10.44724	 23.28551	 26.48006	  7.54710	 -0.11069	 42.51700	712.28003	 27.00	
  7.991	152.370	 41.29564	  7.24915	 27.10294	 22.39344	 11.06239	 -0.28216	 42.50557	712.79999	 27.00	
 12.009	161.059	 39.43828	  0.91854	 31.71359	 20.99239	  9.18956	 -1.29566	 42.52170	712.10999	 27.00	
 12.013	142.081	 39.40658	  2.98895	 28.73986	 25.98640	  4.98985	 -1.35014	 42.49581	712.06000	 27.00	
 12.006	123.113	 39.47610	  6.47836	 24.37353	 29.80097	  2.02259	 -1.27232	 42.52045	712.48999	 27.00	
 12.007	104.200	 39.52856	 11.04573	 19.16611	 32.18737	  0.42586	 -1.25944	 42.51322	712.09998	 27.00	
 11.989	 85.301	 39.63109	 16.32765	 13.86793	 32.62209	  0.19051	 -1.11888	 42.53067	712.82001	 27.00	
 12.013	 66.294	 39.66259	 21.74737	  9.02647	 31.13135	  1.23904	 -1.12233	 42.51133	712.91998	 27.00	
 12.012	 47.388	 39.69098	 26.55391	  5.21963	 27.86169	  3.80185	 -1.00929	 42.51207	712.34003	 27.10	
 11.990	 28.440	 39.77542	 30.09851	  2.68450	 23.35112	  7.61459	 -0.79282	 42.52397	712.97998	 27.10	
 11.991	  9.464	 39.81117	 31.99444	  1.46583	 17.98586	 12.46966	 -0.85286	 42.51655	712.12000	 27.10	
 11.991	 -9.464	 39.81908	 31.87184	  1.67764	 12.76868	 17.80675	 -0.88482	 42.50466	712.20001	 27.10	
 11.990	-28.440	 39.82588	 29.79498	  3.18964	  8.08012	 23.15482	 -1.07778	 42.51236	712.10999	 27.10	
 12.012	-47.388	 39.80540	 26.06993	  5.95289	  4.40598	 27.67789	 -1.16535	 42.50312	712.51001	 27.10	
 12.013	-66.294	 39.77633	 21.17078	 10.06093	  2.07806	 30.79799	 -1.25782	 42.49963	712.15002	 27.10	
 11.989	-85.301	 39.76463	 15.74131	 15.07017	  1.15223	 32.09329	 -1.26739	 42.49677	712.17999	 27.10	
 12.007	-104.200	 39.70398	 10.57389	 20.40082	  1.48595	 31.44335	 -1.22305	 42.50813	712.21002	 27.10	
 12.006	-123.113	 39.63941	  6.09985	 25.46342	  3.21923	 28.94185	 -1.29274	 42.50902	712.21002	 27.10	
 12.013	-142.081	 39.60019	  2.78491	 29.53062	  6.32823	 24.83019	 -1.24102	 42.51185	712.20001	 27.10	
 12.009	-161.059	 39.54778	  0.87534	 32.11398	 10.57688	 19.71122	 -1.32958	 42.49467	712.15997	 27.10	
 16.000	180.000	 36.79049	 -5.84565	 36.43694	 13.49183	 12.04965	 -1.86417	 42.50184	712.13000	 27.10	
 15.990	-165.604	 36.90524	 -5.26116	 35.87151	  8.52344	 17.45668	 -1.71856	 42.51701	712.10999	 27.10	
 16.002	-151.165	 36.96399	 -3.90819	 33.91567	  4.00235	 22.81283	 -1.54685	 42.51076	712.13000	 27.10	
 16.002	-136.836	 37.00631	 -1.65353	 30.50066	  0.33809	 27.68817	 -1.42295	 42.50109	712.21002	 27.10	
 15.995	-122.439	 37.01763	  1.73517	 26.05270	 -2.47203	 31.68059	 -1.39637	 42.50429	712.25000	 27.10	
 15.993	-107.966	 37.06024	  6.01041	 20.89585	 -4.12175	 34.45724	 -1.35523	 42.50529	712.17999	 27.10	
 16.005	-93.629	 37.11516	 10.86503	 15.68856	 -4.91456	 35.75847	 -1.36071	 42.52343	712.14001	 27.10	
 15.992	-79.234	 37.14451	 16.23190	 10.52483	 -4.63862	 35.54921	 -1.43995	 42.49627	712.03998	 27.10	
 16.009	-64.774	 37.16063	 21.68853	  5.89276	 -3.53350	 33.79146	 -1.49923	 42.50398	712.13000	 27.10	
 15.997	-50.364	 37.22692	 26.77911	  1.87115	 -1.39804	 30.58923	 -1.57028	 42.51914	712.17999	 27.10	
 15.997	-36.045	 37.23955	 30.89268	 -1.09180	  1.70786	 26.38442	 -1.69555	 42.50014	712.15997	 27.10	
 16.000	-21.597	 37.25275	 33.96165	 -3.07842	  5.82149	 21.23906	 -1.71317	 42.49630	712.10999	 27.10	
 16.003	 -7.169	 37.25245	 35.64207	 -4.34258	 10.63685	 15.79603	 -1.68133	 42.51447	712.12000	 27.10	
 16.003	  7.169	 37.21582	 35.75663	 -4.55022	 15.71794	 10.47281	 -1.77281	 42.48925	712.20001	 27.10	
 16.000	 21.597	 37.16984	 34.29310	 -3.64757	 21.15787	  5.57415	 -1.76875	 42.48151	712.17999	 27.10	
 15.997	 36.045	 37.14540	 31.34806	 -1.82827	 26.28796	  1.35179	 -1.80511	 42.48313	712.17999	 27.20	
 15.997	 50.364	 37.09056	 27.26868	  0.89207	 30.58579	 -1.86686	 -2.04863	 42.48298	712.17999	 27.20	
 16.009	 64.774	 37.06699	 22.29982	  4.65961	 33.87364	 -4.14383	 -2.15807	 42.48198	712.20001	 27.20	
 15.992	 79.234	 37.01961	 16.92702	  9.11219	 35.78602	 -5.25466	 -2.22060	 42.48684	712.22998	 27.20	
 16.005	 93.629	 36.92271	 11.57734	 14.23173	 36.24345	 -5.65426	 -2.18700	 42.47058	712.14001	 27.20	
 15.993	107.966	 36.84974	  6.57934	 19.62609	 35.13577	 -5.00425	 -2.28336	 42.47385	712.32001	 27.20	
 15.995	122.439	 36.77988	  2.17588	 24.85756	 32.62232	 -3.42306	 -2.20150	 42.47565	712.12000	 27.20	
 16.002	136.836	 36.72808	 -1.24511	 29.38905	 28.81191	 -0.86191	 -2.23107	 42.47594	712.23999	 27.20	
 16.002	151.165	 36.69273	 -3.77503	 33.03519	 24.18701	  2.64194	 -2.19732	 42.48710	712.26001	 27.20	
 15.990	165.604	 36.71376	 -5.20283	 35.41103	 18.81195	  7.01440	 -1.99564	 42.47457	712.03998	 27.20	
 20.003	168.362	 33.20440	-11.10446	 38.36059	 16.09705	  4.53463	 -2.21826	 42.47383	712.21002	 27.20	
 20.008	156.764	 33.17275	 -9.84895	 36.36578	 21.46024	  0.10578	 -2.43022	 42.46673	712.27002	 27.20	
 20.000	145.147	 33.25741	 -7.83406	 33.31701	 26.57687	 -3.43523	 -2.61417	 42.47520	712.19000	 27.20	
 19.995	133.545	 33.33669	 -5.21049	 29.31223	 31.05558	 -6.20204	 -2.80711	 42.47136	712.25000	 27.20	
 20.009	121.926	 33.35529	 -2.02122	 24.54225	 34.77164	 -8.75196	 -2.89977	 42.47260	712.15002	 27.20	
 20.005	110.327	 33.41299	  1.95318	 19.22317	 37.39075	-10.46938	 -3.00706	 42.48652	712.16998	 27.20	
 19.989	 98.733	 33.52222	  6.67402	 13.99373	 38.80732	-11.18327	 -3.09499	 42.48546	712.25000	 27.20	
 19.999	 87.075	 33.60047	 11.62960	  9.09689	 39.01534	-11.10148	 -3.16010	 42.46494	712.20001	 27.20	
 19.992	 75.457	 33.68552	 16.98641	  4.27950	 38.10028	-10.52131	 -3.14068	 42.49196	712.26001	 27.20	
 20.009	 63.844	 33.68979	 22.32266	 -0.05105	 35.92308	 -9.13904	 -3.09041	 42.46170	712.33002	 27.20	
 19.989	 52.269	 33.80445	 27.36265	 -3.21940	 32.69633	 -6.77864	 -2.99837	 42.46132	712.26001	 27.20	
 19.999	 40.602	 33.80316	 31.62085	 -5.96945	 28.61916	 -4.53655	 -2.78461	 42.48192	712.29999	 27.20	
 20.004	 29.051	 33.75999	 35.17397	 -8.28252	 23.75318	 -1.08184	 -2.59205	 42.46026	712.29999	 27.20	
 20.005	 17.433	 33.80380	 37.61813	 -9.73295	 18.39157	  3.26811	 -2.48412	 42.49580	712.22998	 27.20	
 20.006	  5.780	 33.86023	 38.72134	-10.02487	 13.12471	  8.18234	 -2.31934	 42.47927	712.15002	 27.20	
 20.006	 -5.780	 33.90268	 38.60269	 -9.75370	  8.12304	 13.37197	 -2.05687	 42.49085	712.21997	 27.20	
 20.005	-17.433	 33.89565	 37.27790	 -8.80466	  3.35308	 18.80449	 -1.88919	 42.47831	712.27002	 27.30	
 20.004	-29.051	 33.87008	 34.71985	 -7.27977	 -0.87133	 24.12898	 -1.70700	 42.46943	712.17999	 27.20	
 19.999	-40.602	 33.85104	 31.16962	 -5.18294	 -4.12006	 28.89111	 -1.57363	 42.45360	712.14001	 27.30	
 19.989	-52.269	 33.82270	 26.70462	 -2.20320	 -6.62693	 32.97094	 -1.44825	 42.44986	712.34998	 27.30	
 20.009	-63.844	 33.73022	 21.56562	  1.36795	 -8.77712	 36.03389	 -1.31809	 42.45686	712.22998	 27.30	
 19.992	-75.457	 33.71766	 16.14192	  5.69272	 -9.99150	 38.05543	 -1.26701	 42.47225	712.26001	 27.30	
 19.999	-87.075	 33.68156	 10.86788	 10.45767	-10.27617	 38.77320	 -1.16448	 42.46616	712.19000	 27.30	
 19.989	-98.733	 33.61712	  5.88286	 15.50807	-10.33407	 38.31220	 -1.12077	 42.47567	712.25000	 27.30	
 20.005	-110.327	 33.59705	  1.27261	 20.70835	 -9.38967	 36.64291	 -1.11057	 42.47462	712.21002	 27.30	
 20.009	-121.926	 33.59321	 -2.73082	 25.90232	 -7.63252	 33.73498	 -1.12366	 42.47781	712.15997	 27.30	
 19.995	-133.545	 33.58593	 -5.69951	 30.47659	 -5.26836	 29.83586	 -1.19461	 42.44528	712.23999	 27.30	
 20.000	-145.147	 33.59475	 -8.05837	 34.30404	 -2.38297	 25.21019	 -1.33473	 42.49149	712.13000	 27.30	
 20.008	-156.764	 33.50560	 -9.98872	 37.17165	  1.42631	 19.94497	 -1.46844	 42.47975	712.14001	 27.30	
 20.003	-168.362	 33.41932	-11.01594	 38.76945	  6.05611	 14.55504	 -1.59099	 42.48434	712.13000	 27.30	
 20.000	180.000	 33.32099	-11.36345	 39.15275	 10.90001	  9.46273	 -1.89829	 42.47862	712.13000	 27.30	
