FileType=PCF
NHL=14
Date=03/20/19	11:26:17
Facility=APL
Serial=16071-7
Customer=NASA
NP=6
Mach=0.450000
Calibration=1:1
CalPts=490
TstPts=95
PortNumbering=AP Standard
Units=Torr C m/s kg/m^3 deg mm 
Theta[deg]	Phi[deg]	P1[Torr]	P2[Torr]	P3[Torr]	P4[Torr]	P5[Torr]	P6[Torr]	Pt[Torr]	Ps[Abs,Torr]	Ts[C]	
  0.000	  0.000	 91.66306	 38.46135	 41.63067	 40.22065	 39.02687	  1.52813	 91.57327	711.85999	 35.30	
  1.691	128.401	 91.67411	 35.46778	 44.23286	 44.04298	 34.91512	  1.42601	 91.62136	711.89001	 35.40	
  1.692	 77.194	 91.70996	 39.61659	 40.19331	 44.95762	 34.09454	  1.55472	 91.64095	712.08002	 35.40	
  1.699	 26.182	 91.75088	 42.95093	 37.13835	 42.31219	 36.84074	  1.62383	 91.64906	711.91998	 35.50	
  1.699	-26.182	 91.73297	 42.78644	 37.45433	 38.02552	 41.11428	  1.54304	 91.62771	712.03003	 35.60	
  1.692	-77.194	 91.76690	 39.34724	 40.85926	 35.60001	 43.68126	  1.42293	 91.69147	712.00000	 35.60	
  1.691	-128.401	 91.74026	 35.29266	 44.82322	 36.52876	 42.64550	  1.35267	 91.69794	712.01001	 35.70	
  1.700	180.000	 91.74218	 33.64853	 46.37021	 40.20417	 38.83995	  1.34123	 91.69995	712.03998	 35.70	
  3.400	180.000	 91.57478	 28.51968	 51.07254	 39.98534	 38.30470	  0.99342	 91.75370	712.06000	 35.80	
  3.388	-152.325	 91.57741	 29.55676	 50.24794	 35.57183	 42.86987	  0.99324	 91.72459	712.03998	 35.80	
  3.397	-124.529	 91.59834	 32.57946	 47.12036	 32.21180	 46.51945	  0.99903	 91.71725	712.07001	 35.80	
  3.399	-96.763	 91.67973	 36.71783	 42.77644	 30.53421	 48.29692	  1.07067	 91.73755	712.06000	 35.90	
  3.394	-69.283	 91.69599	 41.37719	 38.29783	 31.07563	 47.86258	  1.21410	 91.71621	712.01001	 35.90	
  3.400	-41.398	 91.75348	 45.52581	 34.44863	 33.57084	 45.21771	  1.35485	 91.75816	712.03003	 35.90	
  3.401	-14.021	 91.75665	 47.92093	 32.14177	 37.50351	 41.07158	  1.48656	 91.75126	712.03998	 36.00	
  3.401	 14.021	 91.77187	 48.09344	 31.75090	 42.12714	 36.44693	  1.57672	 91.76531	712.06000	 36.00	
  3.400	 41.398	 91.73524	 45.87753	 33.70901	 46.44104	 32.17739	  1.57668	 91.76643	712.08002	 36.10	
  3.394	 69.283	 91.71864	 41.88261	 37.41687	 49.21130	 29.54187	  1.45226	 91.79626	712.03998	 36.10	
  3.399	 96.763	 91.66251	 37.20825	 41.88972	 49.87495	 28.92757	  1.33622	 91.79407	712.08002	 36.20	
  3.397	124.529	 91.61736	 32.91842	 46.32740	 48.16137	 30.37415	  1.19467	 91.77364	711.98999	 36.20	
  3.388	152.325	 91.63382	 29.74589	 49.65856	 44.57832	 33.76048	  1.09309	 91.81938	711.92999	 36.30	
  5.099	161.165	 91.07961	 24.05382	 54.45800	 44.27950	 32.80515	  0.57630	 91.79019	711.96997	 36.30	
  5.109	142.013	 91.11273	 26.38395	 51.89329	 48.72256	 28.73452	  0.68277	 91.81974	712.03998	 36.40	
  5.095	123.033	 91.12096	 29.97783	 48.05447	 52.11096	 25.58784	  0.80962	 91.79215	711.96997	 36.40	
  5.105	104.191	 91.21291	 34.45238	 43.56636	 54.18977	 23.75571	  0.94229	 91.83854	712.04999	 36.40	
  5.093	 85.207	 91.26714	 39.20124	 38.79247	 54.62656	 23.54908	  1.07129	 91.83835	711.89001	 36.50	
  5.104	 66.290	 91.28860	 43.95987	 34.24061	 53.35609	 24.69336	  1.17409	 91.82679	711.91998	 36.50	
  5.094	 47.331	 91.34827	 48.17767	 30.11072	 50.34240	 27.41219	  1.27213	 91.83977	711.90997	 36.60	
  5.089	 28.397	 91.37642	 51.21694	 27.38130	 46.37159	 31.14401	  1.35149	 91.82748	711.91998	 36.60	
  5.096	  9.576	 91.42872	 52.89188	 26.01125	 41.74372	 35.80848	  1.44535	 91.84313	711.96997	 36.70	
  5.096	 -9.576	 91.43698	 52.75542	 26.16961	 36.92924	 40.66756	  1.35710	 91.82744	711.91998	 36.70	
  5.089	-28.397	 91.45175	 50.96207	 28.41842	 32.66915	 45.27603	  1.24792	 91.83085	711.96997	 36.70	
  5.094	-47.331	 91.40493	 47.68271	 31.39984	 28.77647	 49.23155	  1.05870	 91.81944	711.96002	 36.80	
  5.104	-66.290	 91.37412	 43.30858	 35.40672	 26.18997	 51.98430	  0.86012	 91.81001	711.96997	 36.80	
  5.093	-85.207	 91.38809	 38.51065	 40.01007	 25.09652	 53.10763	  0.76893	 91.86541	711.98999	 36.90	
  5.105	-104.191	 91.31110	 33.84409	 44.73603	 25.46813	 52.54240	  0.66866	 91.86001	711.78003	 36.90	
  5.095	-123.033	 91.27689	 29.54959	 49.18249	 27.42780	 50.32188	  0.60230	 91.86723	711.82001	 36.90	
  5.109	-142.013	 91.20965	 26.07310	 52.89300	 30.56494	 46.88461	  0.59548	 91.87466	711.90997	 36.90	
  5.099	-161.165	 91.22134	 23.78497	 55.13560	 34.94520	 42.37778	  0.61013	 91.88680	711.90997	 37.00	
  5.100	180.000	 91.18407	 23.15981	 55.59048	 39.55120	 37.61546	  0.66745	 91.88953	711.88000	 37.00	
  6.800	180.000	 90.30334	 17.90946	 59.83047	 38.80809	 36.62469	  0.07916	 91.85589	711.88000	 37.00	
  6.796	-166.229	 90.35306	 18.31346	 59.56364	 34.33195	 41.23356	  0.02408	 91.87618	711.91998	 37.10	
  6.808	-152.311	 90.39016	 19.76802	 57.95860	 29.78595	 45.91615	 -0.02741	 91.86994	711.85999	 37.10	
  6.795	-138.383	 90.45827	 22.22958	 55.24141	 26.07288	 49.99978	 -0.07807	 91.90522	711.90997	 37.10	
  6.792	-124.591	 90.47741	 25.71274	 51.66796	 23.20460	 53.36752	 -0.06261	 91.86914	711.91998	 37.20	
  6.787	-110.754	 90.60408	 29.76493	 47.44281	 21.23857	 55.88563	 -0.02081	 91.93426	711.94000	 37.20	
  6.800	-96.985	 90.61825	 34.26916	 42.86488	 20.04368	 57.28243	  0.05789	 91.88519	711.94000	 37.20	
  6.800	-83.015	 90.68304	 38.80996	 38.16745	 20.03939	 57.42381	  0.10933	 91.88497	711.92999	 37.20	
  6.787	-69.246	 90.75139	 43.54206	 33.70135	 21.00606	 56.35966	  0.22351	 91.90466	712.02002	 37.30	
  6.792	-55.409	 90.77119	 48.03307	 29.52839	 22.85916	 54.18046	  0.36640	 91.91098	711.97998	 37.30	
  6.795	-41.617	 90.81989	 51.87974	 26.23280	 25.75746	 50.92308	  0.48909	 91.91971	712.01001	 37.30	
  6.808	-27.689	 90.81699	 54.91890	 23.69296	 29.66128	 46.81656	  0.65870	 91.92579	711.88000	 37.40	
  6.796	-13.771	 90.75887	 56.78217	 21.89536	 34.14479	 42.13306	  0.83184	 91.86013	711.96002	 37.40	
  6.800	  0.000	 90.78109	 57.54071	 21.22034	 38.63583	 37.48970	  0.93326	 91.90678	712.04999	 37.40	
  6.796	 13.771	 90.74838	 57.08808	 21.40616	 43.27762	 32.71947	  0.99093	 91.91825	711.94000	 37.40	
  6.808	 27.689	 90.72545	 55.38830	 22.72676	 47.85810	 28.44548	  1.02015	 91.97617	712.01001	 37.40	
  6.795	 41.617	 90.69274	 52.50193	 25.12188	 51.90054	 24.48519	  0.95754	 91.96081	711.95001	 37.50	
  6.792	 55.409	 90.65010	 48.80364	 28.29179	 55.24318	 21.50049	  0.87652	 91.97141	711.96002	 37.50	
  6.787	 69.246	 90.56484	 44.35934	 31.86785	 57.63482	 19.39556	  0.79686	 91.90805	711.96002	 37.50	
  6.800	 83.015	 90.52219	 39.76215	 36.20042	 58.96817	 18.18152	  0.71025	 91.93145	712.10999	 37.50	
  6.800	 96.985	 90.48933	 35.09598	 41.03388	 58.97274	 18.01815	  0.62641	 91.95402	711.96997	 37.60	
  6.787	110.754	 90.43681	 30.46805	 45.91705	 57.74658	 19.07381	  0.55406	 91.94352	711.96002	 37.60	
  6.792	124.591	 90.41137	 26.31495	 50.23749	 55.50387	 21.03355	  0.48113	 91.93318	712.06000	 37.60	
  6.795	138.383	 90.41824	 22.90982	 54.02853	 52.20083	 23.86393	  0.33854	 91.97013	712.06000	 37.70	
  6.808	152.311	 90.33891	 20.25597	 57.01073	 48.26522	 27.64102	  0.23541	 91.92287	712.17999	 37.70	
  6.796	166.229	 90.43644	 18.66152	 59.02794	 43.70730	 31.95355	  0.16026	 92.01428	712.00000	 37.70	
  8.491	168.704	 89.20779	 13.27777	 63.11422	 42.85182	 30.75486	 -0.51202	 91.94878	712.04999	 37.70	
  8.502	157.493	 89.18244	 14.66705	 61.47857	 47.60613	 26.09191	 -0.52370	 91.97778	711.98999	 37.80	
  8.494	146.194	 89.25178	 16.91489	 58.88761	 51.81255	 22.28220	 -0.75086	 91.99274	712.03998	 37.80	
  8.495	135.039	 89.22800	 19.63611	 55.51806	 55.83238	 18.95458	 -0.34307	 91.94650	712.07001	 37.80	
  8.487	123.723	 89.29072	 23.12671	 51.45683	 59.01604	 16.20262	 -0.24190	 91.99002	712.15002	 37.80	
  8.492	112.575	 89.21971	 27.22070	 47.04026	 61.32911	 13.84577	 -0.19005	 91.92038	712.03003	 37.80	
  8.510	101.220	 89.32355	 31.71288	 42.33540	 62.93819	 12.53503	 -0.10080	 91.98978	712.06000	 37.90	
  8.500	 90.000	 89.33700	 36.55975	 37.57334	 63.43609	 12.15153	 -0.00966	 91.95315	712.19000	 37.90	
  8.510	 78.780	 89.37871	 41.28610	 32.57273	 62.90396	 12.60673	  0.06751	 91.94724	712.08002	 37.90	
  8.492	 67.425	 89.44524	 46.10626	 28.62964	 61.17003	 14.04719	  0.16273	 91.95777	712.10999	 37.90	
  8.487	 56.277	 89.52668	 50.42844	 24.86256	 58.80600	 16.51285	  0.24823	 91.99102	712.03003	 38.00	
  8.495	 44.961	 89.56116	 54.43483	 21.60418	 55.64605	 19.49140	  0.05858	 91.97753	712.02002	 38.00	
  8.494	 33.806	 89.62984	 57.67521	 19.01383	 51.61331	 22.93077	  0.47949	 91.98679	712.13000	 38.00	
  8.502	 22.507	 89.64122	 60.12680	 17.00911	 47.32597	 26.99865	  0.48578	 92.00249	712.19000	 38.10	
  8.491	 11.296	 89.69302	 61.55592	 15.93345	 42.48162	 31.63896	  0.44354	 91.96124	712.07001	 38.10	
  8.500	  0.000	 89.73209	 61.96064	 15.80779	 37.51688	 36.64702	  0.35233	 91.98663	712.16998	 38.10	
  8.491	-11.296	 89.77445	 61.31527	 16.38511	 32.85506	 41.52955	  0.24591	 92.00343	712.15002	 38.10	
  8.502	-22.507	 89.74968	 59.67667	 17.90398	 28.27004	 46.31488	  0.03066	 91.97105	712.17999	 38.20	
  8.494	-33.806	 89.80909	 57.09184	 20.12650	 24.14326	 50.74420	 -0.17769	 92.00798	712.15997	 38.20	
  8.495	-44.961	 89.79592	 53.74799	 22.83536	 20.81798	 54.60831	 -0.32063	 92.03094	712.16998	 38.20	
  8.487	-56.277	 89.74093	 49.62101	 26.22141	 18.09732	 57.75835	 -0.41300	 91.97362	712.15997	 38.20	
  8.492	-67.425	 89.72935	 45.16875	 30.14259	 16.09286	 60.12078	 -0.56931	 91.99486	712.19000	 38.20	
  8.510	-78.780	 89.66119	 40.31777	 34.66862	 14.90616	 61.53653	 -0.66814	 91.98080	712.19000	 38.20	
  8.500	-90.000	 89.64720	 35.56817	 39.44201	 14.60164	 61.89009	 -0.70059	 92.00807	712.12000	 38.20	
  8.510	-101.220	 89.56780	 30.92519	 44.23518	 15.01318	 61.24939	 -0.73591	 91.97824	712.06000	 38.30	
  8.492	-112.575	 89.53990	 26.50343	 48.91677	 16.47876	 59.50729	 -0.78579	 92.00243	712.22998	 38.30	
  8.487	-123.723	 89.48216	 22.31330	 53.18472	 18.64969	 56.73023	 -0.82612	 91.97657	712.21002	 38.30	
  8.495	-135.039	 89.46803	 19.04994	 57.04589	 21.37784	 53.35408	 -0.78486	 92.00188	712.16998	 38.30	
  8.494	-146.194	 89.43185	 16.33095	 60.12680	 24.60361	 49.48306	 -0.78015	 92.03581	712.15997	 38.30	
  8.502	-157.493	 89.31259	 14.17735	 62.44163	 28.80806	 44.91835	 -0.74693	 91.98169	712.14001	 38.30	
  8.491	-168.704	 89.26745	 13.09786	 63.71034	 33.28584	 40.09937	 -0.73197	 91.94829	712.17999	 38.30	
  8.500	180.000	 89.26567	 12.80507	 63.92524	 37.91704	 35.20389	 -0.67429	 91.98836	712.13000	 38.30	
 10.200	180.000	 87.82104	  7.59804	 67.79559	 36.71547	 33.88997	 -1.46544	 92.04780	712.20001	 38.40	
 10.191	-170.497	 87.83055	  7.87639	 67.58864	 31.95069	 38.81634	 -1.48683	 91.99127	712.16998	 38.40	
 10.210	-161.034	 87.89939	  8.74832	 66.55262	 27.43854	 43.77101	 -1.59367	 92.04344	712.21002	 38.40	
 10.194	-151.526	 87.93874	 10.46009	 64.49220	 23.12069	 48.46843	 -1.64273	 92.01156	712.21002	 38.40	
 10.190	-142.105	 87.97144	 12.73299	 61.87326	 19.58615	 52.65102	 -1.58635	 91.98877	712.14001	 38.40	
 10.215	-132.646	 88.03212	 15.56534	 58.63789	 16.44466	 56.69067	 -1.63895	 92.01908	712.09998	 38.40	
 10.203	-123.092	 88.05547	 18.93844	 54.60386	 13.80893	 60.12089	 -1.69712	 92.00750	712.06000	 38.40	
 10.192	-113.678	 88.14324	 22.72507	 50.29980	 11.45509	 62.69030	 -1.67613	 92.04087	712.09998	 38.40	
 10.208	-104.249	 88.17061	 27.33387	 45.65080	 10.01219	 64.54548	 -1.67915	 92.01801	712.12000	 38.40	
 10.210	-94.801	 88.25373	 31.95160	 40.83381	  9.42365	 65.64620	 -1.59166	 92.03623	712.14001	 38.50	
 10.210	-85.199	 88.28201	 36.78018	 35.87999	  9.30378	 65.92522	 -1.54601	 92.03491	712.15002	 38.50	
 10.208	-75.751	 88.34492	 41.58037	 31.13841	  9.85229	 65.21698	 -1.58065	 92.06468	712.25000	 38.50	
 10.192	-66.322	 88.33565	 46.40630	 26.71535	 11.15589	 63.47239	 -1.50996	 92.02035	712.13000	 38.50	
 10.203	-56.908	 88.32684	 50.88066	 22.80089	 13.36768	 61.07371	 -1.29285	 91.99078	712.08002	 38.50	
 10.215	-47.354	 88.42152	 55.19585	 19.48545	 16.01093	 57.93915	 -1.24319	 92.05482	712.15002	 38.50	
 10.190	-37.895	 88.45716	 58.80045	 16.64858	 19.14215	 54.08880	 -1.35530	 92.04230	712.09003	 38.50	
 10.194	-28.474	 88.46412	 61.73714	 14.39281	 22.75193	 49.86792	 -0.93592	 92.02956	712.25000	 38.50	
 10.210	-18.966	 88.44134	 64.18571	 12.45766	 26.93448	 45.21130	 -0.76729	 92.03835	712.20001	 38.50	
 10.191	 -9.503	 88.40652	 65.58548	 11.13701	 31.61391	 40.26349	 -0.59844	 91.98811	712.17999	 38.60	
 10.200	  0.000	 88.38196	 66.12503	 10.68063	 36.46022	 35.37405	 -0.47119	 92.00098	712.23999	 38.60	
 10.191	  9.503	 88.33939	 65.74984	 10.83166	 41.37742	 30.53483	 -0.38239	 92.00921	712.21997	 38.60	
 10.210	 18.966	 88.25955	 64.56106	 11.57858	 46.16833	 25.60612	 -0.37986	 92.02150	712.13000	 38.60	
 10.194	 28.474	 88.18687	 62.31030	 13.17294	 50.55542	 21.49311	 -0.39299	 91.94568	712.15002	 38.60	
 10.190	 37.895	 88.24514	 59.54623	 15.37468	 55.04598	 17.73770	 -0.45921	 92.03668	712.03998	 38.60	
 10.215	 47.354	 88.13760	 56.01651	 17.95191	 58.87395	 13.98307	 -1.19973	 92.01665	712.03998	 38.60	
 10.203	 56.908	 88.11070	 51.85435	 21.26054	 62.08074	 11.22777	 -0.70516	 92.02591	712.16998	 38.60	
 10.192	 66.322	 88.07517	 47.47197	 25.04409	 64.56509	  9.23173	 -1.43036	 92.00294	712.14001	 38.60	
 10.208	 75.751	 88.07109	 42.76040	 29.21570	 66.36728	  8.02071	 -0.84485	 92.06678	712.21997	 38.60	
 10.210	 85.199	 87.97932	 37.93910	 33.52344	 67.16203	  7.39663	 -1.00555	 91.99821	712.20001	 38.60	
 10.210	 94.801	 87.98943	 32.95192	 38.65348	 67.26521	  7.27603	 -0.93100	 92.05096	712.10999	 38.70	
 10.208	104.249	 87.82048	 28.37449	 43.39069	 66.38191	  7.66911	 -1.34677	 91.95808	712.09998	 38.70	
 10.192	113.678	 87.81490	 23.70895	 48.09447	 64.77278	  8.94211	 -1.64947	 91.99368	712.20001	 38.70	
 10.203	123.092	 87.76550	 19.75891	 52.54710	 62.41372	 10.73898	 -1.19534	 92.01195	712.15002	 38.70	
 10.215	132.646	 87.73751	 16.18094	 56.71685	 59.25185	 13.14430	 -1.26918	 92.01323	712.20001	 38.70	
 10.190	142.105	 87.74741	 13.37084	 60.36512	 55.34520	 16.36680	 -1.85185	 92.00488	712.23999	 38.70	
 10.194	151.526	 87.70963	 11.11000	 63.30233	 50.88717	 20.05238	 -1.38201	 91.99719	712.08002	 38.70	
 10.210	161.034	 87.69184	  9.20563	 65.59005	 46.56472	 24.50433	 -1.52427	 92.01485	712.14001	 38.70	
 10.191	170.497	 87.69534	  8.02418	 67.03827	 41.63430	 29.11816	 -1.59106	 91.94924	712.12000	 38.80	
 11.899	171.783	 85.92664	  2.23449	 70.69449	 40.17199	 27.58375	 -2.77411	 92.00333	712.09003	 38.80	
 11.890	163.610	 85.91168	  3.07534	 69.36642	 45.09511	 22.91857	 -2.74161	 92.02703	712.10999	 38.80	
 11.889	155.445	 85.86555	  4.49285	 67.32221	 49.69254	 18.38473	 -2.77964	 91.96864	712.17999	 38.80	
 11.909	147.299	 85.87753	  6.45887	 64.74116	 54.21289	 14.48149	 -2.89169	 92.00693	712.14001	 38.80	
 11.902	139.148	 85.85149	  9.16434	 61.46939	 58.46875	 10.99405	 -2.54223	 91.97324	712.15002	 38.80	
 11.894	130.867	 85.89581	 12.61319	 57.63498	 62.11325	  8.07967	 -2.69973	 91.96388	712.15002	 38.80	
 11.897	122.732	 85.98059	 16.11491	 53.39234	 65.26484	  5.73576	 -2.64647	 91.99691	712.09998	 38.80	
 11.903	114.597	 86.02477	 19.97948	 48.89717	 67.70358	  3.88274	 -2.40726	 92.00945	712.25000	 38.80	
 11.893	106.346	 86.05009	 24.29451	 44.10999	 69.55553	  2.66915	 -2.67420	 91.99163	712.15997	 38.80	
 11.892	 98.155	 86.13411	 29.36917	 39.20098	 70.69894	  2.02654	 -2.03745	 92.00579	712.19000	 38.80	
 11.900	 90.000	 86.18056	 33.92683	 34.42474	 71.05740	  1.92395	 -1.82364	 92.00040	712.21997	 38.80	
 11.892	 81.845	 86.25494	 38.88441	 29.82327	 70.56196	  2.30070	 -2.47166	 91.99894	712.22998	 38.80	
 11.893	 73.654	 86.30470	 43.73372	 25.39059	 69.34153	  3.04447	 -1.87157	 91.98729	712.14001	 38.90	
 11.903	 65.403	 86.37315	 48.52810	 21.27601	 67.49980	  4.31417	 -2.45596	 92.00832	712.26001	 38.90	
 11.897	 57.268	 86.42245	 52.93588	 17.51036	 64.99680	  6.18418	 -1.52602	 92.01774	712.13000	 38.90	
 11.894	 49.133	 86.42706	 57.13749	 13.95126	 61.84967	  8.64156	 -2.24147	 92.01001	712.22998	 38.90	
 11.902	 40.852	 86.45327	 60.89637	 11.16734	 58.14592	 11.81769	 -1.47753	 91.99249	712.21997	 38.90	
 11.909	 32.701	 86.50192	 64.03642	  8.99359	 53.97216	 15.43232	 -1.36148	 91.98607	712.19000	 38.90	
 11.889	 24.555	 86.55953	 66.58451	  7.19850	 49.51523	 19.86746	 -1.58697	 92.00977	712.19000	 39.00	
 11.890	 16.390	 86.62398	 68.36704	  6.14649	 44.84517	 24.17278	 -1.18440	 91.98979	712.20001	 39.00	
 11.899	  8.217	 86.68489	 69.47585	  5.49096	 39.93487	 28.92515	 -1.35969	 91.99015	712.21002	 39.00	
 11.900	  0.000	 86.71114	 69.79710	  5.39976	 34.98266	 33.79078	 -1.34338	 92.00057	712.35999	 39.00	
 11.899	 -8.217	 86.70860	 69.35947	  5.73252	 30.20833	 38.83640	 -1.44817	 92.00261	712.25000	 39.00	
 11.890	-16.390	 86.81171	 68.13041	  6.72119	 25.44374	 43.85699	 -1.78518	 92.05391	712.25000	 39.00	
 11.889	-24.555	 86.69940	 66.12013	  8.69255	 21.17790	 48.59528	 -1.75784	 91.96748	712.20001	 39.00	
 11.909	-32.701	 86.70441	 63.41854	 10.58125	 17.48009	 53.00203	 -2.20056	 91.98172	712.19000	 39.00	
 11.902	-40.852	 86.69262	 60.09497	 12.97834	 14.05183	 57.22690	 -2.43399	 92.00680	712.13000	 39.10	
 11.894	-49.133	 86.65001	 56.19487	 15.95927	 10.62270	 60.94704	 -2.08046	 91.97646	712.16998	 39.10	
 11.897	-57.268	 86.68197	 51.84759	 19.40110	  8.14013	 64.12348	 -2.51771	 92.03412	712.16998	 39.10	
 11.903	-65.403	 86.61324	 47.33567	 23.17810	  6.31805	 66.55715	 -2.23715	 91.99780	712.22998	 39.10	
 11.893	-73.654	 86.60657	 42.52920	 27.53528	  5.03913	 68.33984	 -2.59900	 91.99987	712.28998	 39.10	
 11.892	-81.845	 86.59056	 37.63457	 32.21147	  4.21833	 69.41768	 -2.27259	 91.99912	712.19000	 39.10	
 11.900	-90.000	 86.49906	 32.84007	 36.97421	  3.91681	 69.63731	 -2.26265	 91.98466	712.20001	 39.10	
 11.892	-98.155	 86.49282	 28.22531	 41.85032	  4.22493	 69.06765	 -2.38137	 92.01639	712.28998	 39.10	
 11.893	-106.346	 86.45975	 23.34570	 46.70953	  5.17857	 67.76553	 -2.55108	 92.04678	712.21002	 39.10	
 11.903	-114.597	 86.42258	 19.09328	 51.30913	  6.53093	 65.73188	 -2.50418	 92.04247	712.17999	 39.10	
 11.897	-122.732	 86.36040	 15.30424	 55.66880	  8.42684	 63.06300	 -2.51798	 91.99819	712.29999	 39.10	
 11.894	-130.867	 86.37786	 11.89206	 59.82170	 11.03305	 59.73009	 -2.34771	 92.06567	712.21997	 39.20	
 11.902	-139.148	 86.30258	  8.59173	 63.36783	 14.44743	 55.80463	 -2.33063	 92.02254	712.16998	 39.20	
 11.909	-147.299	 86.23843	  6.24672	 66.21137	 17.96327	 51.50745	 -2.54491	 91.98506	712.17999	 39.20	
 11.889	-155.445	 86.22902	  4.49166	 68.51802	 21.59608	 47.07199	 -2.36355	 91.99461	712.21002	 39.20	
 11.890	-163.610	 86.18530	  3.16111	 70.30277	 25.89423	 42.23792	 -2.59513	 92.03384	712.28003	 39.20	
 11.899	-171.783	 85.85636	  2.27876	 71.04018	 30.63414	 37.23875	 -2.37151	 91.75737	712.34998	 39.20	
 11.900	180.000	 86.03111	  2.00775	 71.37882	 35.31704	 32.61580	 -2.34221	 92.02644	712.31000	 39.20	
 13.600	180.000	 83.83624	 -3.88535	 74.75612	 33.44437	 30.72888	 -3.47996	 92.01982	712.28998	 39.30	
 13.608	-172.853	 83.89506	 -3.58203	 74.65085	 28.79124	 35.51564	 -3.46142	 92.02316	712.22998	 39.30	
 13.611	-165.583	 83.95150	 -3.01007	 73.88223	 24.17490	 40.39040	 -3.36258	 92.01976	712.27002	 39.30	
 13.601	-158.353	 84.02818	 -1.77404	 72.27450	 20.01538	 45.32980	 -3.24150	 91.98005	712.29999	 39.30	
 13.609	-151.210	 84.11303	 -0.11665	 70.30752	 16.26154	 49.95519	 -3.10532	 92.01760	712.28003	 39.30	
 13.611	-143.999	 84.08891	  1.94981	 67.56485	 12.36666	 54.42437	 -3.01976	 91.97498	712.21002	 39.30	
 13.601	-136.825	 84.14826	  4.49343	 64.35751	  8.76810	 58.71016	 -3.02086	 91.99478	712.27002	 39.30	
 13.596	-129.640	 84.20191	  7.51034	 60.67926	  5.71569	 62.44996	 -2.97737	 92.02603	712.19000	 39.30	
 13.611	-122.431	 84.25610	 11.06197	 56.44876	  3.35928	 65.80366	 -3.00682	 92.01907	712.19000	 39.30	
 13.604	-115.211	 84.26083	 15.27991	 52.03138	  1.47889	 68.53925	 -2.95594	 91.98479	712.27002	 39.30	
 13.595	-108.042	 84.26398	 19.32878	 47.40625	 -0.08211	 70.64549	 -2.86677	 91.95798	712.21997	 39.30	
 13.607	-100.793	 84.28683	 23.71614	 42.55079	 -1.29852	 72.21751	 -2.83117	 91.98119	712.20001	 39.30	
 13.601	-93.617	 84.35184	 28.58433	 37.63023	 -1.78550	 73.06789	 -2.87146	 91.98416	712.17999	 39.40	
 13.601	-86.383	 84.41946	 33.36863	 32.89135	 -1.71110	 73.30083	 -2.76921	 92.01056	712.28003	 39.40	
 13.607	-79.207	 84.48412	 38.23188	 28.27595	 -1.33619	 72.74267	 -2.97942	 92.01876	712.28003	 39.40	
 13.595	-71.958	 84.51476	 43.18461	 23.79790	 -0.32485	 71.46570	 -3.02473	 92.01926	712.23999	 39.40	
 13.604	-64.789	 84.49494	 47.94683	 19.56543	  1.16303	 69.53607	 -3.00784	 91.95807	712.21002	 39.40	
 13.611	-57.569	 84.56438	 52.59456	 15.73451	  3.07688	 67.04098	 -2.96949	 92.00250	712.19000	 39.40	
 13.596	-50.360	 84.60830	 57.04533	 12.34865	  5.41670	 63.93644	 -2.98630	 91.99928	712.17999	 39.40	
 13.601	-43.175	 84.58455	 60.97443	  9.14307	  8.09393	 60.35186	 -3.05359	 91.98637	712.25000	 39.40	
 13.611	-36.001	 84.66393	 64.62184	  6.55135	 11.53601	 56.28333	 -3.03459	 92.02551	712.13000	 39.40	
 13.609	-28.790	 84.68856	 67.63255	  4.52735	 15.73657	 51.81087	 -3.02578	 92.03240	712.27002	 39.40	
 13.601	-21.647	 84.70018	 69.97934	  2.87820	 19.49055	 47.21312	 -2.88962	 92.01466	712.27002	 39.40	
 13.611	-14.417	 84.62598	 71.81645	  1.20502	 23.76808	 42.22419	 -2.87744	 91.95798	712.27002	 39.40	
 13.608	 -7.147	 84.65708	 72.95979	  0.44016	 28.38713	 37.28097	 -2.73567	 91.98442	712.21002	 39.40	
 13.600	  0.000	 84.62080	 73.37090	  0.03947	 33.16428	 32.45622	 -2.42605	 91.97957	712.27002	 39.40	
 13.608	  7.147	 84.57503	 73.13454	  0.04527	 38.07739	 27.50810	 -2.83045	 91.97248	712.21002	 39.40	
 13.611	 14.417	 84.52423	 72.16600	  0.50886	 43.08661	 22.62059	 -2.39478	 91.98716	712.23999	 39.40	
 13.601	 21.647	 84.47835	 70.45712	  1.49687	 47.84553	 17.94793	 -2.82933	 91.96494	712.26001	 39.40	
 13.609	 28.790	 84.42858	 68.21706	  2.98507	 52.34519	 13.77849	 -2.83406	 91.99080	712.27002	 39.50	
 13.611	 36.001	 84.39304	 65.35645	  4.87715	 56.88513	  9.89079	 -2.62444	 92.00260	712.21997	 39.50	
 13.601	 43.175	 84.33404	 61.63520	  7.13435	 60.81154	  6.46835	 -2.85772	 91.96113	712.34003	 39.50	
 13.596	 50.360	 84.29961	 57.77067	  9.97376	 64.41902	  3.56508	 -3.15912	 91.98251	712.21002	 39.50	
 13.611	 57.569	 84.27736	 53.37572	 13.41153	 67.63332	  1.18507	 -3.33126	 92.01454	712.15997	 39.50	
 13.604	 64.789	 84.25894	 49.00688	 17.15897	 70.27119	 -0.67851	 -3.35942	 92.02592	712.14001	 39.50	
 13.595	 71.958	 84.16948	 44.37740	 21.15264	 72.30266	 -2.34957	 -3.40496	 91.99834	712.21002	 39.50	
 13.607	 79.207	 84.11250	 39.49332	 25.43950	 73.64524	 -3.38459	 -3.42790	 92.01018	712.23999	 39.50	
 13.601	 86.383	 84.10203	 34.46490	 30.02836	 74.44312	 -3.81528	 -3.40597	 92.04513	712.14001	 39.50	
 13.601	 93.617	 83.95425	 29.70324	 34.84743	 74.45605	 -3.76992	 -3.37795	 91.95760	712.15002	 39.50	
 13.607	100.793	 83.90968	 24.76401	 39.62493	 73.86301	 -3.67807	 -3.54842	 92.00009	712.21002	 39.50	
 13.595	108.042	 83.88464	 20.16968	 44.56062	 72.53510	 -2.89587	 -3.61287	 91.98901	712.23999	 39.50	
 13.604	115.211	 83.84270	 15.74697	 49.30827	 70.51553	 -1.36073	 -3.59523	 91.96848	712.27002	 39.50	
 13.611	122.431	 83.80668	 11.61585	 53.96047	 67.90150	  0.60387	 -3.61848	 91.96771	712.09003	 39.50	
 13.596	129.640	 83.80523	  8.06561	 58.30814	 64.82153	  2.96087	 -3.70054	 91.98518	712.14001	 39.60	
 13.601	136.825	 83.79902	  4.96692	 62.26989	 61.24459	  5.69563	 -3.72416	 92.01974	712.17999	 39.60	
 13.611	143.999	 83.71566	  2.20791	 65.67726	 57.29311	  8.81788	 -3.77004	 92.01457	712.27002	 39.60	
 13.609	151.210	 83.69460	  0.02970	 68.67458	 52.70718	 12.64414	 -3.72083	 91.97339	712.20001	 39.60	
 13.601	158.353	 83.71572	 -1.66069	 71.13903	 48.11973	 16.85336	 -3.55531	 92.01413	712.21997	 39.60	
 13.611	165.583	 83.66428	 -3.05414	 72.96154	 43.35996	 21.10453	 -3.53476	 91.98313	712.23999	 39.60	
 13.608	172.853	 83.74088	 -3.90637	 74.11403	 38.37347	 25.73049	 -3.52887	 91.99809	712.22998	 39.60	
 15.298	173.587	 81.39719	 -9.49839	 77.24169	 36.29773	 23.90166	 -3.96977	 92.02695	712.21002	 39.60	
 15.291	167.167	 81.26790	 -8.72738	 76.16018	 41.28826	 19.38758	 -4.06424	 91.95903	712.26001	 39.60	
 15.307	160.676	 81.22509	 -7.50145	 74.54126	 46.13623	 14.88187	 -4.19006	 91.97279	712.16998	 39.60	
 15.300	154.261	 81.24240	 -5.95047	 72.31737	 50.94777	 10.76253	 -4.32058	 91.96783	712.21002	 39.60	
 15.288	147.854	 81.29446	 -3.99467	 69.56551	 55.51217	  7.00629	 -4.44723	 92.02000	712.16998	 39.60	
 15.293	141.428	 81.33410	 -1.52974	 66.30785	 59.85246	  3.60190	 -4.51103	 91.98638	712.16998	 39.60	
 15.299	134.985	 81.35274	  1.31387	 62.62648	 63.75200	  0.43376	 -4.53569	 91.95326	712.23999	 39.60	
 15.305	128.583	 81.40135	  4.41721	 58.59584	 67.32962	 -2.17251	 -4.51992	 91.98642	712.22998	 39.70	
 15.309	122.142	 81.43927	  7.83774	 54.22334	 70.41073	 -4.43093	 -4.48942	 92.00175	712.19000	 39.70	
 15.304	115.711	 81.46170	 11.70150	 49.52367	 73.02264	 -6.32601	 -4.46384	 91.94759	712.13000	 39.70	
 15.297	109.291	 81.52836	 16.06217	 44.76962	 75.02707	 -7.91958	 -4.49967	 91.97275	712.22998	 39.70	
 15.293	102.897	 81.56308	 20.80572	 39.94587	 76.44547	 -9.01228	 -4.46059	 91.95520	712.26001	 39.70	
 15.293	 96.458	 81.66508	 25.48112	 35.13825	 77.32140	 -9.18481	 -4.36446	 92.00869	712.29999	 39.70	
 15.300	 90.000	 81.66595	 30.28711	 30.27830	 77.56123	 -9.24937	 -4.32194	 91.96764	712.23999	 39.70	
 15.293	 83.542	 81.73586	 35.19028	 25.70078	 77.18243	 -9.07002	 -4.37251	 91.97157	712.34003	 39.70	
 15.293	 77.103	 81.80154	 40.11925	 21.22803	 76.29239	 -8.46343	 -4.40476	 91.99245	712.31000	 39.70	
 15.297	 70.709	 81.86352	 44.95108	 17.10307	 74.82909	 -7.34687	 -4.34806	 92.02090	712.32001	 39.70	
 15.304	 64.289	 81.88569	 49.64434	 13.11432	 72.68405	 -5.72162	 -4.27121	 91.97744	712.20001	 39.70	
 15.309	 57.858	 81.89937	 54.25133	  9.44852	 69.99755	 -3.89220	 -4.18160	 91.96820	712.32001	 39.70	
 15.305	 51.417	 81.96729	 58.67040	  6.05973	 66.92629	 -1.55897	 -4.04573	 92.00659	712.28998	 39.80	
 15.299	 45.015	 82.00885	 62.61586	  3.17974	 63.34112	  1.19307	 -3.88336	 91.97601	711.60999	 39.70	
 15.293	 38.572	 82.06654	 66.18902	  0.77200	 59.43164	  4.37465	 -3.70955	 91.97866	711.78003	 39.70	
 15.288	 32.146	 82.03490	 69.26318	 -1.45239	 55.14838	  7.85060	 -3.67500	 91.95962	711.89001	 39.70	
 15.300	 25.739	 82.09080	 71.90289	 -3.20226	 50.66755	 11.80871	 -3.63597	 91.97498	712.19000	 39.70	
 15.307	 19.324	 82.14529	 74.02765	 -4.42829	 45.89016	 16.09155	 -3.63756	 91.98390	711.59998	 39.70	
 15.291	 12.833	 82.22881	 75.52383	 -5.23146	 41.05359	 20.94137	 -3.67365	 92.00649	711.48999	 39.70	
 15.298	  6.413	 82.28017	 76.36925	 -5.53532	 36.04337	 25.65755	 -3.65018	 92.00076	712.15997	 39.70	
 15.300	  0.000	 82.28137	 76.60535	 -5.55887	 31.14976	 30.61842	 -3.52030	 91.98341	712.21002	 39.70	
 15.298	 -6.413	 82.29410	 76.19090	 -5.00412	 26.35670	 35.55640	 -3.49359	 91.94884	712.31000	 39.70	
 15.291	-12.833	 82.30452	 75.16106	 -4.21731	 21.81834	 40.49519	 -3.49220	 91.95238	711.63000	 39.70	
 15.307	-19.324	 82.23592	 73.57155	 -3.38134	 17.69100	 45.44499	 -3.46006	 91.95115	712.04999	 39.70	
 15.300	-25.739	 82.26138	 71.38343	 -2.02834	 13.28137	 50.12208	 -3.46644	 91.95769	712.39001	 39.70	
 15.288	-32.146	 82.23377	 68.61990	  0.14693	  8.92024	 54.63758	 -3.45480	 91.94542	711.58002	 39.70	
 15.293	-38.572	 82.21542	 65.38947	  2.36023	  5.34753	 59.07078	 -3.41002	 91.97481	711.52002	 39.70	
 15.299	-45.015	 82.18830	 61.68230	  5.15709	  2.60067	 62.98530	 -3.34463	 91.94921	711.59998	 39.70	
 15.305	-51.417	 82.14053	 57.58858	  8.29938	  0.07057	 66.58321	 -3.27509	 91.93993	712.07001	 39.70	
 15.309	-57.858	 82.06833	 53.10152	 11.68282	 -2.22205	 69.68040	 -3.18701	 91.92397	712.34998	 39.80	
 15.304	-64.289	 82.03515	 48.43866	 15.53388	 -4.02981	 72.22913	 -3.17071	 91.90760	712.33002	 39.80	
 15.297	-70.709	 82.06036	 43.62181	 19.68266	 -5.52930	 74.24107	 -3.13055	 91.95802	712.39001	 39.80	
 15.293	-77.103	 81.99590	 38.70529	 24.05231	 -6.66749	 75.61022	 -3.11368	 91.96661	712.32001	 39.80	
 15.293	-83.542	 82.02321	 33.75424	 28.61899	 -7.00481	 76.37411	 -3.03527	 91.97907	712.32001	 39.80	
 15.300	-90.000	 81.91086	 28.84913	 33.26466	 -7.36368	 76.61983	 -2.93419	 91.95904	711.84998	 39.80	
 15.293	-96.458	 81.86956	 24.09883	 37.92884	 -7.26032	 76.11031	 -2.85702	 91.92029	712.22998	 39.80	
 15.293	-102.897	 81.84467	 19.53401	 42.92241	 -6.57434	 75.04499	 -2.83498	 91.96310	712.25000	 39.80	
 15.297	-109.291	 81.86298	 15.28764	 47.79026	 -5.28151	 73.38996	 -2.91072	 91.96195	711.46997	 39.80	
 15.304	-115.711	 81.86678	 10.89228	 52.35217	 -3.56534	 71.12321	 -2.93856	 91.95581	711.56000	 39.80	
 15.309	-122.142	 81.82484	  7.10925	 56.84553	 -1.68818	 68.30758	 -2.99216	 91.91578	711.65997	 39.90	
 15.305	-128.583	 81.80110	  3.74762	 61.10262	  0.58050	 64.93347	 -3.09223	 91.89870	711.53003	 39.90	
 15.299	-134.985	 81.81484	  0.77724	 64.89476	  3.20569	 61.26314	 -3.12796	 91.93423	711.53998	 39.90	
 15.293	-141.428	 81.71661	 -2.03724	 68.31197	  6.29028	 57.12299	 -3.14728	 91.92580	711.51001	 39.90	
 15.288	-147.854	 81.63980	 -4.37534	 71.33916	 10.38336	 52.69388	 -3.26005	 91.89844	711.50000	 39.90	
 15.300	-154.261	 81.60814	 -6.26267	 73.83261	 14.25368	 48.05900	 -3.37051	 91.92912	711.51001	 39.90	
 15.307	-160.676	 81.48890	 -7.81386	 75.62479	 18.26664	 43.25306	 -3.50375	 91.87311	711.51001	 39.90	
 15.291	-167.167	 81.48453	 -8.75905	 76.88683	 22.47213	 38.31223	 -3.62241	 91.91411	711.97998	 39.90	
 15.298	-173.587	 81.42519	 -9.28263	 77.60859	 26.79955	 33.51432	 -3.76668	 91.93150	711.71997	 39.90	
 15.300	180.000	 81.36029	 -9.80068	 77.74418	 31.39106	 28.72717	 -3.89714	 91.95467	711.41998	 39.90	
 17.000	180.000	 78.55978	-15.35494	 80.50861	 29.00047	 26.59558	 -3.97138	 91.92393	711.52002	 39.90	
 16.990	-174.179	 78.67423	-14.97959	 80.43056	 24.57655	 31.27817	 -3.80951	 91.93743	711.47998	 39.90	
 17.009	-168.383	 78.75272	-14.54070	 79.79470	 20.69261	 36.01278	 -3.58748	 91.94565	711.98999	 40.00	
 17.000	-162.596	 78.78841	-13.67084	 78.73556	 16.33888	 40.90310	 -3.46172	 91.91126	711.53003	 40.00	
 16.990	-156.759	 78.90099	-12.22831	 77.02605	 12.17266	 45.75875	 -3.38888	 91.90025	712.31000	 39.90	
 16.995	-150.919	 78.91537	-10.45678	 74.80756	  7.51843	 50.51623	 -3.25303	 91.88860	711.52002	 39.90	
 16.988	-145.161	 78.99959	 -8.26695	 72.06482	  3.84487	 55.16020	 -3.12034	 91.92091	711.56000	 40.00	
 17.014	-139.343	 79.01942	 -5.84422	 68.87290	  0.71780	 59.45564	 -3.02737	 91.90841	711.51001	 40.00	
 17.007	-133.546	 79.06596	 -3.13748	 65.27946	 -2.09507	 63.50023	 -2.94847	 91.87720	712.22998	 40.00	
 17.001	-127.699	 79.10854	 -0.13399	 61.31731	 -4.51374	 67.21306	 -2.87535	 91.87079	711.89001	 40.00	
 17.006	-121.937	 79.10977	  3.05760	 57.06575	 -6.65567	 70.46436	 -2.81760	 91.88158	711.57001	 40.00	
 17.002	-116.134	 79.13579	  6.69650	 52.61419	 -8.58595	 73.32332	 -2.75124	 91.91719	711.56000	 40.00	
 17.001	-110.310	 79.09393	 10.61858	 47.82785	-10.24253	 75.63687	 -2.74181	 91.90148	711.47998	 40.00	
 16.988	-104.517	 79.15533	 14.89829	 42.97197	-11.55778	 77.36178	 -2.72227	 91.88734	711.47998	 40.00	
 17.008	-98.662	 79.10635	 19.68428	 37.96239	-12.75185	 78.65298	 -2.68853	 91.89085	711.34998	 40.00	
 16.996	-92.909	 79.14777	 24.21067	 33.20977	-13.06716	 79.31957	 -2.74733	 91.86846	711.50000	 40.00	
 16.996	-87.091	 79.26443	 28.94107	 28.83691	-12.68685	 79.47234	 -2.87795	 91.91653	711.48999	 40.00	
 17.012	-81.253	 79.24567	 33.77863	 24.18602	-12.38392	 79.04544	 -2.96856	 91.87506	711.50000	 40.00	
 16.988	-75.483	 79.34647	 38.74546	 19.64988	-11.75538	 78.12695	 -2.97038	 91.91694	711.52002	 40.00	
 17.001	-69.690	 79.38577	 43.62708	 15.46113	-10.53694	 76.68270	 -3.02251	 91.91408	711.47998	 40.00	
 17.002	-63.866	 79.36808	 48.49312	 11.27923	 -9.14930	 74.64429	 -3.14773	 91.90737	711.48999	 40.00	
 17.006	-58.063	 79.37974	 53.22779	  7.42118	 -7.37648	 72.08987	 -3.17815	 91.90099	711.65997	 40.00	
 17.001	-52.301	 79.47079	 57.70022	  4.10807	 -5.13421	 69.05012	 -3.30625	 91.92683	711.53003	 40.00	
 17.007	-46.454	 79.47701	 61.89203	  0.99042	 -2.59582	 65.50812	 -3.39768	 91.88089	711.42999	 40.00	
 17.014	-40.657	 79.51015	 65.76460	 -1.74302	  0.20838	 61.66441	 -3.48894	 91.91326	711.50000	 40.00	
 16.988	-34.839	 79.57011	 69.18958	 -4.00856	  3.41520	 57.41435	 -3.53970	 91.91856	711.48999	 40.00	
 16.995	-29.081	 79.57699	 72.21043	 -5.94069	  6.87229	 52.91323	 -3.57313	 91.92367	711.52002	 40.00	
 16.990	-23.241	 79.55915	 74.73960	 -7.69878	 11.13229	 48.13430	 -3.64212	 91.88148	711.53003	 40.10	
 17.000	-17.404	 79.53795	 76.71379	 -9.07725	 15.74383	 43.24651	 -3.71941	 91.86648	711.53998	 40.10	
 17.009	-11.617	 79.54041	 78.15117	 -9.91563	 20.05337	 38.32895	 -3.82255	 91.85606	711.45001	 40.10	
 16.990	 -5.821	 79.66727	 79.10375	-10.41438	 24.39364	 33.41859	 -3.94985	 91.92593	711.48999	 40.10	
 17.000	  0.000	 79.57943	 79.47628	-10.83198	 28.77007	 28.60382	 -4.10389	 91.90141	711.51001	 40.10	
 16.990	  5.821	 79.61495	 79.25230	-10.88413	 33.85105	 23.85222	 -4.25810	 91.90610	711.53998	 40.10	
 17.009	 11.617	 79.51812	 78.53154	-10.85895	 38.63453	 19.04881	 -4.37586	 91.91238	711.52002	 40.10	
 17.000	 17.404	 79.42065	 77.16945	-10.13537	 43.48158	 14.34777	 -4.39759	 91.85316	711.58002	 40.10	
 16.990	 23.241	 79.44061	 75.35193	 -9.05948	 48.44772	  9.99615	 -4.44981	 91.95553	711.58002	 40.10	
 16.995	 29.081	 79.31615	 72.91022	 -7.57132	 53.02942	  5.92583	 -4.52482	 91.89277	711.46002	 40.10	
 16.988	 34.839	 79.32632	 70.07831	 -5.87342	 57.36336	  2.39009	 -4.58121	 91.89234	711.51001	 40.10	
 17.014	 40.657	 79.27058	 66.78748	 -3.60350	 61.66341	 -0.98218	 -4.69324	 91.88898	711.57001	 40.10	
 17.007	 46.454	 79.24595	 63.05554	 -0.97454	 65.51887	 -3.98112	 -4.83605	 91.90252	711.53998	 40.10	
 17.001	 52.301	 79.19619	 58.96249	  1.96546	 68.97744	 -6.58348	 -4.95401	 91.90568	711.52002	 40.10	
 17.006	 58.063	 79.22422	 54.64968	  5.07569	 72.07188	 -8.70799	 -5.09007	 91.94564	711.54999	 40.10	
 17.002	 63.866	 79.15269	 50.02008	  8.63454	 74.69294	-10.51488	 -5.18182	 91.87247	711.53003	 40.10	
 17.001	 69.690	 79.14275	 45.25584	 12.45271	 76.90284	-12.05322	 -5.32850	 91.91191	711.56000	 40.10	
 16.988	 75.483	 79.07298	 40.32745	 16.54439	 78.55592	-13.43404	 -5.41061	 91.93417	711.47998	 40.10	
 17.012	 81.253	 78.91376	 35.45530	 20.99336	 79.68174	-14.55016	 -5.38355	 91.93232	711.56000	 40.20	
 16.996	 87.091	 78.90168	 30.45072	 25.56871	 80.23336	-14.83181	 -5.35197	 91.92725	711.62000	 40.20	
 16.996	 92.909	 78.79117	 25.88453	 29.90949	 80.25737	-14.88073	 -5.34384	 91.86404	711.65997	 40.20	
 17.008	 98.662	 78.69292	 21.36401	 34.64045	 79.82620	-14.85749	 -5.31718	 91.87640	711.59003	 40.20	
 16.988	104.517	 78.67070	 16.53118	 39.64679	 78.72968	-13.85343	 -5.33309	 91.85692	711.67999	 40.20	
 17.001	110.310	 78.68853	 12.02318	 44.57177	 77.25666	-12.65663	 -5.32155	 91.89989	711.65002	 40.20	
 17.002	116.134	 78.63931	  7.98208	 49.45158	 75.17266	-11.09377	 -5.27723	 91.88609	711.56000	 40.10	
 17.006	121.937	 78.60856	  4.26661	 54.10981	 72.54160	 -9.26760	 -5.27058	 91.88305	711.58002	 40.10	
 17.001	127.699	 78.54221	  0.83541	 58.48491	 69.50300	 -7.13744	 -5.27722	 91.88967	711.59998	 40.10	
 17.007	133.546	 78.46834	 -2.28924	 62.67025	 66.00754	 -4.62601	 -5.21368	 91.84464	711.59998	 40.10	
 17.014	139.343	 78.48463	 -5.11049	 66.51637	 62.15104	 -1.83491	 -5.17650	 91.85036	711.53998	 40.10	
 16.988	145.161	 78.48407	 -7.55977	 69.88955	 57.90327	  1.43881	 -5.06319	 91.82545	711.65997	 40.20	
 16.995	150.919	 78.51106	 -9.79884	 72.91062	 53.55242	  4.76174	 -4.90207	 91.90778	711.56000	 40.20	
 16.990	156.759	 78.57909	-11.56386	 75.44589	 48.83346	  8.63397	 -4.76416	 91.90391	711.60999	 40.20	
 17.000	162.596	 78.60693	-13.07219	 77.51464	 43.90110	 12.89474	 -4.60672	 91.91034	711.53003	 40.10	
 17.009	168.383	 78.53304	-14.15848	 78.95002	 38.99555	 17.11260	 -4.44615	 91.83781	711.53998	 40.10	
 16.990	174.179	 78.45623	-14.95942	 79.88946	 34.04446	 21.97009	 -4.17984	 91.84453	711.60999	 40.10	
 18.709	174.675	 75.50314	-19.55389	 82.49435	 31.43703	 19.47378	 -4.31233	 91.84271	711.65997	 40.10	
 18.703	169.441	 75.39708	-18.94715	 81.60757	 36.47000	 14.89870	 -4.48217	 91.81750	711.51001	 40.20	
 18.691	164.085	 75.43253	-17.91199	 80.20638	 41.44413	 10.66002	 -4.64640	 91.82627	711.60999	 40.20	
 18.706	158.818	 75.35719	-16.98311	 78.38038	 46.31913	  6.59610	 -4.80420	 91.82774	711.65002	 40.20	
 18.695	153.537	 75.34563	-15.57807	 75.97141	 51.15050	  2.83956	 -5.02130	 91.77705	711.60999	 40.20	
 18.704	148.255	 75.40373	-13.67311	 73.27703	 55.65662	 -0.59009	 -5.22189	 91.80749	711.65002	 40.20	
 18.698	142.952	 75.48197	-11.53563	 70.10596	 60.16443	 -3.85639	 -5.40086	 91.88063	711.65002	 40.20	
 18.699	137.625	 75.46011	 -9.06871	 66.49234	 64.25259	 -6.97946	 -5.54992	 91.83494	711.52002	 40.20	
 18.705	132.343	 75.55123	 -6.28030	 62.64677	 67.99570	 -9.73706	 -5.59592	 91.82005	711.50000	 40.20	
 18.713	127.067	 75.61481	 -3.17786	 58.42650	 71.38039	-12.06769	 -5.64923	 91.82957	711.66998	 40.20	
 18.700	121.794	 75.64484	  0.19779	 53.92627	 74.42625	-14.10078	 -5.79276	 91.81813	711.59998	 40.20	
 18.698	116.504	 75.69020	  3.68813	 49.23909	 77.06066	-15.76982	 -5.84114	 91.82590	711.72998	 40.20	
 18.707	111.165	 75.73103	  7.64789	 44.33413	 79.16618	-17.41570	 -5.86007	 91.81233	711.65002	 40.20	
 18.690	105.863	 75.78994	 11.84450	 39.40392	 80.79630	-18.40920	 -5.93047	 91.82965	711.70001	 40.20	
 18.696	100.583	 75.78321	 16.39317	 34.41366	 81.98328	-19.47985	 -6.01889	 91.82983	711.65002	 40.20	
 18.700	 95.309	 75.79656	 21.41931	 29.52344	 82.66620	-20.18522	 -6.12000	 91.79762	711.65997	 40.20	
 18.700	 90.000	 75.97926	 25.60965	 25.39052	 82.83073	-20.26959	 -6.12482	 91.79224	711.71997	 40.20	
 18.700	 84.691	 76.08415	 30.20175	 21.12848	 82.55601	-20.25264	 -6.09806	 91.82988	711.62000	 40.20	
 18.696	 79.417	 76.14279	 35.24653	 16.44992	 81.74749	-19.50362	 -6.15669	 91.80533	711.62000	 40.30	
 18.690	 74.137	 76.25587	 40.22098	 12.19653	 80.48520	-18.36987	 -6.07277	 91.83521	711.58002	 40.30	
 18.707	 68.835	 76.30335	 45.13502	  8.19849	 78.75046	-17.02518	 -5.97866	 91.80949	711.50000	 40.30	
 18.698	 63.496	 76.37099	 49.97049	  4.36415	 76.53223	-15.56538	 -5.86336	 91.81217	711.54999	 40.30	
 18.700	 58.206	 76.48067	 54.59734	  1.02893	 73.90617	-13.69175	 -5.75243	 91.84964	711.60999	 40.30	
 18.713	 52.933	 76.54755	 58.98283	 -2.04505	 70.81345	-11.57567	 -5.63901	 91.85644	711.65997	 40.30	
 18.705	 47.657	 76.56836	 63.16796	 -4.71416	 67.44031	 -9.04312	 -5.49948	 91.86623	711.64001	 40.30	
 18.699	 42.375	 76.50271	 66.92262	 -7.52359	 63.61398	 -6.33183	 -5.40349	 91.82738	711.53003	 40.30	
 18.698	 37.048	 76.43771	 70.36751	-10.16140	 59.38378	 -3.22269	 -5.28386	 91.78143	711.59003	 40.30	
 18.704	 31.745	 76.51852	 73.49839	-12.11905	 55.03423	  0.33348	 -5.16002	 91.84748	711.65002	 40.30	
 18.695	 26.463	 76.54508	 76.08329	-13.59816	 50.45563	  3.91237	 -5.06128	 91.81786	711.48999	 40.30	
 18.706	 21.182	 76.58323	 78.31778	-14.94952	 45.76038	  7.83018	 -4.89560	 91.83279	711.60999	 40.30	
 18.691	 15.915	 76.60538	 79.97604	-16.02275	 40.89909	 12.15425	 -4.78641	 91.80793	711.65002	 40.30	
 18.703	 10.559	 76.64352	 81.22936	-16.56775	 36.01148	 16.69799	 -4.77439	 91.81926	711.60999	 40.30	
 18.709	  5.325	 76.61639	 81.97486	-16.96484	 31.06561	 21.76347	 -4.62893	 91.83734	711.47998	 40.30	
 18.700	  0.000	 76.73329	 82.06982	-16.45887	 26.48465	 26.63483	 -4.47833	 91.79124	711.60999	 40.30	
 18.709	 -5.325	 76.83210	 81.77116	-15.74546	 22.39077	 31.26840	 -4.19756	 91.85280	711.59003	 40.30	
 18.703	-10.559	 76.83058	 80.90682	-15.29871	 18.03266	 36.09727	 -4.00521	 91.82460	711.48999	 40.30	
 18.691	-15.915	 76.85033	 79.56021	-14.60713	 13.53098	 41.00684	 -3.82830	 91.83294	711.65997	 40.30	
 18.706	-21.182	 76.86959	 77.79431	-13.27096	  8.81870	 45.84527	 -3.65372	 91.82974	711.77002	 40.30	
 18.695	-26.463	 76.91827	 75.50769	-11.74078	  4.88992	 50.72307	 -3.54259	 91.85125	711.73999	 40.30	
 18.704	-31.745	 76.80614	 72.74747	-10.14582	  1.13090	 55.32671	 -3.41083	 91.83152	711.60999	 40.40	
 18.698	-37.048	 76.80284	 69.58270	 -7.99999	 -2.03982	 59.67059	 -3.32286	 91.83208	711.63000	 40.40	
 18.699	-42.375	 76.77387	 65.99394	 -5.51970	 -4.89917	 63.82378	 -3.25142	 91.81225	711.71002	 40.40	
 18.705	-47.657	 76.64362	 62.05571	 -2.94213	 -7.69830	 67.56000	 -3.18243	 91.75964	711.65002	 40.40	
 18.713	-52.933	 76.57168	 57.78378	 -0.02936	-10.24375	 70.98780	 -3.00464	 91.75745	711.59998	 40.40	
 18.700	-58.206	 76.59797	 53.35251	  3.36942	-12.31796	 73.97237	 -2.93747	 91.80428	711.58002	 40.40	
 18.698	-63.496	 76.55727	 48.64679	  7.13410	-14.07608	 76.54683	 -2.94018	 91.77483	711.60999	 40.40	
 18.707	-68.835	 76.53428	 43.71351	 11.13651	-15.59460	 78.72047	 -2.82677	 91.82567	711.70001	 40.40	
 18.690	-74.137	 76.48682	 38.72468	 15.30823	-16.80780	 80.26729	 -2.73097	 91.82794	711.64001	 40.40	
 18.696	-79.417	 76.42459	 33.70241	 19.78786	-17.61326	 81.36351	 -2.72862	 91.80670	711.59998	 40.40	
 18.700	-84.691	 76.35753	 28.68936	 24.34601	-17.89942	 81.88657	 -2.69477	 91.79494	711.65997	 40.40	
 18.700	-90.000	 76.20345	 24.38760	 28.31524	-18.52341	 82.02287	 -2.48978	 91.76805	711.70001	 40.40	
 18.700	-95.309	 76.12637	 19.92640	 32.82964	-18.64719	 81.67570	 -2.40759	 91.81184	711.72998	 40.40	
 18.696	-100.583	 76.06771	 15.27309	 37.75700	-17.98672	 80.77399	 -2.38569	 91.80153	711.60999	 40.40	
 18.690	-105.863	 76.16806	 10.75974	 42.67247	-16.67571	 79.35836	 -2.45868	 91.74731	711.60999	 40.40	
 18.707	-111.165	 76.25742	  6.61682	 47.57977	-15.32766	 77.51960	 -2.42898	 91.77711	711.59998	 40.40	
 18.698	-116.504	 76.33929	  2.78999	 52.40654	-13.61352	 75.11205	 -2.44564	 91.79356	711.69000	 40.40	
 18.700	-121.794	 76.32594	 -0.71539	 56.89939	-11.75872	 72.29081	 -2.50705	 91.79208	711.65002	 40.40	
 18.713	-127.067	 76.33362	 -3.94260	 61.19284	 -9.74711	 69.14465	 -2.60355	 91.81689	711.59998	 40.40	
 18.705	-132.343	 76.31310	 -6.95618	 65.26188	 -7.37822	 65.49399	 -2.68500	 91.80995	711.59998	 40.40	
 18.699	-137.625	 76.25893	 -9.72392	 68.99694	 -4.72395	 61.47387	 -2.73780	 91.83823	711.58002	 40.50	
 18.698	-142.952	 76.21852	-12.03728	 72.29449	 -1.70753	 57.18747	 -2.85179	 91.80269	711.65002	 40.40	
 18.704	-148.255	 76.17813	-14.22857	 75.30713	  1.58597	 52.75254	 -2.97894	 91.85043	711.65002	 40.40	
 18.695	-153.537	 76.14748	-16.09369	 77.76103	  5.28069	 47.98164	 -3.08962	 91.81285	711.62000	 40.40	
 18.706	-158.818	 76.02950	-17.72022	 79.79730	  9.15448	 43.05991	 -3.17045	 91.79291	711.58002	 40.40	
 18.691	-164.085	 75.87212	-19.14446	 81.30682	 13.70166	 38.27204	 -3.22969	 91.76833	711.65997	 40.40	
 18.703	-169.441	 75.69966	-20.02609	 82.27422	 18.29694	 33.06458	 -3.33984	 91.76228	711.59998	 40.40	
 18.709	-174.675	 75.55405	-20.40248	 82.85646	 22.19168	 28.63079	 -3.69922	 91.76671	711.65002	 40.40	
 18.700	180.000	 75.52074	-20.47314	 82.93067	 26.47081	 24.31125	 -3.97286	 91.81120	711.70001	 40.40	
 20.400	180.000	 72.15852	-24.99184	 85.06953	 23.90423	 21.69393	 -4.02888	 91.75665	711.67999	 40.40	
 20.401	-175.153	 72.23017	-25.37518	 85.05305	 19.88317	 25.89822	 -3.52054	 91.77220	711.65997	 40.40	
 20.407	-170.264	 72.31772	-24.75688	 84.60739	 15.86892	 30.14622	 -3.08631	 91.76885	711.59003	 40.40	
 20.410	-165.423	 72.46488	-23.75419	 83.73961	 11.18920	 35.11050	 -3.01275	 91.77670	711.60999	 40.40	
 20.392	-160.496	 72.60883	-22.55275	 82.31596	  7.17455	 40.19893	 -2.90283	 91.79238	711.66998	 40.40	
 20.401	-155.705	 72.61429	-21.31518	 80.44633	  3.22785	 44.98917	 -2.85268	 91.75000	711.75000	 40.40	
 20.405	-150.835	 72.66032	-19.74429	 78.18056	 -0.60688	 49.84645	 -2.76395	 91.74361	711.59998	 40.40	
 20.397	-145.903	 72.75700	-17.90436	 75.39169	 -3.88977	 54.52477	 -2.66248	 91.75829	711.67999	 40.50	
 20.392	-141.062	 72.73885	-15.88610	 72.19704	 -6.74852	 58.98479	 -2.54155	 91.73846	711.60999	 40.50	
 20.396	-136.227	 72.73412	-13.50626	 68.72533	 -9.43897	 63.15007	 -2.47911	 91.70623	711.78998	 40.50	
 20.408	-131.372	 72.82489	-11.04722	 64.95074	-11.89814	 67.11588	 -2.45834	 91.76427	711.84998	 40.50	
 20.410	-126.511	 72.86781	 -8.05225	 60.79235	-14.18849	 70.67156	 -2.37619	 91.71983	711.71997	 40.50	
 20.400	-121.604	 72.89268	 -4.80050	 56.37737	-16.25282	 73.92515	 -2.28569	 91.73888	711.69000	 40.50	
 20.403	-116.741	 72.83791	 -1.42943	 51.81987	-18.00742	 76.77303	 -2.24276	 91.73750	711.78998	 40.50	
 20.413	-111.900	 72.77389	  2.16144	 47.08736	-19.60496	 79.19126	 -2.25937	 91.75188	711.67999	 40.50	
 20.398	-107.004	 72.74751	  6.26521	 42.13335	-20.85032	 81.12123	 -2.19984	 91.72749	711.60999	 40.50	
 20.394	-102.132	 72.70113	 10.44211	 37.23759	-21.90532	 82.63375	 -2.20724	 91.71462	711.69000	 40.60	
 20.403	-97.332	 72.67235	 14.84083	 32.35630	-22.68592	 83.68209	 -2.20561	 91.73365	711.78998	 40.60	
 20.392	-92.440	 72.69750	 19.52344	 27.47334	-23.14296	 84.24780	 -2.28981	 91.72891	711.65997	 40.60	
 20.392	-87.560	 72.75710	 23.23475	 24.05082	-22.89502	 84.33276	 -2.50193	 91.67495	711.67999	 40.60	
 20.403	-82.668	 72.77702	 28.24918	 19.47125	-22.65964	 84.08716	 -2.57867	 91.69151	711.69000	 40.60	
 20.394	-77.868	 72.83920	 33.20604	 15.05967	-22.05740	 83.33055	 -2.55408	 91.69147	711.66998	 40.60	
 20.398	-72.996	 72.94224	 38.22200	 10.79364	-21.12399	 82.08879	 -2.50808	 91.69272	711.63000	 40.60	
 20.413	-68.100	 73.00468	 43.27430	  6.65197	-20.04174	 80.45131	 -2.54759	 91.73152	711.66998	 40.60	
 20.403	-63.259	 73.05148	 48.10396	  2.99624	-18.60308	 78.31837	 -2.68253	 91.71214	711.60999	 40.60	
 20.400	-58.396	 73.07675	 52.81663	 -0.56961	-16.84546	 75.72207	 -2.81356	 91.65869	711.59003	 40.50	
 20.410	-53.489	 73.10166	 57.38391	 -4.06031	-14.83839	 72.75119	 -2.85682	 91.67353	711.70001	 40.60	
 20.408	-48.628	 73.07995	 61.75266	 -7.27444	-12.59883	 69.39292	 -2.88504	 91.67679	711.69000	 40.60	
 20.396	-43.773	 73.18089	 65.75861	 -9.80708	 -9.95255	 65.73435	 -3.00173	 91.69009	711.77002	 40.60	
 20.392	-38.938	 73.27689	 69.40710	-11.94411	 -7.07519	 61.75819	 -3.13636	 91.68684	711.67999	 40.60	
 20.397	-34.097	 73.25085	 72.85116	-14.17788	 -4.80558	 57.37924	 -3.17468	 91.70518	711.63000	 40.60	
 20.405	-29.165	 73.22377	 75.86098	-16.22364	 -1.43292	 52.71058	 -3.24508	 91.68603	711.65002	 40.60	
 20.401	-24.295	 73.25974	 78.42976	-17.85574	  2.32394	 47.88266	 -3.39082	 91.72053	711.72998	 40.60	
 20.392	-19.504	 73.31524	 80.42355	-18.94085	  6.41794	 43.02695	 -3.58843	 91.68259	711.70001	 40.60	
 20.410	-14.577	 73.22853	 82.05755	-20.12373	 10.57163	 37.94244	 -3.70277	 91.61684	711.78998	 40.60	
 20.407	 -9.736	 73.26929	 83.31947	-21.08003	 15.49460	 33.00363	 -3.90499	 91.69762	711.71997	 40.60	
 20.401	 -4.847	 73.28243	 84.01785	-21.25360	 19.92781	 28.35372	 -4.18455	 91.65591	711.79999	 40.60	
 20.400	  0.000	 73.25970	 84.36997	-21.61702	 23.80045	 24.09329	 -4.56832	 91.70244	711.76001	 40.60	
 20.401	  4.847	 73.22009	 84.24220	-21.81061	 28.07631	 19.19333	 -4.86667	 91.69662	711.71002	 40.60	
 20.407	  9.736	 73.16326	 83.59395	-21.41251	 32.96817	 14.33906	 -4.93736	 91.67458	711.78998	 40.60	
 20.410	 14.577	 73.13307	 82.54105	-20.83876	 38.00655	  9.92143	 -5.08379	 91.69302	711.75000	 40.60	
 20.392	 19.504	 73.05041	 80.90794	-20.11133	 42.90304	  5.55797	 -5.27350	 91.65256	711.70001	 40.60	
 20.401	 24.295	 73.02089	 78.96894	-18.91504	 47.68384	  1.67920	 -5.45291	 91.68109	711.71997	 40.60	
 20.405	 29.165	 73.03061	 76.58684	-17.38874	 52.30556	 -1.89833	 -5.59418	 91.69028	711.78003	 40.60	
 20.397	 34.097	 73.02537	 73.66618	-15.52799	 56.84487	 -5.38439	 -5.74227	 91.68701	711.66998	 40.60	
 20.392	 38.938	 72.96522	 70.40556	-13.56292	 61.14780	 -8.60886	 -5.85984	 91.65343	711.65997	 40.60	
 20.396	 43.773	 73.05433	 66.99761	-11.40134	 65.14069	-11.45819	 -5.98369	 91.72778	711.75000	 40.60	
 20.408	 48.628	 73.00728	 63.09676	 -8.94745	 68.82713	-14.34755	 -6.11082	 91.68662	711.63000	 40.70	
 20.410	 53.489	 72.99885	 58.78445	 -6.30229	 72.31117	-16.69938	 -6.26349	 91.69188	711.70001	 40.60	
 20.400	 58.396	 72.92510	 54.33304	 -3.19653	 75.41367	-18.77994	 -6.37078	 91.68638	711.78998	 40.60	
 20.403	 63.259	 72.90480	 49.74654	  0.34057	 78.06947	-20.44578	 -6.51945	 91.70330	711.76001	 40.70	
 20.413	 68.100	 72.83157	 44.96949	  3.97736	 80.26622	-21.91589	 -6.65112	 91.70271	711.67999	 40.70	
 20.398	 72.996	 72.79620	 40.04503	  7.92000	 82.10557	-23.23223	 -6.78088	 91.70592	711.59003	 40.70	
 20.394	 77.868	 72.72038	 35.04804	 12.02498	 83.44795	-24.26157	 -6.87990	 91.65209	711.71002	 40.70	
 20.403	 82.668	 72.61613	 30.00306	 16.31289	 84.36893	-24.57719	 -6.94179	 91.66132	711.71997	 40.70	
 20.392	 87.560	 72.53799	 25.04701	 20.87453	 84.85431	-24.81144	 -7.00944	 91.67993	711.69000	 40.70	
 20.392	 92.440	 72.46349	 21.28085	 24.76593	 84.89049	-24.89105	 -6.94324	 91.65014	711.70001	 40.70	
 20.403	 97.332	 72.44357	 16.52838	 29.19102	 84.55222	-24.73201	 -6.79444	 91.70086	711.67999	 40.70	
 20.394	102.132	 72.40359	 12.08277	 34.01582	 83.68065	-24.01923	 -6.57447	 91.66038	711.67999	 40.70	
 20.398	107.004	 72.37974	  7.86819	 39.00830	 82.44276	-23.11754	 -6.45714	 91.70383	711.69000	 40.70	
 20.413	111.900	 72.26462	  3.78430	 43.83411	 80.69308	-21.96656	 -6.37289	 91.66544	711.59003	 40.70	
 20.403	116.741	 72.23363	  0.04965	 48.62552	 78.60409	-20.41372	 -6.31841	 91.68013	711.65997	 40.70	
 20.400	121.604	 72.19252	 -3.44363	 53.28347	 76.06924	-18.66499	 -6.22079	 91.66788	711.71002	 40.70	
 20.410	126.511	 72.12064	 -6.76265	 57.79912	 73.04091	-16.64017	 -6.04445	 91.66085	711.66998	 40.70	
 20.408	131.372	 72.05922	 -9.77922	 62.17543	 69.59618	-14.36271	 -5.85268	 91.66544	711.62000	 40.70	
 20.396	136.227	 71.99200	-12.39700	 66.14825	 65.89083	-11.86522	 -5.65713	 91.66073	711.69000	 40.80	
 20.392	141.062	 71.94196	-14.77906	 69.70880	 61.98290	 -9.14357	 -5.40710	 91.65617	711.60999	 40.70	
 20.397	145.903	 71.91820	-17.04645	 73.09077	 57.64746	 -6.15057	 -5.22943	 91.67036	711.58002	 40.70	
 20.405	150.835	 71.84978	-19.17117	 76.14881	 53.07152	 -2.83023	 -4.96665	 91.63931	711.71002	 40.70	
 20.401	155.705	 71.83083	-21.08170	 78.69815	 48.44523	  0.56963	 -4.79120	 91.66526	711.64001	 40.70	
 20.392	160.496	 71.84665	-22.34838	 80.77043	 43.66587	  4.25367	 -4.58739	 91.64793	711.69000	 40.80	
 20.410	165.423	 71.84318	-23.33701	 82.57326	 38.72847	  8.29284	 -4.52145	 91.67587	711.65997	 40.80	
 20.407	170.264	 71.91695	-24.15613	 83.80402	 33.65937	 12.44153	 -4.45199	 91.69447	711.59003	 40.80	
 20.401	175.153	 72.02197	-24.62466	 84.63078	 28.71754	 16.96414	 -4.28109	 91.68543	711.66998	 40.80	
  0.141	 45.000	 91.84061	 38.92779	 41.37114	 40.67503	 38.77375	  1.55584	 91.73758	711.76001	 40.80	
  4.001	128.691	 91.39661	 31.12760	 47.64578	 49.06087	 29.18313	  1.03185	 91.70567	711.65997	 40.80	
  4.002	 76.995	 91.46673	 40.85697	 37.84208	 51.37945	 27.31071	  1.33866	 91.69958	711.75000	 40.80	
  4.002	 25.892	 91.57164	 48.83971	 30.05348	 44.83722	 33.30408	  1.48281	 91.69942	711.65002	 40.80	
  4.002	-25.892	 91.59799	 48.63013	 31.02929	 34.83122	 43.46781	  1.31856	 91.68533	711.71002	 40.80	
  4.002	-76.995	 91.57461	 40.38524	 38.80058	 28.81573	 49.79273	  1.00617	 91.73695	711.67999	 40.80	
  4.001	-128.691	 91.43186	 30.83306	 48.51038	 31.12197	 47.22323	  0.82383	 91.69938	711.70001	 40.80	
  4.000	180.000	 91.35931	 26.74203	 52.53810	 39.86227	 38.03025	  0.82235	 91.70729	711.71997	 40.80	
  8.000	180.000	 89.35177	 14.29833	 62.49286	 38.10310	 35.76420	 -0.56781	 91.70464	711.69000	 40.80	
  7.991	-152.370	 89.48856	 16.43601	 60.23391	 27.80990	 46.69160	 -0.61923	 91.74566	711.60999	 40.80	
  7.997	-124.550	 89.63386	 23.06253	 52.74247	 20.08295	 55.61921	 -0.70984	 91.76776	711.76001	 40.80	
  8.006	-96.837	 89.68773	 33.32952	 42.14506	 16.24615	 60.24738	 -0.60727	 91.70915	711.72998	 40.80	
  7.988	-69.228	 89.87582	 44.18047	 31.40116	 17.39070	 59.11279	 -0.41863	 91.77370	711.72998	 40.80	
  7.997	-41.563	 89.90119	 53.88479	 22.93523	 22.85162	 52.59541	 -0.12619	 91.72555	711.71997	 40.80	
  8.008	-13.821	 89.86618	 59.67588	 17.94205	 32.54945	 42.26621	  0.27991	 91.69372	711.76001	 40.80	
  8.008	 13.821	 89.74386	 59.95549	 17.44458	 43.37138	 31.15014	  0.46921	 91.66963	711.76001	 40.80	
  7.997	 41.563	 89.68990	 54.52751	 21.72932	 53.61676	 21.58528	  0.41683	 91.70987	711.66998	 40.80	
  7.988	 69.228	 89.55370	 44.97066	 29.82454	 60.23886	 15.64099	  0.18002	 91.69655	711.66998	 40.80	
  8.006	 96.837	 89.43328	 34.01175	 40.34473	 61.84722	 13.98151	 -0.03891	 91.71239	711.73999	 40.80	
  7.997	124.550	 89.35802	 23.82552	 51.09887	 57.74956	 17.62875	 -0.25193	 91.70236	711.65997	 40.80	
  7.991	152.370	 89.33377	 17.02172	 59.23649	 49.01443	 25.16807	 -0.43551	 91.72684	711.59998	 40.80	
 12.009	161.059	 85.49070	  3.08556	 68.74637	 46.38062	 21.51266	 -2.82433	 91.71835	711.64001	 40.80	
 12.013	142.081	 85.46574	  7.66920	 62.59140	 56.96428	 12.03554	 -3.01548	 91.71511	711.70001	 40.80	
 12.006	123.113	 85.58565	 15.67241	 53.39108	 65.12770	  5.94804	 -2.78386	 91.72855	711.69000	 40.80	
 12.007	104.200	 85.64935	 25.33982	 42.49673	 69.96278	  2.35466	 -2.76657	 91.70920	711.65002	 40.80	
 11.989	 85.301	 85.84326	 36.63688	 31.36040	 70.86910	  1.72480	 -2.49877	 91.72455	711.69000	 40.80	
 12.013	 66.294	 85.92068	 47.86362	 21.20840	 67.74363	  3.93811	 -2.56476	 91.69929	711.64001	 40.80	
 12.012	 47.388	 85.99748	 57.95612	 12.80289	 60.98159	  9.15345	 -2.33602	 91.69209	711.76001	 40.80	
 11.990	 28.440	 86.09374	 65.41187	  7.42315	 51.37603	 17.86813	 -1.93805	 91.66085	711.65002	 40.80	
 11.991	  9.464	 86.24355	 69.31409	  4.98175	 40.40234	 28.32967	 -1.30923	 91.65693	711.70001	 40.80	
 11.991	 -9.464	 86.33345	 69.17116	  5.34048	 29.14575	 39.72796	 -1.54809	 91.68523	711.73999	 40.80	
 11.990	-28.440	 86.39361	 64.90173	  8.44730	 19.06329	 50.79856	 -2.01955	 91.69790	711.69000	 40.80	
 12.012	-47.388	 86.26071	 57.03793	 14.35341	 10.85104	 60.34428	 -2.23132	 91.65679	711.78003	 40.90	
 12.013	-66.294	 86.17725	 46.76928	 23.11991	  5.66725	 66.89971	 -2.56104	 91.65845	711.78003	 40.80	
 11.989	-85.301	 86.17347	 35.52037	 33.81694	  3.67434	 69.67175	 -2.35809	 91.69682	711.78003	 40.90	
 12.007	-104.200	 85.99376	 24.38740	 45.02539	  4.36507	 68.31705	 -2.54827	 91.66122	711.72998	 40.80	
 12.006	-123.113	 85.93811	 14.89028	 55.60314	  8.10870	 62.97128	 -2.66554	 91.68240	711.72998	 40.80	
 12.013	-142.081	 85.85918	  7.50733	 64.34123	 15.37084	 54.27786	 -2.40523	 91.71052	711.81000	 40.80	
 12.009	-161.059	 85.71085	  3.21845	 69.67593	 24.10815	 43.66798	 -2.73303	 91.65755	711.78998	 40.80	
 16.000	180.000	 80.06902	-11.92384	 78.70354	 30.28646	 27.82902	 -3.96862	 91.70747	711.77002	 40.80	
 15.990	-165.604	 80.23631	-10.72719	 77.52214	 20.20292	 39.00134	 -3.60569	 91.68526	711.71002	 40.80	
 16.002	-151.165	 80.38783	 -7.44438	 73.48840	 10.61851	 50.28782	 -3.33620	 91.73425	711.78003	 40.80	
 16.002	-136.836	 80.54088	 -1.88896	 66.39745	  2.08821	 60.45462	 -3.09556	 91.70193	711.73999	 40.80	
 15.995	-122.439	 80.59350	  5.35359	 57.01312	 -3.63180	 68.86356	 -2.94866	 91.66651	711.82001	 40.80	
 15.993	-107.966	 80.53548	 14.77993	 46.28546	 -7.87621	 74.70304	 -2.84224	 91.66823	711.79999	 40.80	
 16.005	-93.629	 80.61138	 25.16165	 34.87880	 -9.74241	 77.41690	 -2.86134	 91.65838	711.72998	 40.80	
 15.992	-79.234	 80.75883	 36.49632	 24.27717	 -9.15402	 76.96883	 -3.08763	 91.69016	711.73999	 40.80	
 16.009	-64.774	 80.81812	 47.92641	 14.22214	 -6.41293	 73.39787	 -3.15639	 91.69404	711.81000	 40.80	
 15.997	-50.364	 80.94691	 58.49177	  5.61508	 -1.50709	 66.74757	 -3.37703	 91.68739	711.76001	 40.80	
 15.997	-36.045	 80.98448	 67.27309	 -0.77807	  5.22166	 57.70322	 -3.53338	 91.63540	711.78998	 40.80	
 16.000	-21.597	 81.05446	 73.75531	 -5.35468	 14.92129	 46.92777	 -3.55299	 91.70022	711.73999	 40.80	
 16.003	 -7.169	 81.07722	 77.11781	 -7.28469	 24.74084	 35.57877	 -3.67132	 91.68439	711.85999	 40.80	
 16.003	  7.169	 80.96777	 77.32151	 -7.87049	 35.75161	 24.24912	 -3.93773	 91.67836	711.79999	 40.80	
 16.000	 21.597	 80.79398	 74.26131	 -6.28826	 47.18670	 13.33564	 -3.97900	 91.64181	711.78003	 40.80	
 15.997	 36.045	 80.72520	 68.18430	 -2.29353	 57.83603	  4.20264	 -4.07903	 91.67549	711.79999	 40.80	
 15.997	 50.364	 80.63062	 59.66622	  3.70015	 66.82752	 -2.83291	 -4.39723	 91.68157	711.79999	 40.80	
 16.009	 64.774	 80.60987	 49.27102	 11.69070	 73.59779	 -7.70089	 -4.67945	 91.70785	711.77002	 40.80	
 15.992	 79.234	 80.40998	 37.83236	 21.38341	 77.55235	-10.89900	 -4.80672	 91.66380	711.75000	 40.80	
 16.005	 93.629	 80.21573	 26.55897	 31.89799	 78.41225	-11.60362	 -4.75653	 91.61053	711.78998	 40.90	
 15.993	107.966	 80.17275	 15.96450	 43.27287	 76.22118	-10.07028	 -4.85786	 91.65442	711.78003	 40.90	
 15.995	122.439	 80.05892	  6.20079	 54.38013	 70.93468	 -6.07523	 -4.82353	 91.68102	711.67999	 40.90	
 16.002	136.836	 79.97430	 -1.25444	 64.10567	 62.99519	 -0.39201	 -4.83074	 91.67302	711.59003	 40.90	
 16.002	151.165	 79.84663	 -6.85286	 71.71599	 53.05679	  7.14223	 -4.63136	 91.64465	711.84998	 40.90	
 15.990	165.604	 79.89778	-10.45845	 76.68901	 41.83667	 16.81538	 -4.38325	 91.65020	711.82001	 40.90	
 20.003	168.362	 72.71319	-22.63509	 82.88426	 36.05405	 11.56628	 -4.49143	 91.66592	711.83002	 40.90	
 20.008	156.764	 72.69302	-20.37147	 78.88372	 47.56295	  2.20470	 -4.82844	 91.73034	711.76001	 40.90	
 20.000	145.147	 72.75581	-15.76805	 72.37346	 58.31034	 -5.70793	 -5.33576	 91.70301	711.73999	 40.90	
 19.995	133.545	 72.87745	-10.07224	 63.91300	 67.74539	-12.14810	 -5.75970	 91.64202	711.71002	 40.90	
 20.009	121.926	 72.96613	 -2.73017	 53.70650	 75.43672	-17.32395	 -6.19573	 91.61948	711.90002	 40.90	
 20.005	110.327	 73.15807	  5.91623	 42.63251	 80.82747	-21.48352	 -6.35569	 91.65305	711.77002	 40.90	
 19.989	 98.733	 73.28123	 15.94024	 31.16694	 83.80776	-23.61162	 -6.61805	 91.66176	711.70001	 40.90	
 19.999	 87.075	 73.36755	 26.39972	 21.08867	 84.25053	-23.95746	 -6.79150	 91.63322	711.73999	 40.90	
 19.992	 75.457	 73.59074	 38.00313	 10.77781	 82.33401	-22.50608	 -6.71627	 91.66981	711.81000	 40.90	
 20.009	 63.844	 73.69925	 49.34785	  1.67075	 77.95496	-19.43553	 -6.41920	 91.69719	711.75000	 40.90	
 19.989	 52.269	 73.87123	 59.83548	 -5.72803	 71.13982	-14.68954	 -6.16039	 91.63862	711.72998	 40.90	
 19.999	 40.602	 73.84354	 69.07051	-11.92687	 62.55325	 -8.30039	 -5.87198	 91.71442	711.77002	 40.90	
 20.004	 29.051	 73.86402	 76.21791	-16.70313	 52.38143	 -0.73202	 -5.59539	 91.65823	711.78003	 40.90	
 20.005	 17.433	 73.90458	 81.14503	-19.71154	 41.22050	  8.24610	 -5.16699	 91.65876	711.76001	 40.90	
 20.006	  5.780	 73.97956	 83.55025	-20.90588	 29.59416	 18.97153	 -4.98611	 91.60940	711.67999	 40.90	
 20.006	 -5.780	 74.15130	 83.30629	-19.75710	 19.52475	 30.37088	 -4.39060	 91.64662	711.71997	 40.90	
 20.005	-17.433	 74.15447	 80.58115	-18.06265	  9.24781	 41.42780	 -3.74895	 91.60658	711.69000	 41.00	
 20.004	-29.051	 74.10370	 75.43737	-15.04099	 -0.01530	 52.77955	 -3.41016	 91.63992	711.71997	 41.00	
 19.999	-40.602	 74.02485	 67.97396	-10.07551	 -7.48717	 62.91811	 -3.20745	 91.63322	711.62000	 41.00	
 19.989	-52.269	 73.94627	 58.50002	 -3.76110	-13.56896	 71.54163	 -2.92875	 91.62428	711.76001	 41.00	
 20.009	-63.844	 73.84531	 47.76287	  4.36359	-18.18049	 78.10383	 -2.74249	 91.61927	711.76001	 41.00	
 19.992	-75.457	 73.73149	 36.10630	 13.75296	-20.45163	 82.28990	 -2.62390	 91.69863	711.60999	 41.00	
 19.999	-87.075	 73.56644	 24.39337	 24.27272	-21.66092	 83.77923	 -2.63419	 91.64127	711.78003	 41.00	
 19.989	-98.733	 73.44109	 14.57354	 34.43596	-21.41736	 82.84108	 -2.26698	 91.65567	711.78003	 41.00	
 20.005	-110.327	 73.55414	  4.36797	 45.86210	-18.80025	 79.37074	 -2.35603	 91.67667	711.83002	 41.00	
 20.009	-121.926	 73.60048	 -4.03955	 56.67425	-15.07269	 73.35921	 -2.42086	 91.62781	711.73999	 41.00	
 19.995	-133.545	 73.51579	-11.20001	 66.50308	 -9.76465	 65.18705	 -2.54883	 91.63738	711.83002	 41.00	
 20.000	-145.147	 73.50711	-16.48389	 74.55238	 -3.40426	 55.24189	 -2.79946	 91.63463	711.81000	 41.00	
 20.008	-156.764	 73.28126	-20.39799	 80.39994	  4.84453	 44.14151	 -3.03255	 91.62966	711.78003	 41.00	
 20.003	-168.362	 73.04549	-23.22338	 83.68987	 14.91467	 32.61974	 -3.15192	 91.60806	711.79999	 41.00	
 20.000	180.000	 72.91244	-23.73308	 84.47707	 24.56605	 22.32339	 -4.13883	 91.66191	711.84003	 41.00	
