FileType=PCF
NHL=14
Date=03/20/19	09:39:47
Facility=APL
Serial=16071-7
Customer=NASA
NP=6
Mach=0.230000
Calibration=1:1
CalPts=490
TstPts=95
PortNumbering=AP Standard
Units=Torr C m/s kg/m^3 deg mm 
Theta[deg]	Phi[deg]	P1[Torr]	P2[Torr]	P3[Torr]	P4[Torr]	P5[Torr]	P6[Torr]	Pt[Torr]	Ps[Abs,Torr]	Ts[C]	
  0.000	  0.000	 25.57342	 10.47803	 11.02767	 10.76568	 10.60624	  0.49990	 25.58372	713.06000	 18.90	
  1.691	128.401	 25.56661	  9.62568	 11.82179	 11.86109	  9.47591	  0.47303	 25.58737	713.12000	 18.90	
  1.692	 77.194	 25.57270	 10.79037	 10.63930	 12.12083	  9.23833	  0.51775	 25.59508	713.15997	 18.90	
  1.699	 26.182	 25.57221	 11.72809	  9.74598	 11.35543	  9.98604	  0.54378	 25.58628	713.09003	 18.90	
  1.699	-26.182	 25.58989	 11.70081	  9.78614	 10.14254	 11.20849	  0.52254	 25.60302	713.04999	 18.90	
  1.692	-77.194	 25.59672	 10.73905	 10.75264	  9.46476	 11.91771	  0.47868	 25.61136	713.04999	 18.80	
  1.691	-128.401	 25.57047	  9.57514	 11.90927	  9.72129	 11.60722	  0.45427	 25.59242	713.02002	 18.80	
  1.700	180.000	 25.58561	  9.09326	 12.41898	 10.76848	 10.53963	  0.45499	 25.60475	713.04999	 18.80	
  3.400	180.000	 25.53766	  7.67093	 13.77975	 10.69198	 10.40473	  0.35647	 25.61300	713.08002	 18.80	
  3.388	-152.325	 25.54406	  7.94521	 13.50144	  9.46594	 11.66695	  0.35516	 25.61983	713.03003	 18.80	
  3.397	-124.529	 25.54458	  8.77296	 12.58089	  8.49675	 12.72034	  0.35817	 25.60604	713.08002	 18.80	
  3.399	-96.763	 25.55296	  9.96965	 11.34229	  8.03875	 13.26989	  0.38858	 25.60688	713.07001	 18.80	
  3.394	-69.283	 25.56414	 11.28107	 10.02871	  8.18134	 13.12495	  0.42030	 25.61214	713.09998	 18.80	
  3.400	-41.398	 25.56219	 12.44389	  8.90599	  8.88674	 12.34537	  0.46417	 25.60718	713.10999	 18.80	
  3.401	-14.021	 25.56658	 13.13507	  8.27551	  9.98417	 11.19300	  0.50294	 25.61418	713.09998	 18.80	
  3.401	 14.021	 25.55920	 13.17535	  8.22670	 11.31404	  9.86541	  0.53321	 25.60513	713.13000	 18.80	
  3.400	 41.398	 25.57433	 12.55752	  8.77712	 12.55572	  8.70159	  0.52763	 25.62836	713.03998	 18.70	
  3.394	 69.283	 25.56041	 11.41824	  9.82149	 13.36793	  7.93658	  0.50474	 25.61834	713.09003	 18.70	
  3.399	 96.763	 25.53938	 10.11319	 11.09905	 13.56615	  7.74762	  0.46176	 25.61007	713.07001	 18.70	
  3.397	124.529	 25.53448	  8.88073	 12.38693	 13.09680	  8.17351	  0.42776	 25.61153	713.03998	 18.70	
  3.388	152.325	 25.53267	  8.00205	 13.37660	 12.03677	  9.10640	  0.38130	 25.60431	713.08002	 18.70	
  5.099	161.165	 25.40251	  6.49948	 14.75109	 11.93210	  8.85163	  0.23883	 25.61500	713.10999	 18.70	
  5.109	142.013	 25.40853	  7.12123	 14.00211	 13.21956	  7.70153	  0.26234	 25.61761	712.96997	 18.70	
  5.095	123.033	 25.40595	  8.07908	 12.89669	 14.20026	  6.88631	  0.30773	 25.60497	713.01001	 18.70	
  5.105	104.191	 25.41934	  9.28514	 11.59332	 14.77770	  6.40884	  0.34226	 25.62275	712.96997	 18.70	
  5.093	 85.207	 25.44209	 10.63995	 10.23187	 14.86692	  6.33595	  0.38740	 25.62292	713.04999	 18.70	
  5.104	 66.290	 25.44068	 11.97697	  8.97307	 14.49543	  6.64623	  0.42563	 25.62273	713.14001	 18.70	
  5.094	 47.331	 25.43782	 13.17604	  7.91312	 13.64509	  7.38048	  0.42239	 25.60861	713.09003	 18.70	
  5.089	 28.397	 25.45525	 14.08088	  7.12588	 12.50743	  8.43639	  0.46696	 25.61782	713.15002	 18.70	
  5.096	  9.576	 25.46152	 14.52700	  6.77128	 11.19108	  9.67800	  0.46357	 25.62828	713.06000	 18.70	
  5.096	 -9.576	 25.46060	 14.48344	  6.80870	  9.82227	 11.03793	  0.44476	 25.62335	713.06000	 18.70	
  5.089	-28.397	 25.47082	 13.97034	  7.26813	  8.61735	 12.31775	  0.39849	 25.63166	713.03003	 18.70	
  5.094	-47.331	 25.46471	 13.01876	  8.13064	  7.61185	 13.46083	  0.35879	 25.62961	712.98999	 18.70	
  5.104	-66.290	 25.46298	 11.79767	  9.26659	  6.94816	 14.24740	  0.30697	 25.63091	713.04999	 18.70	
  5.093	-85.207	 25.45705	 10.44738	 10.57400	  6.65581	 14.56225	  0.27278	 25.62698	713.02002	 18.70	
  5.105	-104.191	 25.45651	  9.12698	 11.92347	  6.76659	 14.41024	  0.25053	 25.64159	713.04999	 18.70	
  5.095	-123.033	 25.44942	  7.94750	 13.20787	  7.30574	 13.74950	  0.22143	 25.63895	713.08002	 18.70	
  5.109	-142.013	 25.43596	  6.99707	 14.24809	  8.16432	 12.75081	  0.23066	 25.64073	713.03003	 18.70	
  5.099	-161.165	 25.44034	  6.43790	 14.88465	  9.33359	 11.48329	  0.19533	 25.64178	713.04999	 18.70	
  5.100	180.000	 25.42175	  6.26599	 15.07376	 10.56857	 10.14862	  0.23806	 25.63390	713.01001	 18.70	
  6.800	180.000	 25.19930	  4.80860	 16.31153	 10.35467	  9.87445	  0.03474	 25.64224	713.12000	 18.70	
  6.796	-166.229	 25.20965	  4.94317	 16.18229	  9.14318	 11.18860	 -0.01235	 25.64509	713.10999	 18.70	
  6.808	-152.311	 25.20206	  5.31321	 15.70451	  7.95140	 12.48912	  0.01616	 25.63449	712.98999	 18.70	
  6.795	-138.383	 25.20812	  5.96357	 14.95238	  6.96132	 13.63096	  0.05299	 25.63622	713.03003	 18.70	
  6.792	-124.591	 25.22097	  6.85877	 13.92181	  6.12961	 14.62015	  0.01610	 25.63464	713.07001	 18.70	
  6.787	-110.754	 25.22548	  7.94494	 12.68744	  5.58022	 15.32997	  0.04557	 25.63279	713.15002	 18.70	
  6.800	-96.985	 25.24487	  9.17958	 11.37477	  5.27907	 15.73925	  0.04032	 25.63953	713.03003	 18.70	
  6.800	-83.015	 25.25148	 10.51211	 10.02692	  5.26759	 15.78808	  0.08405	 25.63600	713.06000	 18.70	
  6.787	-69.246	 25.26471	 11.81832	  8.82721	  5.57140	 15.46330	  0.07805	 25.64178	713.04999	 18.80	
  6.792	-55.409	 25.26174	 13.07574	  7.68742	  6.05144	 14.85436	  0.17225	 25.64248	713.07001	 18.80	
  6.795	-41.617	 25.25114	 14.15571	  6.73372	  6.81383	 13.90670	  0.16658	 25.63137	713.03003	 18.80	
  6.808	-27.689	 25.25902	 15.06852	  5.95460	  7.83253	 12.71593	  0.22598	 25.63366	713.01001	 18.80	
  6.796	-13.771	 25.26508	 15.63586	  5.47427	  9.02946	 11.44214	  0.31854	 25.64494	713.09003	 18.80	
  6.800	  0.000	 25.27559	 15.83957	  5.30264	 10.27844	 10.20517	  0.29288	 25.65031	712.97998	 18.80	
  6.796	 13.771	 25.26344	 15.71170	  5.38627	 11.61165	  8.87837	  0.36413	 25.64465	712.94000	 18.80	
  6.808	 27.689	 25.25361	 15.22819	  5.77860	 12.92760	  7.64687	  0.36507	 25.64496	713.09003	 18.80	
  6.795	 41.617	 25.24519	 14.39696	  6.45547	 14.09359	  6.60229	  0.27883	 25.64404	713.07001	 18.80	
  6.792	 55.409	 25.25595	 13.31962	  7.35043	 15.07015	  5.76035	  0.23651	 25.65142	713.09998	 18.80	
  6.787	 69.246	 25.24044	 12.07883	  8.42011	 15.77560	  5.14109	  0.28401	 25.64536	713.10999	 18.80	
  6.800	 83.015	 25.22402	 10.77022	  9.62831	 16.14003	  4.79788	  0.17719	 25.63627	713.15997	 18.80	
  6.800	 96.985	 25.22483	  9.41478	 10.96308	 16.18942	  4.77718	  0.18626	 25.65192	713.14001	 18.80	
  6.787	110.754	 25.22281	  8.15928	 12.29456	 15.84118	  5.06306	  0.11270	 25.65436	713.06000	 18.80	
  6.792	124.591	 25.20409	  7.04012	 13.53024	 15.18229	  5.57252	  0.15804	 25.64802	713.06000	 18.80	
  6.795	138.383	 25.20067	  6.12502	 14.62505	 14.23228	  6.34034	  0.13448	 25.65356	713.07001	 18.80	
  6.808	152.311	 25.20311	  5.41439	 15.50692	 13.07212	  7.33166	  0.04872	 25.65943	713.10999	 18.80	
  6.796	166.229	 25.20404	  4.97465	 16.09014	 11.73691	  8.53705	  0.03515	 25.65751	713.09998	 18.90	
  8.491	168.704	 24.86117	  3.40054	 17.30639	 11.45502	  8.13508	 -0.19579	 25.65101	713.09003	 18.90	
  8.502	157.493	 24.85872	  3.76000	 16.81773	 12.82634	  6.89356	 -0.19080	 25.64794	713.07001	 18.90	
  8.494	146.194	 24.85353	  4.31787	 16.05538	 14.09155	  5.79583	 -0.12125	 25.64808	713.09003	 18.90	
  8.495	135.039	 24.85701	  5.08382	 15.07818	 15.22752	  4.86818	 -0.07558	 25.64982	713.09003	 18.90	
  8.487	123.723	 24.86638	  6.03993	 13.91406	 16.17858	  4.13313	 -0.14799	 25.64664	713.09003	 18.90	
  8.492	112.575	 24.87751	  7.12581	 12.66787	 16.88504	  3.59018	 -0.14078	 25.65074	713.13000	 18.90	
  8.510	101.220	 24.87912	  8.40565	 11.29194	 17.33131	  3.23004	 -0.11590	 25.64492	713.08002	 18.90	
  8.500	 90.000	 24.91210	  9.78037	  9.94663	 17.45008	  3.14504	 -0.07535	 25.65850	713.02002	 18.90	
  8.510	 78.780	 24.90722	 11.15925	  8.60664	 17.28194	  3.28275	 -0.03943	 25.65381	713.15002	 18.90	
  8.492	 67.425	 24.92542	 12.50788	  7.36016	 16.81233	  3.70346	 -0.02373	 25.65660	713.01001	 18.90	
  8.487	 56.277	 24.92758	 13.75225	  6.29242	 16.07846	  4.29776	  0.00472	 25.64754	713.12000	 18.90	
  8.495	 44.961	 24.94089	 14.89819	  5.38297	 15.10656	  5.12139	  0.06091	 25.65010	713.10999	 18.90	
  8.494	 33.806	 24.95066	 15.83073	  4.67891	 13.98102	  6.13269	  0.19408	 25.65680	713.15002	 19.00	
  8.502	 22.507	 24.94618	 16.56580	  4.12546	 12.71600	  7.24135	  0.11642	 25.64611	713.16998	 19.00	
  8.491	 11.296	 24.96329	 16.98124	  3.83559	 11.36980	  8.52135	  0.13127	 25.65705	713.15002	 19.00	
  8.500	  0.000	 24.96387	 17.09087	  3.75771	  9.98105	  9.88292	  0.10564	 25.66039	713.02002	 19.00	
  8.491	-11.296	 24.96013	 16.89148	  3.93603	  8.69856	 11.20082	  0.09445	 25.64825	713.17999	 19.00	
  8.502	-22.507	 24.96971	 16.41240	  4.33495	  7.42288	 12.51075	  0.03196	 25.65033	713.12000	 19.00	
  8.494	-33.806	 24.95821	 15.62161	  4.98679	  6.29008	 13.80904	 -0.02582	 25.63506	713.09998	 19.00	
  8.495	-44.961	 24.97173	 14.65065	  5.79257	  5.40928	 14.91717	 -0.03992	 25.64865	713.14001	 19.00	
  8.487	-56.277	 24.97381	 13.48470	  6.75271	  4.69391	 15.82940	 -0.10486	 25.65295	713.09998	 19.00	
  8.492	-67.425	 24.96390	 12.19076	  7.85266	  4.16661	 16.50583	 -0.15036	 25.64683	713.09998	 19.00	
  8.510	-78.780	 24.94809	 10.82587	  9.14638	  3.81825	 16.92768	 -0.18657	 25.64923	713.13000	 19.10	
  8.500	-90.000	 24.94070	  9.50543	 10.46764	  3.71116	 17.02822	 -0.20317	 25.64976	713.15997	 19.10	
  8.510	-101.220	 24.92761	  8.18852	 11.81270	  3.82954	 16.83997	 -0.20570	 25.64984	713.15997	 19.10	
  8.492	-112.575	 24.92140	  6.92663	 13.17774	  4.18836	 16.33715	 -0.22872	 25.64668	713.16998	 19.10	
  8.487	-123.723	 24.91018	  5.83923	 14.39528	  4.76804	 15.57896	 -0.22095	 25.64014	713.15002	 19.10	
  8.495	-135.039	 24.90748	  4.90505	 15.51474	  5.58241	 14.59451	 -0.13919	 25.65325	713.17999	 19.10	
  8.494	-146.194	 24.89312	  4.18318	 16.38260	  6.48885	 13.46321	 -0.21203	 25.65185	713.09998	 19.10	
  8.502	-157.493	 24.89243	  3.66885	 17.03567	  7.59427	 12.17035	 -0.21365	 25.64699	713.08002	 19.10	
  8.491	-168.704	 24.89132	  3.35179	 17.43601	  8.82424	 10.82644	 -0.21691	 25.65814	713.03003	 19.10	
  8.500	180.000	 24.86970	  3.24087	 17.53126	 10.08871	  9.46064	 -0.19508	 25.65030	713.09998	 19.10	
 10.200	180.000	 24.43943	  1.65987	 18.67002	  9.72253	  9.04180	 -0.43741	 25.65337	713.09003	 19.10	
 10.191	-170.497	 24.46528	  1.75052	 18.59054	  8.43441	 10.42475	 -0.45040	 25.66269	713.21997	 19.20	
 10.210	-161.034	 24.48337	  2.03779	 18.27111	  7.17177	 11.81367	 -0.45530	 25.67227	713.15002	 19.20	
 10.194	-151.526	 24.47887	  2.44686	 17.71141	  6.02195	 13.13594	 -0.43129	 25.66046	713.15997	 19.20	
 10.190	-142.105	 24.48862	  3.03548	 16.94343	  5.03675	 14.37673	 -0.42709	 25.65602	713.14001	 19.20	
 10.215	-132.646	 24.48410	  3.81842	 15.94838	  4.10378	 15.53058	 -0.45369	 25.64561	713.13000	 19.20	
 10.203	-123.092	 24.51181	  4.80035	 14.78519	  3.34209	 16.54098	 -0.47665	 25.67244	713.17999	 19.20	
 10.192	-113.678	 24.51426	  5.90276	 13.54746	  2.75013	 17.29663	 -0.46774	 25.65320	713.14001	 19.20	
 10.208	-104.249	 24.51422	  7.09764	 12.21636	  2.34417	 17.85688	 -0.44563	 25.66845	713.15997	 19.20	
 10.210	-94.801	 24.51523	  8.39562	 10.83364	  2.13337	 18.14996	 -0.43566	 25.64835	713.15997	 19.20	
 10.210	-85.199	 24.54768	  9.75816	  9.45385	  2.11546	 18.20725	 -0.45396	 25.67439	713.09998	 19.20	
 10.208	-75.751	 24.54565	 11.10643	  8.12943	  2.30449	 17.99660	 -0.44275	 25.65758	713.13000	 19.30	
 10.192	-66.322	 24.55734	 12.50277	  6.91309	  2.68462	 17.52075	 -0.41069	 25.66476	713.21002	 19.30	
 10.203	-56.908	 24.56569	 13.81715	  5.78072	  3.23140	 16.82357	 -0.36567	 25.66990	713.15002	 19.30	
 10.215	-47.354	 24.55093	 15.04366	  4.74088	  3.90766	 15.89352	 -0.32923	 25.65283	713.09003	 19.30	
 10.190	-37.895	 24.57121	 16.11233	  3.96181	  4.78366	 14.78177	 -0.31018	 25.65675	713.20001	 19.30	
 10.194	-28.474	 24.55941	 16.98967	  3.24978	  5.78320	 13.57078	 -0.25724	 25.65746	713.12000	 19.30	
 10.210	-18.966	 24.56638	 17.67380	  2.70853	  6.98178	 12.21399	 -0.18839	 25.66033	713.15002	 19.30	
 10.191	 -9.503	 24.56168	 18.08499	  2.34370	  8.25592	 10.82899	 -0.12656	 25.65602	713.16998	 19.30	
 10.200	  0.000	 24.55357	 18.26402	  2.16677	  9.58296	  9.48286	 -0.10550	 25.65466	713.15997	 19.30	
 10.191	  9.503	 24.55632	 18.16450	  2.24435	 10.97826	  8.10696	 -0.11078	 25.65573	713.23999	 19.30	
 10.210	 18.966	 24.53890	 17.81019	  2.44646	 12.35533	  6.81621	 -0.09464	 25.65479	713.20001	 19.30	
 10.194	 28.474	 24.53629	 17.19661	  2.90481	 13.68480	  5.63584	 -0.07645	 25.65975	713.09998	 19.40	
 10.190	 37.895	 24.53329	 16.35697	  3.49648	 14.94369	  4.55865	 -0.10895	 25.65410	713.25000	 19.40	
 10.215	 47.354	 24.51525	 15.33048	  4.26820	 16.09858	  3.54409	 -0.18573	 25.66600	713.16998	 19.40	
 10.203	 56.908	 24.49917	 14.11929	  5.20879	 17.02618	  2.77969	 -0.23821	 25.64283	713.00000	 19.40	
 10.192	 66.322	 24.49486	 12.82203	  6.32101	 17.75345	  2.22865	 -0.25125	 25.64045	713.09003	 19.40	
 10.208	 75.751	 24.48834	 11.49114	  7.51867	 18.27145	  1.80663	 -0.25645	 25.64403	713.20001	 19.40	
 10.210	 85.199	 24.47570	 10.11678	  8.81002	 18.55081	  1.56667	 -0.27080	 25.63685	713.21002	 19.40	
 10.210	 94.801	 24.46189	  8.68376	 10.18225	 18.57907	  1.52969	 -0.32949	 25.63969	713.14001	 19.40	
 10.208	104.249	 24.44450	  7.33687	 11.57713	 18.33692	  1.72590	 -0.36405	 25.63856	713.13000	 19.40	
 10.192	113.678	 24.43933	  6.11572	 12.92249	 17.85261	  2.09146	 -0.37194	 25.64460	713.09003	 19.40	
 10.203	123.092	 24.41945	  4.99805	 14.19896	 17.15059	  2.60818	 -0.36652	 25.63497	713.13000	 19.50	
 10.215	132.646	 24.39659	  4.01993	 15.42161	 16.21252	  3.32120	 -0.38434	 25.62542	713.19000	 19.50	
 10.190	142.105	 24.40961	  3.20927	 16.48654	 15.08364	  4.21501	 -0.39215	 25.64135	713.20001	 19.50	
 10.194	151.526	 24.40023	  2.52274	 17.35815	 13.83328	  5.24187	 -0.40244	 25.62687	713.17999	 19.50	
 10.210	161.034	 24.40270	  2.04101	 18.02678	 12.50946	  6.36473	 -0.39314	 25.63046	713.21002	 19.50	
 10.191	170.497	 24.41575	  1.76349	 18.46428	 11.11398	  7.64938	 -0.39874	 25.62996	713.22998	 19.50	
 11.899	171.783	 23.88202	  0.19079	 19.52417	 10.67780	  7.17072	 -0.61823	 25.62371	713.10999	 19.50	
 11.890	163.610	 23.87318	  0.42632	 19.13489	 12.08179	  5.89833	 -0.61011	 25.62593	713.14001	 19.50	
 11.889	155.445	 23.87889	  0.82345	 18.54777	 13.44667	  4.72855	 -0.63112	 25.63427	713.28998	 19.50	
 11.909	147.299	 23.86877	  1.35518	 17.77370	 14.76873	  3.64091	 -0.64619	 25.63602	713.14001	 19.50	
 11.902	139.148	 23.86920	  2.07516	 16.80955	 15.98579	  2.67646	 -0.64747	 25.63420	713.17999	 19.50	
 11.894	130.867	 23.88498	  2.95515	 15.68094	 17.08225	  1.84981	 -0.62248	 25.63731	713.16998	 19.60	
 11.897	122.732	 23.88390	  3.95042	 14.44106	 17.97336	  1.19261	 -0.60636	 25.61581	713.17999	 19.60	
 11.903	114.597	 23.90072	  5.03855	 13.15266	 18.72727	  0.64646	 -0.62085	 25.62692	713.12000	 19.60	
 11.893	106.346	 23.91946	  6.25175	 11.79682	 19.25207	  0.28483	 -0.60937	 25.63614	713.26001	 19.60	
 11.892	 98.155	 23.93101	  7.57837	 10.38488	 19.58093	  0.03208	 -0.59366	 25.63496	713.32001	 19.60	
 11.900	 90.000	 23.94213	  8.95045	  8.99884	 19.67506	 -0.05246	 -0.55532	 25.63574	713.20001	 19.60	
 11.892	 81.845	 23.94847	 10.35884	  7.67284	 19.53089	  0.08281	 -0.52086	 25.62012	713.10999	 19.60	
 11.893	 73.654	 23.96669	 11.74422	  6.40621	 19.18152	  0.36133	 -0.50773	 25.62740	713.15002	 19.60	
 11.903	 65.403	 23.98419	 13.15414	  5.21996	 18.62296	  0.78285	 -0.50008	 25.63403	713.12000	 19.60	
 11.897	 57.268	 23.98470	 14.46541	  4.17288	 17.85889	  1.32659	 -0.48425	 25.63013	713.19000	 19.60	
 11.894	 49.133	 23.98045	 15.65741	  3.18978	 16.93344	  2.05633	 -0.44223	 25.62670	713.09003	 19.60	
 11.902	 40.852	 23.99879	 16.77331	  2.34667	 15.82982	  2.98471	 -0.35645	 25.64126	713.04999	 19.70	
 11.909	 32.701	 23.99891	 17.68654	  1.69633	 14.60025	  4.00253	 -0.29902	 25.62608	713.12000	 19.70	
 11.889	 24.555	 24.02708	 18.42689	  1.19418	 13.28021	  5.15384	 -0.30244	 25.64738	713.12000	 19.70	
 11.890	 16.390	 24.03193	 18.95116	  0.90095	 11.92486	  6.33446	 -0.31973	 25.63991	713.21997	 19.70	
 11.899	  8.217	 24.03591	 19.27248	  0.73060	 10.50707	  7.64603	 -0.33017	 25.64164	713.07001	 19.70	
 11.900	  0.000	 24.02448	 19.34612	  0.65799	  9.10693	  9.03044	 -0.32214	 25.62658	713.02002	 19.70	
 11.899	 -8.217	 24.03577	 19.18959	  0.81357	  7.76080	 10.37139	 -0.34636	 25.62756	713.04999	 19.70	
 11.890	-16.390	 24.03245	 18.80363	  1.14017	  6.48050	 11.79006	 -0.39000	 25.62804	713.03998	 19.70	
 11.889	-24.555	 24.01877	 18.21728	  1.60900	  5.27889	 13.19153	 -0.46568	 25.62017	713.02002	 19.70	
 11.909	-32.701	 24.03711	 17.45826	  2.18801	  4.23013	 14.47852	 -0.51188	 25.63520	713.04999	 19.80	
 11.902	-40.852	 24.02085	 16.48982	  2.85683	  3.26116	 15.67564	 -0.53790	 25.62223	713.15997	 19.80	
 11.894	-49.133	 24.02322	 15.35021	  3.75816	  2.42424	 16.77196	 -0.53564	 25.62708	713.16998	 19.80	
 11.897	-57.268	 24.01768	 14.09462	  4.74883	  1.73264	 17.68186	 -0.54821	 25.61882	713.07001	 19.80	
 11.903	-65.403	 24.02287	 12.76526	  5.86254	  1.23554	 18.38536	 -0.59053	 25.63312	713.08002	 19.80	
 11.893	-73.654	 24.01373	 11.36189	  7.09778	  0.94980	 18.88668	 -0.60349	 25.62354	713.06000	 19.80	
 11.892	-81.845	 24.01962	  9.95831	  8.40823	  0.72572	 19.17918	 -0.60371	 25.63097	713.12000	 19.80	
 11.900	-90.000	 24.00063	  8.60841	  9.72919	  0.67314	 19.24280	 -0.58949	 25.62981	713.06000	 19.80	
 11.892	-98.155	 24.00344	  7.29661	 11.08424	  0.67550	 19.09288	 -0.57711	 25.63582	713.10999	 19.80	
 11.893	-106.346	 24.00128	  6.01004	 12.49138	  0.92324	 18.72279	 -0.58805	 25.64440	713.12000	 19.80	
 11.903	-114.597	 23.95904	  4.79034	 13.84143	  1.31165	 18.12362	 -0.60717	 25.61679	713.10999	 19.90	
 11.897	-122.732	 23.95754	  3.71981	 15.12090	  1.84899	 17.36180	 -0.61857	 25.63353	713.06000	 19.90	
 11.894	-130.867	 23.95849	  2.76249	 16.29587	  2.59524	 16.38756	 -0.60436	 25.63156	713.10999	 19.90	
 11.902	-139.148	 23.96733	  1.90989	 17.37275	  3.50071	 15.24479	 -0.58527	 25.64420	713.09998	 19.90	
 11.909	-147.299	 23.95380	  1.24643	 18.23157	  4.46732	 13.98666	 -0.58881	 25.63758	713.12000	 19.90	
 11.889	-155.445	 23.95766	  0.78091	 18.89680	  5.53454	 12.69021	 -0.61664	 25.63976	713.02002	 19.90	
 11.890	-163.610	 23.94274	  0.44982	 19.35687	  6.72356	 11.32450	 -0.63557	 25.63920	713.15997	 19.90	
 11.899	-171.783	 23.92762	  0.17184	 19.66998	  8.00434	  9.92242	 -0.63249	 25.64769	713.15002	 19.90	
 11.900	180.000	 23.89724	  0.06443	 19.71391	  9.33861	  8.52675	 -0.61571	 25.62538	713.04999	 19.90	
 13.600	180.000	 23.27414	 -1.49583	 20.69338	  8.84176	  7.98527	 -0.80167	 25.62706	713.01001	 19.90	
 13.608	-172.853	 23.29801	 -1.42345	 20.65994	  7.52765	  9.35031	 -0.80832	 25.62957	713.12000	 19.90	
 13.611	-165.583	 23.29961	 -1.21304	 20.40644	  6.19668	 10.79222	 -0.79551	 25.62671	713.09003	 19.90	
 13.601	-158.353	 23.33749	 -0.87321	 19.99954	  4.98376	 12.18047	 -0.76971	 25.64696	713.02002	 20.00	
 13.609	-151.210	 23.33692	 -0.47018	 19.38299	  3.89114	 13.50183	 -0.72740	 25.63062	713.06000	 20.00	
 13.611	-143.999	 23.33775	  0.08559	 18.61407	  2.86599	 14.83028	 -0.69903	 25.63074	713.16998	 20.00	
 13.601	-136.825	 23.34942	  0.79440	 17.65251	  1.91193	 16.05370	 -0.70888	 25.62562	713.01001	 20.00	
 13.596	-129.640	 23.34077	  1.62330	 16.56710	  1.07827	 17.16042	 -0.70968	 25.61832	713.03998	 20.00	
 13.611	-122.431	 23.35764	  2.59597	 15.36669	  0.39612	 18.12040	 -0.70926	 25.63300	713.03003	 20.00	
 13.604	-115.211	 23.35335	  3.68417	 14.04132	 -0.12021	 18.91666	 -0.69722	 25.62006	713.07001	 20.00	
 13.595	-108.042	 23.36460	  4.84103	 12.70143	 -0.50750	 19.53053	 -0.67221	 25.61969	713.01001	 20.00	
 13.607	-100.793	 23.37317	  6.08968	 11.33476	 -0.73893	 19.97711	 -0.65467	 25.62571	713.06000	 20.00	
 13.601	-93.617	 23.38499	  7.41724	  9.93799	 -0.92141	 20.23476	 -0.66757	 25.63110	712.98999	 20.00	
 13.601	-86.383	 23.39382	  8.77645	  8.57699	 -0.98406	 20.28419	 -0.69689	 25.63706	713.12000	 20.10	
 13.607	-79.207	 23.40038	 10.15850	  7.23185	 -0.83559	 20.12436	 -0.70229	 25.62572	713.09003	 20.10	
 13.595	-71.958	 23.41479	 11.57471	  5.95387	 -0.59005	 19.77461	 -0.72079	 25.62422	713.12000	 20.10	
 13.604	-64.789	 23.41469	 12.96753	  4.82020	 -0.21590	 19.22467	 -0.70111	 25.62825	713.06000	 20.10	
 13.611	-57.569	 23.41504	 14.32193	  3.70762	  0.29711	 18.48911	 -0.69880	 25.62114	713.06000	 20.10	
 13.596	-50.360	 23.40786	 15.59885	  2.71071	  0.93260	 17.59029	 -0.70487	 25.62658	712.98999	 20.10	
 13.601	-43.175	 23.42189	 16.76719	  1.83415	  1.69493	 16.55058	 -0.71837	 25.63261	713.01001	 20.10	
 13.611	-36.001	 23.42138	 17.78740	  1.06157	  2.60929	 15.36704	 -0.71200	 25.62159	712.94000	 20.10	
 13.609	-28.790	 23.42067	 18.66894	  0.49430	  3.63275	 14.07315	 -0.69627	 25.62034	713.07001	 20.10	
 13.601	-21.647	 23.41600	 19.35574	 -0.01874	  4.70160	 12.74908	 -0.65265	 25.61728	713.06000	 20.10	
 13.611	-14.417	 23.41432	 19.90606	 -0.42150	  5.92387	 11.33636	 -0.59768	 25.62429	713.04999	 20.10	
 13.608	 -7.147	 23.42774	 20.24478	 -0.68738	  7.25181	  9.88594	 -0.57203	 25.63907	713.09003	 20.10	
 13.600	  0.000	 23.42044	 20.37627	 -0.83776	  8.59164	  8.50453	 -0.55251	 25.63154	713.03003	 20.20	
 13.608	  7.147	 23.42334	 20.33273	 -0.80685	  9.95116	  7.16024	 -0.56255	 25.63449	712.98999	 20.20	
 13.611	 14.417	 23.41291	 20.03955	 -0.65715	 11.39075	  5.81222	 -0.55263	 25.62468	713.02002	 20.20	
 13.601	 21.647	 23.41899	 19.56259	 -0.36890	 12.78626	  4.60210	 -0.52915	 25.63621	713.08002	 20.20	
 13.609	 28.790	 23.38894	 18.89691	 -0.03858	 14.12521	  3.44450	 -0.51921	 25.62162	713.09998	 20.20	
 13.611	 36.001	 23.38750	 18.06210	  0.52614	 15.43683	  2.36948	 -0.54524	 25.62555	712.97998	 20.20	
 13.601	 43.175	 23.40117	 17.11593	  1.23764	 16.63919	  1.43705	 -0.61040	 25.63686	713.02002	 20.20	
 13.596	 50.360	 23.38099	 15.96547	  2.07300	 17.70228	  0.59683	 -0.68701	 25.62145	712.98999	 20.20	
 13.611	 57.569	 23.38022	 14.72251	  3.02405	 18.64890	 -0.13977	 -0.72624	 25.64284	712.98999	 20.20	
 13.604	 64.789	 23.37210	 13.38319	  4.07734	 19.42329	 -0.67879	 -0.74936	 25.63673	713.08002	 20.20	
 13.595	 71.958	 23.36584	 11.99227	  5.21995	 20.00541	 -1.05903	 -0.77392	 25.62303	713.03003	 20.20	
 13.607	 79.207	 23.36674	 10.56509	  6.47298	 20.42985	 -1.32461	 -0.77231	 25.63762	713.09003	 20.20	
 13.601	 86.383	 23.33301	  9.17321	  7.77579	 20.63421	 -1.53170	 -0.77277	 25.61953	713.03003	 20.30	
 13.601	 93.617	 23.32804	  7.78194	  9.13400	 20.67089	 -1.56588	 -0.80543	 25.63023	713.01001	 20.30	
 13.607	100.793	 23.30328	  6.41227	 10.52817	 20.48689	 -1.44195	 -0.84060	 25.62158	712.96997	 20.30	
 13.595	108.042	 23.30221	  5.13939	 11.93158	 20.10881	 -1.16029	 -0.84269	 25.63470	712.89001	 20.30	
 13.604	115.211	 23.27826	  3.96221	 13.28209	 19.53636	 -0.79623	 -0.83359	 25.61496	712.96997	 20.30	
 13.611	122.431	 23.27704	  2.87088	 14.61243	 18.79834	 -0.29290	 -0.83685	 25.63142	712.97998	 20.30	
 13.596	129.640	 23.26030	  1.87966	 15.87059	 17.87181	  0.37729	 -0.83968	 25.62216	712.98999	 20.30	
 13.601	136.825	 23.25809	  0.99260	 17.02472	 16.84359	  1.13036	 -0.85389	 25.62579	713.06000	 20.30	
 13.611	143.999	 23.24794	  0.23513	 18.03811	 15.68662	  1.99293	 -0.86686	 25.63054	712.90002	 20.30	
 13.609	151.210	 23.24792	 -0.38087	 18.93657	 14.39476	  3.02371	 -0.84400	 25.63108	712.95001	 20.30	
 13.601	158.353	 23.25120	 -0.85714	 19.65071	 13.02694	  4.14424	 -0.80099	 25.63353	713.08002	 20.30	
 13.611	165.583	 23.23909	 -1.20703	 20.18690	 11.62564	  5.31839	 -0.78344	 25.62286	713.08002	 20.30	
 13.608	172.853	 23.26376	 -1.38546	 20.54145	 10.21642	  6.61610	 -0.77285	 25.62767	713.01001	 20.40	
 15.298	173.587	 22.55583	 -2.87213	 21.42565	  9.66284	  6.02559	 -0.94026	 25.61788	713.03998	 20.40	
 15.291	167.167	 22.54630	 -2.70361	 21.12040	 11.08065	  4.76119	 -0.95648	 25.63190	712.96997	 20.40	
 15.307	160.676	 22.52071	 -2.45264	 20.64074	 12.47188	  3.54991	 -0.98911	 25.62255	712.96997	 20.40	
 15.300	154.261	 22.53371	 -2.05208	 19.99764	 13.87243	  2.41336	 -1.03775	 25.64322	712.98999	 20.40	
 15.288	147.854	 22.53191	 -1.50781	 19.16967	 15.19705	  1.37464	 -1.08230	 25.63025	713.08002	 20.40	
 15.293	141.428	 22.53153	 -0.83429	 18.21838	 16.42127	  0.46095	 -1.08489	 25.61081	713.04999	 20.40	
 15.299	134.985	 22.55694	 -0.04762	 17.15106	 17.59791	 -0.36797	 -1.07431	 25.63021	712.97998	 20.40	
 15.305	128.583	 22.55425	  0.80794	 15.98798	 18.61753	 -1.08676	 -1.07290	 25.61620	712.96997	 20.40	
 15.309	122.142	 22.56703	  1.75698	 14.72676	 19.53145	 -1.71029	 -1.07180	 25.63779	713.01001	 20.40	
 15.304	115.711	 22.58518	  2.85085	 13.37786	 20.26276	 -2.16959	 -1.08512	 25.62924	713.07001	 20.40	
 15.297	109.291	 22.61975	  4.02182	 12.01638	 20.85190	 -2.49346	 -1.10694	 25.64727	713.03998	 20.40	
 15.293	102.897	 22.62427	  5.23850	 10.65952	 21.26043	 -2.80360	 -1.10208	 25.63586	712.92999	 20.40	
 15.293	 96.458	 22.63605	  6.57340	  9.24029	 21.50132	 -2.96326	 -1.06407	 25.61992	712.94000	 20.50	
 15.300	 90.000	 22.64814	  7.94890	  7.87133	 21.58142	 -3.00153	 -1.04669	 25.62629	713.03003	 20.50	
 15.293	 83.542	 22.66944	  9.34656	  6.54721	 21.46315	 -2.92465	 -1.04387	 25.62512	713.06000	 20.50	
 15.293	 77.103	 22.70376	 10.76425	  5.26862	 21.18985	 -2.67183	 -1.04852	 25.64663	713.12000	 20.50	
 15.297	 70.709	 22.68741	 12.16017	  4.06908	 20.73461	 -2.40489	 -1.03888	 25.62113	713.03003	 20.50	
 15.304	 64.289	 22.68635	 13.54888	  2.93822	 20.11398	 -2.03588	 -1.01157	 25.62943	713.03998	 20.50	
 15.309	 57.858	 22.67892	 14.89704	  1.87627	 19.34205	 -1.54209	 -1.00241	 25.62521	713.04999	 20.50	
 15.305	 51.417	 22.68146	 16.16926	  0.91651	 18.41268	 -0.84703	 -0.94946	 25.61945	713.15997	 20.50	
 15.299	 45.015	 22.69498	 17.33572	  0.09471	 17.35047	 -0.07884	 -0.88615	 25.62355	713.06000	 20.50	
 15.293	 38.572	 22.70801	 18.36473	 -0.59616	 16.17307	  0.82215	 -0.81092	 25.62262	713.03003	 20.50	
 15.288	 32.146	 22.70814	 19.26952	 -1.21020	 14.92063	  1.79277	 -0.77273	 25.62540	713.13000	 20.50	
 15.300	 25.739	 22.72117	 20.00172	 -1.57373	 13.61021	  2.86257	 -0.76181	 25.63177	713.09003	 20.50	
 15.307	 19.324	 22.72631	 20.59591	 -1.91512	 12.21907	  4.04921	 -0.77558	 25.63212	713.04999	 20.50	
 15.291	 12.833	 22.73881	 21.01857	 -2.12077	 10.83808	  5.29512	 -0.79304	 25.63440	712.96997	 20.60	
 15.298	  6.413	 22.72580	 21.27121	 -2.28517	  9.42106	  6.62019	 -0.78335	 25.61614	712.92999	 20.60	
 15.300	  0.000	 22.74647	 21.33101	 -2.24489	  8.02932	  7.96401	 -0.75934	 25.62794	713.04999	 20.60	
 15.298	 -6.413	 22.71778	 21.17866	 -2.13884	  6.70370	  9.35021	 -0.75106	 25.60542	712.97998	 20.60	
 15.291	-12.833	 22.72900	 20.87728	 -1.89105	  5.38896	 10.79203	 -0.76747	 25.61739	712.92999	 20.60	
 15.307	-19.324	 22.73498	 20.40984	 -1.56599	  4.13818	 12.22812	 -0.80551	 25.62510	713.00000	 20.60	
 15.300	-25.739	 22.73244	 19.77388	 -1.10277	  3.03662	 13.58336	 -0.82437	 25.62622	713.04999	 20.60	
 15.288	-32.146	 22.72848	 18.96817	 -0.61686	  1.99168	 14.89672	 -0.82700	 25.61828	713.09003	 20.60	
 15.293	-38.572	 22.72423	 18.02514	  0.01785	  1.02441	 16.15891	 -0.82376	 25.62172	713.04999	 20.60	
 15.299	-45.015	 22.72370	 16.94642	  0.78463	  0.16612	 17.29896	 -0.78839	 25.61970	712.96002	 20.60	
 15.305	-51.417	 22.72093	 15.76301	  1.67264	 -0.54564	 18.32797	 -0.75636	 25.62162	713.01001	 20.60	
 15.309	-57.858	 22.70139	 14.46912	  2.63578	 -1.16673	 19.22153	 -0.74605	 25.60867	713.03998	 20.60	
 15.304	-64.289	 22.71581	 13.13421	  3.65024	 -1.58848	 19.96324	 -0.72607	 25.61512	712.88000	 20.60	
 15.297	-70.709	 22.70557	 11.73365	  4.80749	 -1.94661	 20.52643	 -0.72102	 25.60403	712.95001	 20.60	
 15.293	-77.103	 22.70221	 10.32569	  6.03214	 -2.22335	 20.93525	 -0.69849	 25.61584	712.96002	 20.60	
 15.293	-83.542	 22.68295	  8.87264	  7.32341	 -2.40422	 21.14931	 -0.67749	 25.61380	713.04999	 20.60	
 15.300	-90.000	 22.68092	  7.51526	  8.67398	 -2.47515	 21.20815	 -0.66899	 25.62209	712.92999	 20.70	
 15.293	-96.458	 22.68047	  6.16552	 10.05858	 -2.39331	 21.06946	 -0.64666	 25.62936	712.98999	 20.70	
 15.293	-102.897	 22.66650	  4.84468	 11.45010	 -2.21023	 20.75402	 -0.64666	 25.62564	713.01001	 20.70	
 15.297	-109.291	 22.67205	  3.63860	 12.83555	 -1.87589	 20.28299	 -0.65607	 25.62647	712.97998	 20.70	
 15.304	-115.711	 22.65412	  2.48346	 14.18367	 -1.48642	 19.61623	 -0.66819	 25.61689	712.96002	 20.70	
 15.309	-122.142	 22.64947	  1.40800	 15.49916	 -0.99179	 18.80634	 -0.68394	 25.62632	712.98999	 20.70	
 15.305	-128.583	 22.63606	  0.45057	 16.72385	 -0.36134	 17.82593	 -0.69827	 25.60344	713.03003	 20.70	
 15.299	-134.985	 22.63492	 -0.35864	 17.83507	  0.37082	 16.77022	 -0.68955	 25.61231	713.03003	 20.70	
 15.293	-141.428	 22.63595	 -1.07075	 18.84511	  1.24435	 15.57484	 -0.69986	 25.61678	712.96002	 20.70	
 15.288	-147.854	 22.63281	 -1.66023	 19.71082	  2.24118	 14.26895	 -0.73440	 25.60704	713.00000	 20.70	
 15.300	-154.261	 22.62291	 -2.11782	 20.42754	  3.30850	 12.91877	 -0.78083	 25.61132	713.08002	 20.70	
 15.307	-160.676	 22.61254	 -2.46706	 20.96369	  4.41251	 11.55996	 -0.82231	 25.60476	712.97998	 20.70	
 15.291	-167.167	 22.60097	 -2.76514	 21.31867	  5.67512	 10.16572	 -0.87210	 25.61499	712.98999	 20.70	
 15.298	-173.587	 22.58098	 -2.93775	 21.53731	  6.97694	  8.74670	 -0.89672	 25.60380	713.02002	 20.70	
 15.300	180.000	 22.56709	 -2.98845	 21.56670	  8.30606	  7.38477	 -0.90068	 25.60994	712.94000	 20.70	
 17.000	180.000	 21.76179	 -4.41319	 22.37617	  7.70632	  6.73764	 -0.97648	 25.60882	713.09003	 20.70	
 16.990	-174.179	 21.78503	 -4.38236	 22.35011	  6.40241	  8.09245	 -0.95076	 25.60214	712.96002	 20.80	
 17.009	-168.383	 21.80906	 -4.24376	 22.17220	  5.10599	  9.49616	 -0.91093	 25.60803	713.06000	 20.80	
 17.000	-162.596	 21.83925	 -3.97308	 21.84480	  3.86118	 10.88068	 -0.85988	 25.61026	713.06000	 20.80	
 16.990	-156.759	 21.84834	 -3.65025	 21.34540	  2.72926	 12.26751	 -0.79160	 25.60375	712.94000	 20.80	
 16.995	-150.919	 21.84526	 -3.28231	 20.70792	  1.59124	 13.64614	 -0.73177	 25.60918	713.01001	 20.80	
 16.988	-145.161	 21.85536	 -2.80552	 19.91767	  0.57869	 14.97310	 -0.69378	 25.60840	713.01001	 20.80	
 17.014	-139.343	 21.85342	 -2.16486	 18.98002	 -0.32992	 16.22379	 -0.67617	 25.60741	713.03998	 20.80	
 17.007	-133.546	 21.86008	 -1.42113	 17.90411	 -1.10557	 17.39717	 -0.65784	 25.59615	713.03998	 20.80	
 17.001	-127.699	 21.87259	 -0.61037	 16.74162	 -1.80412	 18.49034	 -0.64563	 25.61141	713.07001	 20.80	
 17.006	-121.937	 21.86603	  0.27760	 15.51701	 -2.37439	 19.43356	 -0.62100	 25.61475	713.09003	 20.80	
 17.002	-116.134	 21.86456	  1.28741	 14.20791	 -2.83874	 20.24418	 -0.60431	 25.60678	712.98999	 20.80	
 17.001	-110.310	 21.88192	  2.39581	 12.86376	 -3.19059	 20.90466	 -0.60306	 25.61234	712.97998	 20.80	
 16.988	-104.517	 21.89298	  3.60934	 11.49798	 -3.52089	 21.41550	 -0.59882	 25.61748	713.06000	 20.80	
 17.008	-98.662	 21.89163	  4.89525	 10.09941	 -3.76374	 21.79509	 -0.58931	 25.61667	712.94000	 20.80	
 16.996	-92.909	 21.89437	  6.18944	  8.73572	 -3.85590	 21.98118	 -0.60183	 25.60808	712.91998	 20.90	
 16.996	-87.091	 21.91175	  7.54995	  7.40483	 -3.86515	 22.03662	 -0.60304	 25.61155	713.02002	 20.90	
 17.012	-81.253	 21.89954	  8.96180	  6.07959	 -3.74434	 21.92006	 -0.63723	 25.60069	713.03998	 20.90	
 16.988	-75.483	 21.93280	 10.41011	  4.86702	 -3.54555	 21.64694	 -0.64713	 25.60988	713.03998	 20.90	
 17.001	-69.690	 21.92338	 11.80737	  3.67585	 -3.30538	 21.22361	 -0.67771	 25.61530	713.08002	 20.90	
 17.002	-63.866	 21.90562	 13.18707	  2.51717	 -2.95052	 20.62233	 -0.70634	 25.60166	713.02002	 20.90	
 17.006	-58.063	 21.91693	 14.55830	  1.46888	 -2.48142	 19.88548	 -0.72648	 25.60813	713.16998	 20.90	
 17.001	-52.301	 21.91849	 15.83843	  0.57308	 -1.90562	 19.00241	 -0.75826	 25.60543	713.10999	 20.90	
 17.007	-46.454	 21.94698	 17.06941	 -0.27620	 -1.23185	 17.99596	 -0.79814	 25.62550	713.08002	 20.90	
 17.014	-40.657	 21.93638	 18.17963	 -1.06927	 -0.46737	 16.86485	 -0.84432	 25.61430	713.04999	 20.90	
 16.988	-34.839	 21.93632	 19.15911	 -1.68577	  0.39493	 15.64605	 -0.88379	 25.61020	713.04999	 20.90	
 16.995	-29.081	 21.94811	 20.03018	 -2.21322	  1.32168	 14.41259	 -0.90112	 25.61417	713.02002	 20.90	
 16.990	-23.241	 21.95027	 20.74629	 -2.62021	  2.42806	 13.05530	 -0.91436	 25.60718	713.03003	 20.90	
 17.000	-17.404	 21.94706	 21.33928	 -3.03214	  3.56536	 11.66400	 -0.92468	 25.61398	712.84003	 20.90	
 17.009	-11.617	 21.95438	 21.77349	 -3.33014	  4.81078	 10.23994	 -0.92507	 25.61942	712.85999	 20.90	
 16.990	 -5.821	 21.95625	 22.03357	 -3.52121	  6.09169	  8.79261	 -0.92931	 25.60437	712.90002	 20.90	
 17.000	  0.000	 21.94976	 22.16346	 -3.64505	  7.39181	  7.39827	 -0.97568	 25.60391	712.92999	 20.90	
 16.990	  5.821	 21.95996	 22.11955	 -3.66048	  8.80498	  6.02157	 -0.98962	 25.60619	712.90997	 21.00	
 17.009	 11.617	 21.96116	 21.91670	 -3.59383	 10.15954	  4.68553	 -1.02565	 25.62233	712.90997	 21.00	
 17.000	 17.404	 21.95483	 21.51676	 -3.36903	 11.54590	  3.45541	 -1.01732	 25.61428	712.95001	 21.00	
 16.990	 23.241	 21.94806	 20.99652	 -3.09151	 12.96115	  2.26609	 -1.02051	 25.61559	712.94000	 21.00	
 16.995	 29.081	 21.94875	 20.33019	 -2.74250	 14.32864	  1.16047	 -1.02583	 25.63004	712.90997	 21.00	
 16.988	 34.839	 21.93155	 19.51776	 -2.36595	 15.55180	  0.21393	 -1.06631	 25.60971	712.90997	 21.00	
 17.014	 40.657	 21.91249	 18.56377	 -1.76499	 16.80631	 -0.70155	 -1.11709	 25.59985	712.96002	 21.00	
 17.007	 46.454	 21.90858	 17.45031	 -1.03084	 17.97534	 -1.53506	 -1.15858	 25.61354	712.83002	 21.00	
 17.001	 52.301	 21.90778	 16.24951	 -0.20390	 19.02774	 -2.25853	 -1.21866	 25.61601	712.90002	 21.00	
 17.006	 58.063	 21.92047	 15.01955	  0.71032	 19.93263	 -2.82588	 -1.27158	 25.61696	713.00000	 21.00	
 17.002	 63.866	 21.92142	 13.67007	  1.76043	 20.71831	 -3.31333	 -1.28906	 25.61612	712.96997	 21.00	
 17.001	 69.690	 21.91684	 12.26967	  2.87315	 21.36480	 -3.71856	 -1.29218	 25.61635	712.95001	 21.00	
 16.988	 75.483	 21.89476	 10.86539	  4.04354	 21.84419	 -3.99954	 -1.30297	 25.59661	712.94000	 21.00	
 17.012	 81.253	 21.87530	  9.44597	  5.22594	 22.19344	 -4.27672	 -1.31019	 25.61240	712.96997	 21.00	
 16.996	 87.091	 21.86709	  8.04522	  6.57031	 22.36448	 -4.38959	 -1.29317	 25.61261	712.91998	 21.00	
 16.996	 92.909	 21.86334	  6.68188	  7.87039	 22.39888	 -4.41543	 -1.31099	 25.61497	713.02002	 21.00	
 17.008	 98.662	 21.83574	  5.36152	  9.22042	 22.26634	 -4.34348	 -1.33044	 25.61791	712.95001	 21.00	
 16.988	104.517	 21.82734	  4.07325	 10.62896	 21.94900	 -4.10979	 -1.34395	 25.61123	712.98999	 21.10	
 17.001	110.310	 21.80528	  2.86323	 12.01344	 21.49469	 -3.84994	 -1.32863	 25.60806	712.88000	 21.10	
 17.002	116.134	 21.79212	  1.71487	 13.39697	 20.88742	 -3.48544	 -1.29463	 25.61175	712.95001	 21.10	
 17.006	121.937	 21.77187	  0.65336	 14.73832	 20.14183	 -3.05258	 -1.27158	 25.61269	712.90997	 21.10	
 17.001	127.699	 21.76298	 -0.29426	 16.00269	 19.28500	 -2.50590	 -1.28183	 25.62421	712.96002	 21.10	
 17.007	133.546	 21.74249	 -1.14459	 17.19586	 18.26562	 -1.84049	 -1.27412	 25.61355	712.96002	 21.10	
 17.014	139.343	 21.72758	 -1.89840	 18.31483	 17.13644	 -1.08143	 -1.27592	 25.60151	712.90002	 21.10	
 16.988	145.161	 21.73324	 -2.54359	 19.30012	 15.91143	 -0.20253	 -1.25788	 25.61095	712.98999	 21.10	
 16.995	150.919	 21.71872	 -3.11230	 20.15210	 14.65446	  0.71399	 -1.23298	 25.60876	712.94000	 21.10	
 16.990	156.759	 21.72084	 -3.55683	 20.90524	 13.27426	  1.79242	 -1.15346	 25.60275	712.90997	 21.10	
 17.000	162.596	 21.73407	 -3.90381	 21.52079	 11.86527	  2.94444	 -1.11630	 25.60945	712.85999	 21.10	
 17.009	168.383	 21.73238	 -4.13046	 21.94630	 10.49619	  4.10837	 -1.06001	 25.59880	712.95001	 21.10	
 16.990	174.179	 21.76690	 -4.27524	 22.23768	  9.09890	  5.38820	 -1.00406	 25.60720	712.95001	 21.10	
 18.709	174.675	 20.87315	 -5.69570	 22.98178	  8.45131	  4.70932	 -1.03947	 25.60201	712.91998	 21.10	
 18.703	169.441	 20.86101	 -5.49618	 22.71517	  9.82584	  3.46423	 -1.11869	 25.60649	712.90997	 21.10	
 18.691	164.085	 20.84862	 -5.27871	 22.29514	 11.21812	  2.27583	 -1.19335	 25.60392	713.00000	 21.10	
 18.706	158.818	 20.82705	 -4.99774	 21.74212	 12.59786	  1.13345	 -1.26166	 25.58843	712.90002	 21.10	
 18.695	153.537	 20.83713	 -4.60988	 21.06452	 13.97713	  0.09233	 -1.32338	 25.61115	712.91998	 21.10	
 18.704	148.255	 20.84585	 -4.13383	 20.29170	 15.28760	 -0.85793	 -1.36900	 25.60650	712.91998	 21.10	
 18.698	142.952	 20.85857	 -3.56972	 19.36063	 16.55845	 -1.73143	 -1.40317	 25.61201	713.04999	 21.20	
 18.699	137.625	 20.84487	 -2.92339	 18.30462	 17.75298	 -2.51986	 -1.42594	 25.59318	713.00000	 21.20	
 18.705	132.343	 20.87999	 -2.22270	 17.18649	 18.82925	 -3.10359	 -1.62639	 25.64559	712.87000	 21.20	
 18.713	127.067	 20.89533	 -1.36673	 15.95803	 19.82396	 -3.76269	 -1.64806	 25.65407	712.78003	 21.20	
 18.700	121.794	 20.91657	 -0.45258	 14.68156	 20.68783	 -4.25945	 -1.66940	 25.64957	712.85999	 21.20	
 18.698	116.504	 20.92407	  0.54040	 13.34665	 21.42371	 -4.68326	 -1.69305	 25.63961	712.76001	 21.20	
 18.707	111.165	 20.93755	  1.62617	 11.97769	 22.06673	 -5.04495	 -1.72198	 25.65416	712.90002	 21.20	
 18.690	105.863	 20.94915	  2.80880	 10.58354	 22.52628	 -5.29054	 -1.75455	 25.63327	712.90002	 21.20	
 18.696	100.583	 20.97037	  4.05945	  9.19425	 22.87561	 -5.52525	 -1.75495	 25.64668	712.85999	 21.20	
 18.700	 95.309	 20.97929	  5.36007	  7.81524	 23.06579	 -5.65260	 -1.73882	 25.63970	713.01001	 21.20	
 18.700	 90.000	 21.01036	  6.69571	  6.48675	 23.12398	 -5.67812	 -1.73927	 25.64478	712.96997	 21.20	
 18.700	 84.691	 21.01632	  8.05146	  5.17805	 23.02537	 -5.62592	 -1.75339	 25.64920	712.90997	 21.20	
 18.696	 79.417	 21.01766	  9.44387	  3.92884	 22.78378	 -5.43869	 -1.74758	 25.63691	712.88000	 21.20	
 18.690	 74.137	 21.04111	 10.83249	  2.77127	 22.40668	 -5.19375	 -1.74090	 25.63759	713.02002	 21.20	
 18.707	 68.835	 21.05133	 12.24009	  1.61673	 21.88721	 -4.88199	 -1.74176	 25.63907	712.97998	 21.20	
 18.698	 63.496	 21.07566	 13.65260	  0.54761	 21.23403	 -4.47547	 -1.72677	 25.65406	712.87000	 21.30	
 18.700	 58.206	 21.07345	 14.98889	 -0.44285	 20.42270	 -3.98246	 -1.71431	 25.64553	712.85999	 21.30	
 18.713	 52.933	 21.08347	 16.28032	 -1.34049	 19.51620	 -3.40111	 -1.65778	 25.66090	712.90002	 21.30	
 18.705	 47.657	 21.06178	 17.45812	 -2.14176	 18.49491	 -2.78260	 -1.62157	 25.63807	712.92999	 21.30	
 18.699	 42.375	 21.06351	 18.56971	 -2.82503	 17.36743	 -2.03982	 -1.56606	 25.64270	712.90997	 21.30	
 18.698	 37.048	 21.07213	 19.58363	 -3.43811	 16.16068	 -1.20681	 -1.50785	 25.64599	712.83002	 21.30	
 18.704	 31.745	 21.07539	 20.46171	 -3.90775	 14.89491	 -0.28845	 -1.45719	 25.63774	712.89001	 21.30	
 18.695	 26.463	 21.08240	 21.21833	 -4.24641	 13.61873	  0.68507	 -1.44454	 25.63543	713.02002	 21.30	
 18.706	 21.182	 21.08607	 21.85565	 -4.56099	 12.24806	  1.78313	 -1.42003	 25.64707	712.82001	 21.30	
 18.691	 15.915	 21.10145	 22.32136	 -4.79364	 10.84624	  2.95791	 -1.39951	 25.64292	712.94000	 21.30	
 18.703	 10.559	 21.08340	 22.67570	 -5.00005	  9.44110	  4.19041	 -1.36592	 25.63913	712.90997	 21.30	
 18.709	  5.325	 21.08436	 22.86999	 -5.06867	  8.08865	  5.50522	 -1.33549	 25.65102	712.97998	 21.30	
 18.700	  0.000	 21.09586	 22.91420	 -5.00621	  6.72945	  6.89265	 -1.27875	 25.65367	712.92999	 21.30	
 18.709	 -5.325	 21.07710	 22.79245	 -4.91835	  5.43431	  8.27731	 -1.22384	 25.63721	712.96002	 21.30	
 18.703	-10.559	 21.08437	 22.54383	 -4.72874	  4.18866	  9.67869	 -1.17922	 25.64648	712.84003	 21.30	
 18.691	-15.915	 21.08466	 22.13332	 -4.45914	  2.92639	 11.12486	 -1.15211	 25.64456	712.78998	 21.30	
 18.706	-21.182	 21.08425	 21.60644	 -4.10432	  1.80197	 12.48961	 -1.12565	 25.63456	712.84003	 21.30	
 18.695	-26.463	 21.09571	 20.93902	 -3.73789	  0.76528	 13.87058	 -1.08815	 25.64729	712.82001	 21.30	
 18.704	-31.745	 21.07261	 20.14130	 -3.30809	 -0.21781	 15.18245	 -1.03958	 25.63768	712.82001	 21.30	
 18.698	-37.048	 21.07069	 19.23230	 -2.74481	 -1.08969	 16.41888	 -0.99700	 25.63500	712.84998	 21.40	
 18.699	-42.375	 21.06141	 18.17944	 -2.12287	 -1.91416	 17.61607	 -0.97062	 25.63069	712.92999	 21.40	
 18.705	-47.657	 21.05544	 17.03872	 -1.36361	 -2.64487	 18.71612	 -0.94240	 25.63742	712.92999	 21.40	
 18.713	-52.933	 21.05154	 15.81638	 -0.57823	 -3.29522	 19.71134	 -0.88203	 25.65082	712.91998	 21.40	
 18.700	-58.206	 21.05647	 14.53375	  0.34997	 -3.79727	 20.52066	 -0.85799	 25.64219	712.83002	 21.40	
 18.698	-63.496	 21.05279	 13.18133	  1.35232	 -4.23425	 21.25809	 -0.82634	 25.62807	712.95001	 21.40	
 18.707	-68.835	 21.05463	 11.77335	  2.48269	 -4.60214	 21.89226	 -0.78219	 25.65054	712.90997	 21.40	
 18.690	-74.137	 21.04245	 10.36565	  3.61990	 -4.86858	 22.34811	 -0.74423	 25.63318	712.94000	 21.40	
 18.696	-79.417	 21.04236	  8.96527	  4.81733	 -5.06817	 22.66791	 -0.72995	 25.63552	712.91998	 21.40	
 18.700	-84.691	 21.03078	  7.54067	  6.08498	 -5.20854	 22.84754	 -0.70214	 25.64339	712.92999	 21.40	
 18.700	-90.000	 21.02525	  6.16239	  7.37278	 -5.24050	 22.87639	 -0.69589	 25.64605	712.91998	 21.40	
 18.700	-95.309	 20.99919	  4.82332	  8.68419	 -5.20796	 22.74991	 -0.69053	 25.62288	712.95001	 21.40	
 18.696	-100.583	 21.00104	  3.54568	 10.06051	 -5.09064	 22.49641	 -0.68183	 25.63976	713.04999	 21.40	
 18.690	-105.863	 21.01643	  2.35437	 11.45099	 -4.79609	 22.08787	 -0.68604	 25.64014	712.96997	 21.40	
 18.707	-111.165	 21.00390	  1.20483	 12.82085	 -4.51837	 21.54869	 -0.69463	 25.63824	713.00000	 21.40	
 18.698	-116.504	 20.97865	  0.11934	 14.19195	 -4.14443	 20.82905	 -0.69817	 25.61693	712.96002	 21.40	
 18.700	-121.794	 20.99995	 -0.84706	 15.50317	 -3.69427	 20.03073	 -0.70773	 25.64432	713.02002	 21.40	
 18.713	-127.067	 20.97690	 -1.73430	 16.72221	 -3.19964	 19.10904	 -0.72443	 25.63166	712.96997	 21.40	
 18.705	-132.343	 20.99885	 -2.49787	 17.88504	 -2.55399	 18.05739	 -0.75587	 25.63366	713.07001	 21.40	
 18.699	-137.625	 20.98214	 -3.20673	 18.95662	 -1.83618	 16.89797	 -0.78626	 25.62460	712.97998	 21.40	
 18.698	-142.952	 20.98262	 -3.82854	 19.93930	 -1.00863	 15.66011	 -0.82144	 25.62482	713.02002	 21.40	
 18.704	-148.255	 20.97934	 -4.37042	 20.81239	 -0.10303	 14.36765	 -0.83293	 25.63133	713.04999	 21.40	
 18.695	-153.537	 20.99461	 -4.81196	 21.57127	  0.92262	 13.00467	 -0.88850	 25.63817	713.00000	 21.50	
 18.706	-158.818	 20.96154	 -5.15805	 22.15939	  2.00556	 11.61716	 -0.93120	 25.63080	713.01001	 21.50	
 18.691	-164.085	 20.94593	 -5.40352	 22.57815	  3.15442	 10.25306	 -0.99432	 25.61554	712.98999	 21.50	
 18.703	-169.441	 20.91480	 -5.66275	 22.89183	  4.47194	  8.82101	 -1.05417	 25.62087	713.00000	 21.50	
 18.709	-174.675	 20.90472	 -5.77802	 23.05789	  5.73842	  7.43743	 -1.08171	 25.63080	713.03998	 21.50	
 18.700	180.000	 20.89072	 -5.78204	 23.06858	  7.05444	  6.11677	 -1.14103	 25.63690	712.97998	 21.50	
 20.400	180.000	 19.92875	 -7.05901	 23.68216	  6.38662	  5.38774	 -1.12630	 25.61466	712.96002	 21.50	
 20.401	-175.153	 19.96382	 -7.03245	 23.69578	  5.07627	  6.68202	 -1.06662	 25.63728	713.02002	 21.50	
 20.407	-170.264	 19.97946	 -6.93562	 23.55554	  3.74271	  8.05294	 -1.01471	 25.63236	713.01001	 21.50	
 20.410	-165.423	 19.98670	 -6.77191	 23.27189	  2.52054	  9.43828	 -0.93545	 25.61458	713.04999	 21.50	
 20.392	-160.496	 20.02766	 -6.54195	 22.88126	  1.38511	 10.83657	 -0.89854	 25.62957	713.09003	 21.50	
 20.401	-155.705	 20.03413	 -6.24152	 22.33545	  0.30228	 12.21453	 -0.85166	 25.64211	713.06000	 21.50	
 20.405	-150.835	 20.04055	 -5.86262	 21.65788	 -0.71545	 13.58960	 -0.82321	 25.63807	713.06000	 21.50	
 20.397	-145.903	 20.04801	 -5.38103	 20.84969	 -1.64384	 14.91771	 -0.78166	 25.62652	713.03998	 21.50	
 20.392	-141.062	 20.04307	 -4.85727	 19.94376	 -2.50023	 16.19571	 -0.73499	 25.61807	713.00000	 21.50	
 20.396	-136.227	 20.04388	 -4.24140	 18.94580	 -3.26801	 17.40749	 -0.72418	 25.63058	713.06000	 21.50	
 20.408	-131.372	 20.05325	 -3.55111	 17.85974	 -3.92302	 18.53782	 -0.69284	 25.63454	713.04999	 21.50	
 20.410	-126.511	 20.05312	 -2.77593	 16.68416	 -4.46913	 19.55280	 -0.66340	 25.63125	713.02002	 21.50	
 20.400	-121.604	 20.05470	 -1.93191	 15.42373	 -4.97657	 20.47991	 -0.66653	 25.62450	712.95001	 21.50	
 20.403	-116.741	 20.04010	 -1.00977	 14.11497	 -5.40691	 21.30079	 -0.64719	 25.61787	712.84003	 21.50	
 20.413	-111.900	 20.03811	  0.01216	 12.77523	 -5.77323	 22.01186	 -0.63503	 25.62509	712.91998	 21.50	
 20.398	-107.004	 20.05161	  1.13812	 11.39762	 -6.06157	 22.59192	 -0.65095	 25.63289	712.84003	 21.50	
 20.394	-102.132	 20.04164	  2.30244	  9.97972	 -6.33997	 23.01941	 -0.64613	 25.61947	712.85999	 21.60	
 20.403	-97.332	 20.05255	  3.51296	  8.64543	 -6.46760	 23.33144	 -0.63799	 25.62653	713.00000	 21.60	
 20.392	-92.440	 20.05811	  4.81588	  7.30721	 -6.50801	 23.49091	 -0.63465	 25.61668	712.94000	 21.60	
 20.392	-87.560	 20.06819	  6.13979	  6.03457	 -6.49014	 23.52811	 -0.65373	 25.62137	712.90997	 21.60	
 20.403	-82.668	 20.07115	  7.51955	  4.73492	 -6.45218	 23.46008	 -0.65619	 25.62992	712.92999	 21.60	
 20.394	-77.868	 20.07126	  8.89216	  3.53365	 -6.32576	 23.24223	 -0.68750	 25.62739	712.87000	 21.60	
 20.398	-72.996	 20.07726	 10.29827	  2.37944	 -6.13234	 22.89433	 -0.68810	 25.62644	712.90997	 21.60	
 20.413	-68.100	 20.07708	 11.69937	  1.27437	 -5.86412	 22.39244	 -0.74154	 25.61857	712.83002	 21.60	
 20.403	-63.259	 20.07660	 13.08720	  0.25711	 -5.50791	 21.76419	 -0.76015	 25.60896	712.84003	 21.60	
 20.400	-58.396	 20.08126	 14.43254	 -0.71387	 -5.08860	 21.02357	 -0.77742	 25.61385	712.95001	 21.60	
 20.410	-53.489	 20.08998	 15.74427	 -1.61313	 -4.59509	 20.20976	 -0.83860	 25.61986	712.83002	 21.60	
 20.408	-48.628	 20.07070	 16.97369	 -2.46228	 -4.01284	 19.23178	 -0.85479	 25.59836	712.90002	 21.60	
 20.396	-43.773	 20.09647	 18.13661	 -3.16917	 -3.32675	 18.18402	 -0.87784	 25.62824	712.84998	 21.60	
 20.392	-38.938	 20.09997	 19.19379	 -3.76348	 -2.55862	 17.01709	 -0.91650	 25.60434	712.91998	 21.60	
 20.397	-34.097	 20.12324	 20.17733	 -4.29291	 -1.74522	 15.81077	 -0.95926	 25.62185	712.90002	 21.60	
 20.405	-29.165	 20.11039	 21.03108	 -4.80844	 -0.85791	 14.51702	 -1.00910	 25.61697	712.85999	 21.60	
 20.401	-24.295	 20.11489	 21.75764	 -5.19364	  0.12314	 13.16118	 -1.06394	 25.61036	712.96997	 21.60	
 20.392	-19.504	 20.14164	 22.38505	 -5.49987	  1.18671	 11.81301	 -1.11893	 25.63011	712.87000	 21.60	
 20.410	-14.577	 20.13356	 22.89118	 -5.82098	  2.31440	 10.41140	 -1.18492	 25.63363	712.81000	 21.60	
 20.407	 -9.736	 20.13989	 23.23549	 -6.02862	  3.47715	  9.03358	 -1.21587	 25.62204	712.83002	 21.60	
 20.401	 -4.847	 20.14334	 23.46160	 -6.18897	  4.73757	  7.62810	 -1.29964	 25.63056	712.82001	 21.70	
 20.400	  0.000	 20.14497	 23.55425	 -6.27156	  6.00713	  6.28358	 -1.36710	 25.61931	712.84003	 21.60	
 20.401	  4.847	 20.14463	 23.52897	 -6.33347	  7.33614	  4.94584	 -1.40925	 25.62384	712.92999	 21.70	
 20.407	  9.736	 20.14323	 23.37791	 -6.31642	  8.68580	  3.62606	 -1.46944	 25.63507	712.96002	 21.70	
 20.410	 14.577	 20.13723	 23.06280	 -6.17642	 10.04198	  2.38764	 -1.52691	 25.62077	712.94000	 21.70	
 20.392	 19.504	 20.14059	 22.61134	 -5.95231	 11.46960	  1.20605	 -1.58045	 25.61343	712.95001	 21.70	
 20.401	 24.295	 20.12918	 22.04864	 -5.69661	 12.82173	  0.11985	 -1.61971	 25.61183	712.85999	 21.70	
 20.405	 29.165	 20.14218	 21.35834	 -5.33702	 14.15349	 -0.87507	 -1.65853	 25.62334	712.88000	 21.70	
 20.397	 34.097	 20.12653	 20.50685	 -4.94402	 15.45363	 -1.81293	 -1.72001	 25.61453	712.89001	 21.70	
 20.392	 38.938	 20.12971	 19.57599	 -4.41699	 16.69344	 -2.64069	 -1.77321	 25.61286	712.92999	 21.70	
 20.396	 43.773	 20.13671	 18.55741	 -3.81442	 17.84880	 -3.36317	 -1.81813	 25.61705	712.96997	 21.70	
 20.408	 48.628	 20.12000	 17.42755	 -3.16384	 18.93307	 -4.06012	 -1.87366	 25.61435	712.94000	 21.70	
 20.410	 53.489	 20.10912	 16.21275	 -2.40784	 19.94207	 -4.64758	 -1.91577	 25.60359	712.84003	 21.70	
 20.400	 58.396	 20.12050	 14.91685	 -1.55598	 20.86602	 -5.20211	 -1.94464	 25.61114	712.92999	 21.70	
 20.403	 63.259	 20.11592	 13.58197	 -0.61664	 21.66197	 -5.67857	 -1.94755	 25.62630	712.87000	 21.70	
 20.413	 68.100	 20.10713	 12.21304	  0.39583	 22.32554	 -6.06802	 -1.96853	 25.61255	712.91998	 21.70	
 20.398	 72.996	 20.12449	 10.80126	  1.52600	 22.86535	 -6.36332	 -1.97432	 25.62393	712.88000	 21.70	
 20.394	 77.868	 20.11106	  9.40898	  2.67083	 23.26605	 -6.58611	 -1.96475	 25.61263	712.84003	 21.70	
 20.403	 82.668	 20.07547	  8.07625	  3.84352	 23.54174	 -6.80215	 -1.96229	 25.60489	712.82001	 21.70	
 20.392	 87.560	 20.07732	  6.71610	  5.11459	 23.69768	 -6.90956	 -1.95911	 25.61679	712.78998	 21.70	
 20.392	 92.440	 20.06497	  5.38034	  6.42941	 23.71934	 -6.91088	 -1.94911	 25.61215	712.85999	 21.70	
 20.403	 97.332	 20.03188	  4.00176	  7.76322	 23.60449	 -6.84336	 -1.96623	 25.60863	712.97998	 21.70	
 20.394	102.132	 20.02095	  2.77634	  9.13366	 23.35709	 -6.68895	 -1.96083	 25.59490	712.94000	 21.80	
 20.398	107.004	 20.00797	  1.59310	 10.52167	 23.00595	 -6.50667	 -1.93672	 25.60843	712.83002	 21.80	
 20.413	111.900	 19.97552	  0.45023	 11.89158	 22.52764	 -6.26867	 -1.91786	 25.62449	712.82001	 21.80	
 20.403	116.741	 19.94351	 -0.58356	 13.23556	 21.88125	 -5.91665	 -1.88182	 25.60269	712.98999	 21.80	
 20.400	121.604	 19.93671	 -1.52147	 14.55239	 21.15695	 -5.51111	 -1.84167	 25.61614	712.90002	 21.80	
 20.410	126.511	 19.90612	 -2.41495	 15.84379	 20.27662	 -5.01696	 -1.81113	 25.59789	712.87000	 21.80	
 20.408	131.372	 19.91052	 -3.21393	 17.08747	 19.31251	 -4.43056	 -1.76213	 25.61170	712.89001	 21.80	
 20.396	136.227	 19.90436	 -3.92997	 18.23252	 18.19281	 -3.74099	 -1.71217	 25.60961	712.90002	 21.80	
 20.392	141.062	 19.88486	 -4.54527	 19.27405	 17.04550	 -3.05347	 -1.64849	 25.61047	712.77002	 21.80	
 20.397	145.903	 19.88140	 -5.08676	 20.22791	 15.81561	 -2.28584	 -1.60158	 25.60776	712.79999	 21.80	
 20.405	150.835	 19.86524	 -5.60253	 21.10545	 14.48796	 -1.42694	 -1.54519	 25.60980	712.89001	 21.80	
 20.401	155.705	 19.84760	 -6.02761	 21.82390	 13.16599	 -0.49359	 -1.48459	 25.61352	712.84998	 21.80	
 20.392	160.496	 19.85968	 -6.33653	 22.42266	 11.83182	  0.53547	 -1.42205	 25.60823	712.84003	 21.80	
 20.410	165.423	 19.86042	 -6.61849	 22.93967	 10.41611	  1.65989	 -1.34565	 25.60747	713.00000	 21.80	
 20.407	170.264	 19.88337	 -6.81330	 23.31187	  9.07554	  2.82924	 -1.29828	 25.60742	713.00000	 21.80	
 20.401	175.153	 19.90812	 -6.98763	 23.56053	  7.75179	  4.09578	 -1.22202	 25.60116	712.88000	 21.80	
  0.141	 45.000	 25.59645	 10.53882	 10.95429	 10.95426	 10.41001	  0.49356	 25.61370	713.00000	 21.80	
  4.001	128.691	 25.49321	  8.36045	 12.77618	 13.37983	  7.79024	  0.33716	 25.60465	713.02002	 21.80	
  4.002	 76.995	 25.50989	 11.08458	  9.96850	 13.99743	  7.25858	  0.43227	 25.61135	712.96002	 21.80	
  4.002	 25.892	 25.52502	 13.37353	  7.91897	 12.11610	  8.99833	  0.48294	 25.62089	712.94000	 21.80	
  4.002	-25.892	 25.53746	 13.29028	  8.01180	  9.30661	 11.78941	  0.43001	 25.61875	712.92999	 21.80	
  4.002	-76.995	 25.53403	 10.94062	 10.24233	  7.64539	 13.60740	  0.34553	 25.61728	712.94000	 21.80	
  4.001	-128.691	 25.50730	  8.24248	 13.01768	  8.27648	 12.82259	  0.28413	 25.60791	712.95001	 21.80	
  4.000	180.000	 25.50721	  7.15249	 14.20781	 10.71901	 10.24355	  0.28294	 25.61848	712.98999	 21.80	
  8.000	180.000	 24.92166	  3.66887	 17.12803	 10.14874	  9.57519	 -0.20719	 25.61174	712.92999	 21.80	
  7.991	-152.370	 24.95745	  4.29075	 16.41723	  7.33500	 12.66556	 -0.21376	 25.61306	712.95001	 21.80	
  7.997	-124.550	 24.97569	  6.05286	 14.30705	  5.21626	 15.24148	 -0.22943	 25.62172	712.82001	 21.80	
  8.006	-96.837	 24.97834	  8.79923	 11.27575	  4.20617	 16.57283	 -0.21763	 25.60170	712.84998	 21.80	
  7.988	-69.228	 25.02228	 11.88465	  8.25384	  4.53461	 16.23991	 -0.15539	 25.62042	713.00000	 21.80	
  7.997	-41.563	 25.01678	 14.68430	  5.86021	  5.99946	 14.39282	 -0.05736	 25.61316	712.96002	 21.80	
  8.008	-13.821	 25.00917	 16.40859	  4.44116	  8.57812	 11.44904	  0.06649	 25.60402	712.92999	 21.90	
  8.008	 13.821	 25.00973	 16.52616	  4.30562	 11.63346	  8.41971	  0.13510	 25.61926	712.84998	 21.90	
  7.997	 41.563	 24.98134	 14.94028	  5.50294	 14.53807	  5.77003	  0.07294	 25.60679	712.96002	 21.90	
  7.988	 69.228	 24.96651	 12.16461	  7.78704	 16.54622	  4.07643	 -0.03007	 25.61339	712.97998	 21.90	
  8.006	 96.837	 24.94379	  9.05361	 10.76543	 17.04352	  3.62666	 -0.10545	 25.61755	712.89001	 21.90	
  7.997	124.550	 24.91767	  6.24046	 13.82860	 15.82867	  4.58087	 -0.13899	 25.60717	712.91998	 21.90	
  7.991	152.370	 24.90850	  4.37353	 16.15381	 13.30058	  6.65472	 -0.19443	 25.60558	713.02002	 21.90	
 12.009	161.059	 23.78463	  0.39233	 18.98598	 12.47736	  5.49096	 -0.73312	 25.60450	712.94000	 21.90	
 12.013	142.081	 23.79009	  1.68323	 17.16091	 15.54765	  2.96855	 -0.77272	 25.61108	712.91998	 21.90	
 12.006	123.113	 23.81748	  3.81376	 14.48801	 17.94260	  1.18245	 -0.73301	 25.61309	712.90002	 21.90	
 12.007	104.200	 23.83590	  6.50265	 11.36140	 19.39028	  0.14163	 -0.73999	 25.60733	712.82001	 21.90	
 11.989	 85.301	 23.89133	  9.70595	  8.16710	 19.63463	 -0.01904	 -0.64544	 25.62564	712.82001	 21.90	
 12.013	 66.294	 23.89425	 12.96168	  5.24241	 18.69337	  0.68176	 -0.62935	 25.61163	712.84998	 21.90	
 12.012	 47.388	 23.90844	 15.89799	  2.88647	 16.70329	  2.20434	 -0.54662	 25.61471	712.90002	 21.90	
 11.990	 28.440	 23.91883	 18.06805	  1.31873	 13.87441	  4.56832	 -0.42922	 25.60087	712.91998	 21.90	
 11.991	  9.464	 23.94201	 19.21486	  0.65708	 10.67045	  7.43414	 -0.46271	 25.59927	712.90002	 21.90	
 11.991	 -9.464	 23.94773	 19.12584	  0.77958	  7.49606	 10.61419	 -0.46550	 25.59983	712.85999	 21.90	
 11.990	-28.440	 23.96089	 17.87272	  1.75582	  4.69372	 13.84992	 -0.62319	 25.61407	712.90997	 21.90	
 12.012	-47.388	 23.93315	 15.57705	  3.45103	  2.48141	 16.62558	 -0.67582	 25.60737	712.87000	 21.90	
 12.013	-66.294	 23.93012	 12.57047	  5.91036	  1.08455	 18.52791	 -0.72200	 25.59671	712.84003	 21.90	
 11.989	-85.301	 23.91655	  9.29693	  8.88243	  0.57630	 19.30330	 -0.71932	 25.59404	712.92999	 21.90	
 12.007	-104.200	 23.88731	  6.23810	 12.06693	  0.72582	 18.91190	 -0.70843	 25.59694	712.89001	 21.90	
 12.006	-123.113	 23.86389	  3.57315	 15.14124	  1.78009	 17.38092	 -0.75063	 25.59483	712.90997	 21.90	
 12.013	-142.081	 23.86765	  1.54917	 17.65930	  3.75241	 14.85353	 -0.71459	 25.60698	713.03003	 21.90	
 12.009	-161.059	 23.84939	  0.41749	 19.24026	  6.24994	 11.77437	 -0.76033	 25.60823	712.90002	 21.90	
 16.000	180.000	 22.21425	 -3.61304	 21.85985	  8.03284	  7.19136	 -1.09443	 25.61576	712.91998	 21.90	
 15.990	-165.604	 22.25183	 -3.32893	 21.51608	  4.99103	 10.41448	 -1.03594	 25.59503	712.95001	 22.00	
 16.002	-151.165	 22.27314	 -2.53306	 20.31397	  2.29738	 13.63119	 -0.90218	 25.60213	712.90002	 21.90	
 16.002	-136.836	 22.29150	 -1.18447	 18.27611	  0.06669	 16.60215	 -0.84131	 25.60632	712.90997	 22.00	
 15.995	-122.439	 22.29929	  0.82844	 15.55053	 -1.52618	 19.05163	 -0.80815	 25.61054	712.96002	 22.00	
 15.993	-107.966	 22.29080	  3.42434	 12.40547	 -2.53370	 20.72472	 -0.77899	 25.58142	712.95001	 22.00	
 16.005	-93.629	 22.32272	  6.41938	  9.20351	 -3.03676	 21.53225	 -0.79937	 25.60447	712.92999	 22.00	
 15.992	-79.234	 22.33620	  9.64941	  6.10395	 -2.87244	 21.39904	 -0.83609	 25.59513	712.90002	 22.00	
 16.009	-64.774	 22.34737	 12.95589	  3.29079	 -2.19966	 20.36170	 -0.87055	 25.60075	712.85999	 22.00	
 15.997	-50.364	 22.34011	 16.00567	  1.01643	 -1.01597	 18.42145	 -0.92749	 25.58529	712.89001	 22.00	
 15.997	-36.045	 22.35635	 18.56219	 -0.81156	  0.85906	 15.83230	 -1.00920	 25.58893	712.92999	 22.00	
 16.000	-21.597	 22.38227	 20.43923	 -1.96259	  3.31594	 12.74328	 -1.02038	 25.61214	712.90997	 22.00	
 16.003	 -7.169	 22.37448	 21.44026	 -2.70251	  6.20942	  9.43024	 -0.98525	 25.59708	712.89001	 22.00	
 16.003	  7.169	 22.37130	 21.52778	 -2.84304	  9.34169	  6.18722	 -1.02225	 25.59198	712.97998	 22.00	
 16.000	 21.597	 22.36180	 20.64365	 -2.37583	 12.60795	  3.23413	 -1.03046	 25.59821	712.98999	 22.00	
 15.997	 36.045	 22.34277	 18.92064	 -1.44761	 15.70500	  0.77441	 -1.05237	 25.59612	712.91998	 22.00	
 15.997	 50.364	 22.32640	 16.44080	  0.24203	 18.37773	 -1.18671	 -1.19783	 25.59964	713.00000	 22.00	
 16.009	 64.774	 22.32645	 13.40374	  2.53867	 20.37631	 -2.51213	 -1.28472	 25.58613	712.89001	 22.00	
 15.992	 79.234	 22.31897	 10.10876	  5.30587	 21.54962	 -3.24495	 -1.30662	 25.59686	712.85999	 22.00	
 16.005	 93.629	 22.27925	  6.86356	  8.36579	 21.85093	 -3.50944	 -1.31719	 25.60179	712.97998	 22.00	
 15.993	107.966	 22.24653	  3.85241	 11.58429	 21.18917	 -3.05757	 -1.34759	 25.60017	712.88000	 22.00	
 15.995	122.439	 22.19687	  1.21776	 14.75814	 19.67739	 -2.15718	 -1.30266	 25.59978	712.97998	 22.00	
 16.002	136.836	 22.16876	 -0.85157	 17.56900	 17.37410	 -0.59913	 -1.31673	 25.59106	712.90997	 22.00	
 16.002	151.165	 22.13982	 -2.37472	 19.79548	 14.49819	  1.50081	 -1.28539	 25.59153	712.87000	 22.00	
 15.990	165.604	 22.17239	 -3.23997	 21.26294	 11.27634	  4.16375	 -1.16053	 25.59865	712.94000	 22.00	
 20.003	168.362	 20.09991	 -6.44197	 23.03120	  9.73112	  2.58361	 -1.31401	 25.59390	712.90997	 22.10	
 20.008	156.764	 20.06382	 -5.82404	 21.83679	 12.91912	 -0.02133	 -1.46743	 25.59064	712.90997	 22.10	
 20.000	145.147	 20.10036	 -4.72483	 19.98948	 16.03385	 -2.13979	 -1.59091	 25.59905	712.87000	 22.00	
 19.995	133.545	 20.12905	 -3.26323	 17.56137	 18.76407	 -3.85045	 -1.70494	 25.59730	712.89001	 22.10	
 20.009	121.926	 20.15195	 -1.32033	 14.64866	 20.97846	 -5.18660	 -1.80209	 25.58611	712.83002	 22.10	
 20.005	110.327	 20.19565	  1.05332	 11.50840	 22.54884	 -6.05194	 -1.87527	 25.59580	712.97998	 22.10	
 19.989	 98.733	 20.24973	  3.85802	  8.32049	 23.38790	 -6.49596	 -1.91258	 25.59920	712.83002	 22.10	
 19.999	 87.075	 20.29225	  6.98559	  5.18424	 23.52238	 -6.58639	 -1.89981	 25.59877	712.81000	 22.10	
 19.992	 75.457	 20.31094	 10.18295	  2.30557	 22.92511	 -6.18556	 -1.92130	 25.58388	712.90997	 22.10	
 20.009	 63.844	 20.32320	 13.44838	 -0.24942	 21.62933	 -5.43968	 -1.91757	 25.60670	712.92999	 22.10	
 19.989	 52.269	 20.34850	 16.49900	 -2.32195	 19.62020	 -4.20453	 -1.84622	 25.60099	712.84003	 22.10	
 19.999	 40.602	 20.33028	 19.15396	 -3.94873	 17.06535	 -2.63981	 -1.74802	 25.60431	712.95001	 22.10	
 20.004	 29.051	 20.34480	 21.22868	 -5.03429	 14.14930	 -0.59345	 -1.62494	 25.59612	712.92999	 22.10	
 20.005	 17.433	 20.34258	 22.65321	 -5.72807	 10.95636	  1.91844	 -1.53477	 25.59223	712.96002	 22.10	
 20.006	  5.780	 20.34715	 23.34251	 -6.03664	  7.72561	  4.83505	 -1.40096	 25.59767	712.97998	 22.10	
 20.006	 -5.780	 20.34424	 23.25836	 -5.85650	  4.68454	  8.00819	 -1.26738	 25.59580	712.98999	 22.10	
 20.005	-17.433	 20.33955	 22.44407	 -5.33590	  1.87082	 11.27320	 -1.15139	 25.59321	712.92999	 22.10	
 20.004	-29.051	 20.33088	 20.92107	 -4.50723	 -0.56035	 14.48403	 -1.02927	 25.59150	712.94000	 22.10	
 19.999	-40.602	 20.32427	 18.76649	 -3.28329	 -2.55145	 17.37749	 -0.93224	 25.60075	712.90002	 22.10	
 19.989	-52.269	 20.31948	 16.02517	 -1.54722	 -4.11994	 19.85331	 -0.84474	 25.59169	712.95001	 22.10	
 20.009	-63.844	 20.29925	 12.95461	  0.64764	 -5.24386	 21.71226	 -0.76712	 25.59630	712.97998	 22.10	
 19.992	-75.457	 20.29298	  9.69165	  3.19074	 -5.90615	 22.90979	 -0.69953	 25.59507	712.92999	 22.10	
 19.999	-87.075	 20.28325	  6.42161	  6.07182	 -6.19274	 23.36678	 -0.64820	 25.60509	712.85999	 22.10	
 19.989	-98.733	 20.25124	  3.35788	  9.15431	 -6.10663	 23.06631	 -0.63093	 25.59310	712.84003	 22.10	
 20.005	-110.327	 20.24077	  0.60961	 12.37603	 -5.56084	 22.05228	 -0.63582	 25.58374	712.97998	 22.10	
 20.009	-121.926	 20.24957	 -1.72050	 15.49704	 -4.64353	 20.31407	 -0.67503	 25.59392	712.88000	 22.10	
 19.995	-133.545	 20.25255	 -3.57758	 18.28427	 -3.34976	 17.97213	 -0.72295	 25.59849	712.94000	 22.10	
 20.000	-145.147	 20.26222	 -4.99619	 20.59658	 -1.52027	 15.13397	 -0.78979	 25.60677	712.96002	 22.10	
 20.008	-156.764	 20.22831	 -6.01109	 22.32140	  0.77516	 11.96208	 -0.87873	 25.59836	712.87000	 22.10	
 20.003	-168.362	 20.19371	 -6.57510	 23.29839	  3.46479	  8.72252	 -0.99259	 25.59397	712.87000	 22.10	
 20.000	180.000	 20.14991	 -6.74446	 23.52240	  6.55902	  5.57109	 -1.12839	 25.60038	712.91998	 22.10	
