FileType=PCF
NHL=14
Date=03/20/19	10:50:56
Facility=APL
Serial=16071-7
Customer=NASA
NP=6
Mach=0.380000
Calibration=1:1
CalPts=490
TstPts=95
PortNumbering=AP Standard
Units=Torr C m/s kg/m^3 deg mm 
Theta[deg]	Phi[deg]	P1[Torr]	P2[Torr]	P3[Torr]	P4[Torr]	P5[Torr]	P6[Torr]	Pt[Torr]	Ps[Abs,Torr]	Ts[C]	
  0.000	  0.000	 67.12273	 27.88333	 29.93670	 29.17966	 28.01327	  1.15109	 67.13391	712.20001	 28.40	
  1.691	128.401	 67.11089	 25.58268	 31.91901	 31.99331	 24.99604	  1.07865	 67.14639	712.08002	 28.40	
  1.692	 77.194	 67.16939	 28.73896	 28.87617	 32.70126	 24.41066	  1.16861	 67.18703	712.09003	 28.50	
  1.699	 26.182	 67.19456	 31.22953	 26.51571	 30.80077	 26.40535	  1.21700	 67.19289	712.13000	 28.50	
  1.699	-26.182	 67.18865	 31.13667	 26.79165	 27.48388	 29.65891	  1.16516	 67.20007	712.19000	 28.60	
  1.692	-77.194	 67.18965	 28.56891	 29.40071	 25.60101	 31.54438	  1.07262	 67.19833	712.19000	 28.60	
  1.691	-128.401	 67.15144	 25.48993	 32.34639	 26.32310	 30.72160	  1.01830	 67.18448	712.25000	 28.70	
  1.700	180.000	 67.15827	 24.14333	 33.51537	 29.13555	 27.85420	  1.01280	 67.20824	712.09998	 28.70	
  3.400	180.000	 67.00675	 20.33086	 36.94085	 28.92895	 27.47474	  0.75972	 67.21716	712.15997	 28.80	
  3.388	-152.325	 67.03625	 21.07379	 36.35244	 25.58850	 30.84911	  0.74387	 67.20991	712.10999	 28.80	
  3.397	-124.529	 67.06503	 23.24949	 34.11484	 22.96340	 33.65545	  0.75561	 67.21947	712.08002	 28.80	
  3.399	-96.763	 67.09695	 26.51322	 30.87577	 21.73002	 35.10122	  0.81470	 67.21844	712.15002	 28.90	
  3.394	-69.283	 67.14757	 30.04997	 27.48986	 22.13331	 34.77406	  0.91214	 67.23587	712.14001	 28.90	
  3.400	-41.398	 67.17871	 33.10679	 24.56625	 23.99361	 32.77454	  1.01236	 67.24718	712.01001	 29.00	
  3.401	-14.021	 67.15248	 34.87801	 22.79390	 27.01339	 29.66084	  1.10650	 67.21376	712.16998	 29.00	
  3.401	 14.021	 67.13464	 34.99485	 22.49248	 30.54852	 26.07072	  1.16132	 67.20958	712.06000	 29.00	
  3.400	 41.398	 67.11610	 33.35690	 23.95090	 33.68326	 22.98573	  1.14753	 67.21295	712.12000	 29.10	
  3.394	 69.283	 67.09481	 30.37694	 26.71393	 35.82748	 20.96206	  1.09811	 67.22988	712.15997	 29.10	
  3.399	 96.763	 67.11385	 26.88848	 30.12610	 36.27190	 20.53677	  0.99551	 67.27448	712.15002	 29.20	
  3.397	124.529	 67.07218	 23.56788	 33.50417	 35.03444	 21.61897	  0.90543	 67.26101	712.19000	 29.20	
  3.388	152.325	 67.05456	 21.25958	 35.93995	 32.36486	 24.12586	  0.80376	 67.26069	712.17999	 29.20	
  5.099	161.165	 66.62401	 17.12981	 39.49280	 32.12090	 23.40902	  0.42824	 67.23766	712.21002	 29.30	
  5.109	142.013	 66.65875	 18.81355	 37.57598	 35.39841	 20.35388	  0.48689	 67.25594	712.19000	 29.30	
  5.095	123.033	 66.69978	 21.45543	 34.74624	 37.90755	 18.15419	  0.60362	 67.27602	712.25000	 29.40	
  5.105	104.191	 66.71206	 24.68121	 31.35728	 39.41663	 16.88992	  0.68009	 67.26684	712.27002	 29.40	
  5.093	 85.207	 66.77059	 28.37173	 27.71223	 39.71512	 16.72354	  0.77990	 67.28609	712.17999	 29.50	
  5.104	 66.290	 66.80432	 31.93574	 24.34953	 38.74120	 17.60571	  0.86482	 67.27679	712.27002	 29.50	
  5.094	 47.331	 66.85084	 35.08577	 21.52030	 36.60032	 19.47236	  0.93345	 67.29313	712.21002	 29.50	
  5.089	 28.397	 66.87935	 37.35947	 19.55199	 33.64466	 22.24766	  0.97894	 67.27865	712.27002	 29.60	
  5.096	  9.576	 66.89890	 38.60260	 18.56264	 30.19033	 25.65619	  0.98624	 67.27498	712.21997	 29.60	
  5.096	 -9.576	 66.94695	 38.54555	 18.87747	 26.50266	 29.36876	  0.92649	 67.31613	712.22998	 29.60	
  5.089	-28.397	 66.95356	 37.12535	 20.16339	 23.19022	 32.81997	  0.83157	 67.30446	712.22998	 29.70	
  5.094	-47.331	 66.97524	 34.67227	 22.35811	 20.50666	 35.82254	  0.71177	 67.33562	712.19000	 29.70	
  5.104	-66.290	 66.94920	 31.48044	 25.32725	 18.69882	 37.86163	  0.60291	 67.33345	712.33002	 29.70	
  5.093	-85.207	 66.91794	 27.91334	 28.76193	 17.94896	 38.65309	  0.50485	 67.32401	712.26001	 29.80	
  5.105	-104.191	 66.85140	 24.24258	 32.33201	 18.22615	 38.23120	  0.42943	 67.31081	712.15002	 29.80	
  5.095	-123.033	 66.85677	 21.06136	 35.67717	 19.64392	 36.55515	  0.39002	 67.36052	712.22998	 29.80	
  5.109	-142.013	 66.77346	 18.50367	 38.35612	 21.92036	 33.89558	  0.38018	 67.32207	712.21002	 29.90	
  5.099	-161.165	 66.75932	 16.97311	 39.93178	 25.04254	 30.50601	  0.36891	 67.32379	712.20001	 29.90	
  5.100	180.000	 66.74520	 16.49582	 40.32531	 28.60637	 26.92071	  0.38165	 67.33792	712.27002	 29.90	
  6.800	180.000	 66.10483	 12.64455	 43.49199	 28.00340	 26.21711	 -0.04541	 67.33665	712.27002	 29.90	
  6.796	-166.229	 66.10001	 12.95876	 43.27841	 24.50703	 29.68997	 -0.08466	 67.28946	712.15002	 30.00	
  6.808	-152.311	 66.18195	 14.05565	 42.08878	 21.35180	 33.19343	 -0.08033	 67.35110	712.29999	 30.00	
  6.795	-138.383	 66.20068	 15.87789	 40.04058	 18.66378	 36.29368	 -0.07722	 67.33765	712.33002	 30.00	
  6.792	-124.591	 66.25674	 18.26508	 37.43457	 16.58481	 38.87668	 -0.10426	 67.34560	712.26001	 30.00	
  6.787	-110.754	 66.29240	 21.25103	 34.27740	 15.08935	 40.77536	 -0.10177	 67.32756	712.23999	 30.10	
  6.800	-96.985	 66.34391	 24.58642	 30.86673	 14.23324	 41.85057	 -0.01816	 67.35401	712.37000	 30.10	
  6.800	-83.015	 66.36317	 28.19319	 27.31353	 14.15271	 41.93917	  0.02987	 67.33167	712.34003	 30.10	
  6.787	-69.246	 66.40754	 31.68569	 23.93105	 14.92730	 41.09582	  0.12837	 67.34757	712.29999	 30.10	
  6.792	-55.409	 66.44337	 34.95552	 20.96235	 16.27973	 39.46087	  0.21436	 67.35594	712.21997	 30.20	
  6.795	-41.617	 66.43594	 37.85319	 18.53454	 18.36867	 37.04169	  0.33487	 67.34126	712.41998	 30.20	
  6.808	-27.689	 66.45128	 40.21859	 16.63928	 21.06269	 33.99403	  0.43932	 67.34988	712.34003	 30.20	
  6.796	-13.771	 66.44823	 41.61263	 15.35814	 24.24528	 30.52221	  0.55202	 67.35702	712.15002	 30.20	
  6.800	  0.000	 66.43695	 42.13087	 14.69013	 27.72764	 27.01805	  0.64484	 67.35880	712.21002	 30.20	
  6.796	 13.771	 66.40531	 41.74194	 14.86141	 31.38504	 23.48524	  0.68376	 67.34985	712.28003	 30.30	
  6.808	 27.689	 66.37040	 40.46592	 15.86455	 34.73483	 20.18617	  0.69194	 67.35428	712.19000	 30.30	
  6.795	 41.617	 66.35884	 38.30779	 17.56573	 37.70403	 17.40773	  0.61962	 67.38786	712.21002	 30.30	
  6.792	 55.409	 66.32658	 35.50579	 19.95169	 40.32971	 15.18981	  0.54102	 67.38345	712.22998	 30.30	
  6.787	 69.246	 66.29945	 32.23955	 22.89202	 42.00983	 13.61477	  0.47100	 67.39226	712.19000	 30.40	
  6.800	 83.015	 66.23059	 28.72923	 26.06944	 42.93543	 12.75340	  0.39488	 67.35880	712.13000	 30.40	
  6.800	 96.985	 66.19773	 25.12041	 29.61285	 42.96432	 12.69569	  0.29673	 67.35208	712.26001	 30.40	
  6.787	110.754	 66.14552	 21.76709	 33.07033	 42.04507	 13.42924	  0.23163	 67.33064	712.33002	 30.40	
  6.792	124.591	 66.12658	 18.71066	 36.36226	 40.42428	 14.85716	  0.15849	 67.33775	712.28998	 30.50	
  6.795	138.383	 66.12604	 16.19584	 39.20145	 37.96810	 16.96158	 -0.00639	 67.36036	712.20001	 30.50	
  6.808	152.311	 66.12637	 14.27448	 41.44149	 35.00983	 19.60606	  0.00348	 67.38207	712.20001	 30.50	
  6.796	166.229	 66.11858	 13.08784	 42.91108	 31.65182	 22.78101	 -0.02726	 67.36176	712.17999	 30.50	
  8.491	168.704	 65.22668	  9.07793	 46.00531	 30.97445	 21.82506	 -0.53702	 67.36783	712.27002	 30.60	
  8.502	157.493	 65.17623	 10.03329	 44.70750	 34.50024	 18.55158	 -0.50674	 67.32567	712.21997	 30.60	
  8.494	146.194	 65.23040	 11.61858	 42.77774	 37.72598	 15.70658	 -0.73843	 67.36657	712.28998	 30.60	
  8.495	135.039	 65.23651	 13.73259	 40.24067	 40.59899	 13.23755	 -0.39525	 67.36320	712.25000	 30.60	
  8.487	123.723	 65.28537	 16.34730	 37.27916	 42.96262	 11.23820	 -0.32311	 67.39027	712.09003	 30.60	
  8.492	112.575	 65.31417	 19.30003	 34.02514	 44.78159	  9.78710	 -0.27173	 67.40008	712.27002	 30.70	
  8.510	101.220	 65.30670	 22.68888	 30.39781	 45.91545	  8.93103	 -0.20836	 67.35440	712.20001	 30.70	
  8.500	 90.000	 65.39767	 26.20005	 26.86503	 46.25800	  8.80864	 -0.12705	 67.39867	712.19000	 30.70	
  8.510	 78.780	 65.41432	 29.85260	 23.44676	 45.86129	  9.09644	 -0.18107	 67.37944	712.16998	 30.70	
  8.492	 67.425	 65.44643	 33.46461	 20.21994	 44.60567	 10.12029	 -0.01584	 67.37984	712.23999	 30.70	
  8.487	 56.277	 65.48911	 36.70098	 17.42820	 42.79986	 11.66123	 -0.00314	 67.37714	712.27002	 30.80	
  8.495	 44.961	 65.53643	 39.69863	 15.02332	 40.39951	 13.81709	 -0.14220	 67.37832	712.15997	 30.80	
  8.494	 33.806	 65.55999	 42.08161	 13.09280	 37.43951	 16.39135	  0.25111	 67.35088	712.21997	 30.80	
  8.502	 22.507	 65.60848	 43.90275	 11.61891	 34.26830	 19.32229	  0.27512	 67.39932	712.33002	 30.80	
  8.491	 11.296	 65.62857	 44.99403	 10.81346	 30.67665	 22.71996	  0.25368	 67.37924	712.26001	 30.80	
  8.500	  0.000	 65.63191	 45.31119	 10.73821	 26.91278	 26.31543	  0.20217	 67.35149	712.21997	 30.90	
  8.491	-11.296	 65.67522	 44.86204	 11.29894	 23.43652	 29.91475	  0.11163	 67.39081	712.15997	 30.90	
  8.502	-22.507	 65.71935	 43.66253	 12.41833	 20.12654	 33.52124	 -0.02142	 67.41299	712.19000	 30.90	
  8.494	-33.806	 65.69642	 41.69973	 14.05324	 17.19082	 36.86152	 -0.20206	 67.40122	712.17999	 30.90	
  8.495	-44.961	 65.70886	 39.18516	 16.09437	 14.75817	 39.74771	 -0.32514	 67.42205	712.22998	 30.90	
  8.487	-56.277	 65.67596	 36.11647	 18.56396	 12.76767	 42.11916	 -0.32608	 67.39035	712.29999	 30.90	
  8.492	-67.425	 65.67284	 32.83523	 21.45642	 11.33365	 43.86261	 -0.52340	 67.40656	712.26001	 30.90	
  8.510	-78.780	 65.63316	 29.21238	 24.79389	 10.42732	 44.98579	 -0.54676	 67.41232	712.32001	 31.00	
  8.500	-90.000	 65.62368	 25.57908	 28.36698	 10.24118	 45.24366	 -0.56918	 67.41868	712.26001	 31.00	
  8.510	-101.220	 65.57201	 22.04967	 31.96742	 10.49504	 44.79306	 -0.61289	 67.41805	712.28998	 31.00	
  8.492	-112.575	 65.54252	 18.71939	 35.44475	 11.57685	 43.47546	 -0.65800	 67.41988	712.39001	 31.00	
  8.487	-123.723	 65.48364	 15.84572	 38.54433	 13.15704	 41.45236	 -0.68741	 67.38701	712.40002	 31.00	
  8.495	-135.039	 65.45775	 13.37354	 41.33692	 15.12274	 38.87118	 -0.62912	 67.39687	712.32001	 31.10	
  8.494	-146.194	 65.40720	 11.37102	 43.69371	 17.53780	 35.91373	 -0.60325	 67.38549	712.34003	 31.10	
  8.502	-157.493	 65.40678	  9.86622	 45.51259	 20.50475	 32.54602	 -0.62136	 67.42641	712.28003	 31.10	
  8.491	-168.704	 65.31142	  9.08740	 46.40933	 23.78105	 28.94652	 -0.62529	 67.35234	712.34003	 31.10	
  8.500	180.000	 65.30721	  8.80132	 46.58268	 27.27287	 25.39198	 -0.57980	 67.39785	712.22998	 31.10	
 10.200	180.000	 64.15632	  4.98525	 49.42352	 26.24517	 24.35511	 -1.16057	 67.36954	712.31000	 31.10	
 10.191	-170.497	 64.24426	  5.20916	 49.31594	 22.89730	 27.93268	 -1.21965	 67.41338	712.23999	 31.20	
 10.210	-161.034	 64.27403	  5.88796	 48.54669	 19.48757	 31.60852	 -1.34727	 67.40971	712.37000	 31.20	
 10.194	-151.526	 64.30482	  7.05678	 47.05380	 16.38779	 35.13908	 -1.28644	 67.40163	712.33002	 31.20	
 10.190	-142.105	 64.35477	  8.72744	 45.01711	 13.78263	 38.32564	 -1.19694	 67.39525	712.34998	 31.20	
 10.215	-132.646	 64.40694	 10.75232	 42.59632	 11.48391	 41.33458	 -1.22379	 67.43607	712.32001	 31.20	
 10.203	-123.092	 64.43191	 13.26949	 39.68733	  9.51580	 43.90930	 -1.35388	 67.42903	712.29999	 31.20	
 10.192	-113.678	 64.44777	 16.10297	 36.47023	  8.01997	 45.85174	 -1.29537	 67.41665	712.26001	 31.30	
 10.208	-104.249	 64.48203	 19.30418	 33.01469	  6.95773	 47.31964	 -1.26638	 67.40406	712.31000	 31.30	
 10.210	-94.801	 64.52674	 22.76036	 29.40482	  6.40569	 48.13532	 -1.31216	 67.43061	712.27002	 31.30	
 10.210	-85.199	 64.57063	 26.41737	 25.74195	  6.34569	 48.23440	 -1.16347	 67.42599	712.29999	 31.30	
 10.208	-75.751	 64.59523	 30.07353	 22.24332	  6.74872	 47.66990	 -1.34922	 67.42369	712.26001	 31.30	
 10.192	-66.322	 64.60965	 33.65832	 18.96375	  7.75011	 46.42491	 -1.25622	 67.42065	712.23999	 31.30	
 10.203	-56.908	 64.63099	 37.02162	 16.08970	  9.20024	 44.63294	 -1.25399	 67.40276	712.26001	 31.30	
 10.215	-47.354	 64.66661	 40.23516	 13.54948	 11.10598	 42.28580	 -0.97112	 67.42606	712.16998	 31.30	
 10.190	-37.895	 64.66966	 42.91444	 11.37340	 13.38166	 39.43520	 -1.08742	 67.41917	712.14001	 31.30	
 10.194	-28.474	 64.69116	 45.17864	  9.66386	 16.02245	 36.29733	 -0.74714	 67.44685	712.20001	 31.30	
 10.210	-18.966	 64.64828	 46.87509	  8.25550	 19.12687	 32.77004	 -0.60735	 67.39606	712.17999	 31.40	
 10.191	 -9.503	 64.68884	 47.93295	  7.40603	 22.58319	 29.10949	 -0.41331	 67.43735	712.29999	 31.40	
 10.200	  0.000	 64.70154	 48.36546	  6.93958	 25.98727	 25.50591	 -0.34500	 67.46425	712.21002	 31.40	
 10.191	  9.503	 64.65707	 48.07843	  6.89626	 29.78314	 21.85968	 -0.27061	 67.44363	712.15002	 31.40	
 10.210	 18.966	 64.60808	 47.16619	  7.49030	 33.41647	 18.39550	 -0.56841	 67.44460	712.09003	 31.40	
 10.194	 28.474	 64.55010	 45.49752	  8.72211	 36.77110	 15.31102	 -0.55416	 67.39928	712.15002	 31.40	
 10.190	 37.895	 64.55618	 43.41153	 10.35028	 39.98508	 12.55068	 -0.36428	 67.42966	712.21002	 31.40	
 10.215	 47.354	 64.44949	 40.80991	 12.20971	 42.80056	 10.02307	 -0.95012	 67.39225	712.07001	 31.40	
 10.203	 56.908	 64.43557	 37.71925	 14.66575	 45.28199	  8.06079	 -0.57665	 67.42681	712.21997	 31.50	
 10.192	 66.322	 64.40017	 34.38339	 17.48998	 47.06348	  6.63359	 -1.14005	 67.40251	712.21002	 31.50	
 10.208	 75.751	 64.35394	 30.83746	 20.58334	 48.38088	  5.54552	 -0.78898	 67.39590	712.22998	 31.50	
 10.210	 85.199	 64.34764	 27.15309	 23.98988	 49.10232	  5.02054	 -0.94443	 67.42952	712.31000	 31.50	
 10.210	 94.801	 64.29907	 23.51212	 27.62597	 49.16154	  4.95217	 -0.74914	 67.42262	712.14001	 31.50	
 10.208	104.249	 64.24500	 20.03132	 31.21317	 48.52201	  5.43708	 -1.18736	 67.41128	712.20001	 31.50	
 10.192	113.678	 64.19427	 16.74697	 34.72784	 47.28478	  6.30493	 -1.25608	 67.40661	712.16998	 31.50	
 10.203	123.092	 64.16570	 13.77100	 38.04655	 45.51115	  7.59478	 -1.18584	 67.42220	712.21002	 31.50	
 10.215	132.646	 64.10847	 11.10056	 41.14648	 43.04429	  9.44044	 -1.03945	 67.40927	712.21997	 31.60	
 10.190	142.105	 64.11853	  8.95726	 43.89148	 40.24885	 11.79072	 -1.51145	 67.41497	712.26001	 31.60	
 10.194	151.526	 64.11665	  7.30148	 46.09588	 37.05632	 14.49231	 -1.24159	 67.40205	712.19000	 31.60	
 10.210	161.034	 64.06884	  5.97545	 47.83945	 33.67813	 17.40091	 -1.41460	 67.37711	712.23999	 31.60	
 10.191	170.497	 64.12180	  5.23943	 48.87112	 30.02700	 20.80737	 -1.46775	 67.37199	712.26001	 31.60	
 11.899	171.783	 62.75703	  1.29461	 51.58537	 28.86391	 19.61295	 -2.10902	 67.38696	712.27002	 31.60	
 11.890	163.610	 62.74433	  1.98626	 50.66799	 32.60060	 16.25996	 -2.03830	 67.40190	712.23999	 31.60	
 11.889	155.445	 62.71559	  2.96730	 49.15565	 36.06727	 13.18157	 -2.10588	 67.39294	712.25000	 31.70	
 11.909	147.299	 62.71236	  4.32452	 47.20200	 39.42198	 10.32451	 -2.16273	 67.41790	712.31000	 31.70	
 11.902	139.148	 62.71859	  6.18636	 44.69686	 42.47230	  7.82956	 -2.13098	 67.41068	712.19000	 31.70	
 11.894	130.867	 62.76447	  8.52440	 41.80225	 45.24970	  5.75152	 -2.06619	 67.41460	712.26001	 31.70	
 11.897	122.732	 62.81471	 11.14558	 38.64397	 47.63015	  4.08338	 -2.01560	 67.41389	712.19000	 31.70	
 11.903	114.597	 62.81824	 14.02659	 35.30673	 49.49292	  2.71038	 -2.03376	 67.39383	712.28003	 31.70	
 11.893	106.346	 62.89979	 17.27355	 31.75247	 50.85649	  1.69289	 -2.01765	 67.42173	712.27002	 31.80	
 11.892	 98.155	 62.94130	 20.73903	 28.05672	 51.65751	  1.07156	 -1.98896	 67.42065	712.28003	 31.80	
 11.900	 90.000	 62.98143	 24.25256	 24.55167	 51.89610	  0.91834	 -1.75881	 67.39805	712.20001	 31.80	
 11.892	 81.845	 63.01931	 27.84963	 21.25321	 51.53346	  1.28525	 -1.82074	 67.39372	712.22998	 31.80	
 11.893	 73.654	 63.05746	 31.58231	 17.93050	 50.65396	  1.95961	 -1.80626	 67.36925	712.25000	 31.80	
 11.903	 65.403	 63.09586	 35.17382	 14.86653	 49.33929	  3.02530	 -1.82548	 67.39708	712.31000	 31.80	
 11.897	 57.268	 63.11266	 38.50840	 12.12535	 47.35112	  4.55452	 -1.78597	 67.37285	712.28003	 31.80	
 11.894	 49.133	 63.13625	 41.63772	  9.64316	 44.96532	  6.38020	 -1.66778	 67.38553	712.19000	 31.80	
 11.902	 40.852	 63.21209	 44.44731	  7.58498	 42.20961	  8.64190	 -1.43861	 67.41583	712.28003	 31.80	
 11.909	 32.701	 63.19217	 46.79009	  5.92359	 39.09831	 11.20872	 -1.12124	 67.39301	712.19000	 31.80	
 11.889	 24.555	 63.27768	 48.67931	  4.67081	 35.76683	 14.17947	 -1.33386	 67.40814	712.13000	 31.90	
 11.890	 16.390	 63.28619	 50.03341	  3.71624	 32.30601	 17.33853	 -1.05460	 67.38896	712.25000	 31.90	
 11.899	  8.217	 63.32168	 50.85297	  3.16672	 28.56852	 20.79875	 -1.25175	 67.38671	712.27002	 31.90	
 11.900	  0.000	 63.33326	 51.09489	  3.10068	 24.89112	 24.42176	 -1.04224	 67.38810	712.27002	 31.90	
 11.899	 -8.217	 63.36467	 50.73910	  3.48204	 21.42415	 28.05487	 -1.24156	 67.39690	712.27002	 31.90	
 11.890	-16.390	 63.33875	 49.75662	  4.25623	 17.97441	 31.76268	 -1.52532	 67.36495	712.21002	 31.90	
 11.889	-24.555	 63.35343	 48.26865	  5.37485	 14.80305	 35.38028	 -1.52051	 67.36597	712.26001	 31.90	
 11.909	-32.701	 63.31643	 46.27100	  6.78821	 11.98254	 38.69638	 -1.79519	 67.34663	712.22998	 31.90	
 11.902	-40.852	 63.36624	 43.79329	  8.65323	  9.51695	 41.84508	 -1.85997	 67.41084	712.17999	 32.00	
 11.894	-49.133	 63.33463	 40.89481	 10.95048	  7.37900	 44.61106	 -1.66201	 67.38912	712.27002	 32.00	
 11.897	-57.268	 63.29311	 37.67771	 13.46385	  5.44821	 46.92112	 -1.90938	 67.37129	712.25000	 32.00	
 11.903	-65.403	 63.29295	 34.30480	 16.32327	  4.11888	 48.73415	 -1.94766	 67.39579	712.17999	 32.00	
 11.893	-73.654	 63.27642	 30.67250	 19.60067	  3.15763	 50.00551	 -1.98477	 67.35644	712.35999	 32.00	
 11.892	-81.845	 63.25742	 26.93462	 23.08635	  2.45621	 50.76332	 -1.84774	 67.36749	712.21997	 32.00	
 11.900	-90.000	 63.19777	 23.34445	 26.51042	  2.29589	 50.96405	 -1.74774	 67.36308	712.20001	 32.00	
 11.892	-98.155	 63.18024	 19.87688	 30.07768	  2.64226	 50.56934	 -1.92149	 67.35844	712.23999	 32.00	
 11.893	-106.346	 63.15334	 16.50376	 33.72818	  3.27541	 49.60056	 -1.94988	 67.40847	712.12000	 32.00	
 11.903	-114.597	 63.09491	 13.36153	 37.20970	  4.37404	 48.07502	 -2.01747	 67.37150	712.20001	 32.00	
 11.897	-122.732	 63.05828	 10.50980	 40.43822	  5.74478	 46.08726	 -2.07626	 67.38321	712.21002	 32.00	
 11.894	-130.867	 63.03130	  8.06468	 43.44349	  7.52267	 43.58461	 -1.80222	 67.36783	712.21997	 32.00	
 11.902	-139.148	 62.98003	  5.92301	 46.16766	  9.83405	 40.60682	 -1.98824	 67.36128	712.25000	 32.00	
 11.909	-147.299	 62.96581	  4.21142	 48.33667	 12.35191	 37.41328	 -2.01432	 67.37036	712.20001	 32.00	
 11.889	-155.445	 62.91065	  2.85450	 49.99937	 15.19012	 33.98911	 -2.06286	 67.34833	712.19000	 32.00	
 11.890	-163.610	 62.91803	  1.87848	 51.32705	 18.38758	 30.41437	 -2.15057	 67.37171	712.15997	 32.10	
 11.899	-171.783	 62.85593	  1.19481	 52.00350	 21.75759	 26.74964	 -2.16662	 67.37938	712.34003	 32.10	
 11.900	180.000	 62.81578	  1.01540	 52.13382	 25.17555	 23.18177	 -2.15366	 67.37560	712.31000	 32.10	
 13.600	180.000	 61.20524	 -3.14238	 54.61998	 23.96844	 21.81324	 -2.57327	 67.37170	712.21002	 32.10	
 13.608	-172.853	 61.26991	 -3.00356	 54.56921	 20.55204	 25.32826	 -2.55009	 67.41196	712.38000	 32.10	
 13.611	-165.583	 61.31025	 -2.40726	 53.86704	 17.11497	 29.00791	 -2.52138	 67.37155	712.34998	 32.10	
 13.601	-158.353	 61.37093	 -1.40481	 52.84272	 13.88182	 32.68122	 -2.45742	 67.37729	712.34003	 32.10	
 13.609	-151.210	 61.40444	 -0.20823	 51.37122	 10.97088	 36.15416	 -2.35723	 67.36787	712.33002	 32.10	
 13.611	-143.999	 61.41709	  1.26186	 49.34679	  8.23390	 39.56303	 -2.23160	 67.36039	712.31000	 32.10	
 13.601	-136.825	 61.47061	  3.03547	 46.96151	  5.63085	 42.72926	 -2.21914	 67.38987	712.25000	 32.10	
 13.596	-129.640	 61.47190	  5.19694	 44.08567	  3.61591	 45.55051	 -2.24119	 67.34798	712.32001	 32.10	
 13.611	-122.431	 61.50721	  7.71752	 41.01769	  2.04731	 48.02933	 -2.24889	 67.34614	712.39001	 32.20	
 13.604	-115.211	 61.57024	 10.49925	 37.75505	  0.62175	 50.13311	 -2.20876	 67.38949	712.45001	 32.20	
 13.595	-108.042	 61.54413	 13.51380	 34.28266	 -0.43063	 51.67879	 -2.16014	 67.36501	712.34003	 32.20	
 13.607	-100.793	 61.57489	 16.71640	 30.59890	 -1.24057	 52.83374	 -2.09696	 67.36921	712.48999	 32.20	
 13.601	-93.617	 61.60324	 20.16933	 26.98016	 -1.69119	 53.48734	 -2.13582	 67.37045	712.32001	 32.20	
 13.601	-86.383	 61.64056	 23.69419	 23.50616	 -1.71435	 53.60042	 -2.20106	 67.37283	712.28998	 32.20	
 13.607	-79.207	 61.67936	 27.36135	 20.09594	 -1.33052	 53.19036	 -2.27615	 67.37064	712.31000	 32.20	
 13.595	-71.958	 61.68856	 31.12112	 16.76327	 -0.59827	 52.23310	 -2.31050	 67.34210	712.40002	 32.20	
 13.604	-64.789	 61.71888	 34.69924	 13.62106	  0.37195	 50.87929	 -2.31674	 67.34730	712.33002	 32.20	
 13.611	-57.569	 61.76740	 38.19254	 10.72252	  1.77032	 49.01789	 -2.27638	 67.37363	712.32001	 32.20	
 13.596	-50.360	 61.75349	 41.44275	  8.08284	  3.32253	 46.70576	 -2.27391	 67.35458	712.39001	 32.20	
 13.601	-43.175	 61.78077	 44.39838	  5.70117	  5.32256	 44.04893	 -2.29291	 67.38129	712.40997	 32.20	
 13.611	-36.001	 61.79739	 47.08520	  3.70719	  7.81505	 41.04131	 -2.32127	 67.38013	712.29999	 32.20	
 13.609	-28.790	 61.83931	 49.38202	  2.09515	 10.50916	 37.73266	 -2.29145	 67.39914	712.32001	 32.30	
 13.601	-21.647	 61.79763	 51.15212	  0.87176	 13.37377	 34.26818	 -2.19612	 67.35511	712.28003	 32.30	
 13.611	-14.417	 61.78010	 52.50796	 -0.03183	 16.59503	 30.55632	 -2.11502	 67.34045	712.33002	 32.30	
 13.608	 -7.147	 61.80330	 53.37845	 -0.62663	 20.10973	 26.82975	 -2.02653	 67.39444	712.25000	 32.30	
 13.600	  0.000	 61.81792	 53.68684	 -0.91397	 23.61388	 23.22068	 -2.01258	 67.40385	712.22998	 32.30	
 13.608	  7.147	 61.78407	 53.49718	 -0.82543	 27.16681	 19.62224	 -2.07355	 67.39585	712.25000	 32.30	
 13.611	 14.417	 61.73794	 52.76344	 -0.35393	 30.95193	 16.09429	 -2.11427	 67.37688	712.21997	 32.30	
 13.601	 21.647	 61.73137	 51.54634	  0.44194	 34.57228	 12.86189	 -2.05421	 67.39567	712.15002	 32.30	
 13.609	 28.790	 61.63310	 49.80912	  1.47587	 37.98341	  9.81992	 -1.99404	 67.35339	712.32001	 32.30	
 13.611	 36.001	 61.63154	 47.69123	  2.83598	 41.29300	  7.02897	 -2.02525	 67.39314	712.32001	 32.30	
 13.601	 43.175	 61.60045	 45.12749	  4.57408	 44.16574	  4.61138	 -2.17180	 67.38851	712.35999	 32.40	
 13.596	 50.360	 61.54261	 42.27652	  6.67541	 46.90124	  2.50550	 -2.36910	 67.34412	712.29999	 32.40	
 13.611	 57.569	 61.52238	 39.06576	  9.10841	 49.34564	  0.63205	 -2.48043	 67.35789	712.34998	 32.40	
 13.604	 64.789	 61.52720	 35.67343	 11.88862	 51.32817	 -0.80149	 -2.50603	 67.39375	712.28003	 32.40	
 13.595	 71.958	 61.48253	 32.10057	 14.89191	 52.75367	 -1.81737	 -2.51934	 67.35681	712.35999	 32.40	
 13.607	 79.207	 61.44733	 28.36267	 18.07905	 53.76763	 -2.62638	 -2.56931	 67.39557	712.34003	 32.40	
 13.601	 86.383	 61.36919	 24.71764	 21.43268	 54.28346	 -3.09181	 -2.53024	 67.36058	712.41998	 32.40	
 13.601	 93.617	 61.35184	 21.14907	 24.93705	 54.37054	 -3.16949	 -2.55040	 67.41948	712.23999	 32.40	
 13.607	100.793	 61.23296	 17.62693	 28.54800	 53.87464	 -2.88246	 -2.64908	 67.34398	712.28003	 32.40	
 13.595	108.042	 61.20585	 14.32884	 32.20152	 52.91300	 -2.18120	 -2.73110	 67.35156	712.29999	 32.40	
 13.604	115.211	 61.18343	 11.23820	 35.73774	 51.52286	 -1.22337	 -2.69775	 67.37342	712.32001	 32.40	
 13.611	122.431	 61.12395	  8.31319	 39.17603	 49.61877	  0.10148	 -2.69583	 67.35894	712.34998	 32.40	
 13.596	129.640	 61.13510	  5.72047	 42.40662	 47.28439	  1.80558	 -2.72091	 67.40167	712.34003	 32.40	
 13.601	136.825	 61.07733	  3.47836	 45.26126	 44.50467	  3.84045	 -2.76238	 67.36736	712.28003	 32.50	
 13.611	143.999	 61.04255	  1.46649	 47.86156	 41.60535	  6.18229	 -2.85571	 67.35356	712.35999	 32.40	
 13.609	151.210	 61.09386	 -0.11545	 50.16856	 38.33772	  8.90950	 -2.78465	 67.41038	712.28998	 32.40	
 13.601	158.353	 61.10068	 -1.34079	 51.98850	 34.86991	 11.82374	 -2.66695	 67.39977	712.27002	 32.40	
 13.611	165.583	 61.06084	 -2.32036	 53.30464	 31.25110	 14.90505	 -2.63097	 67.36923	712.42999	 32.40	
 13.608	172.853	 61.11403	 -2.91176	 54.16098	 27.45880	 18.29865	 -2.62197	 67.34416	712.33002	 32.50	
 15.298	173.587	 59.28709	 -6.96061	 56.47102	 26.01882	 16.87338	 -2.95771	 67.35835	712.34998	 32.50	
 15.291	167.167	 59.24520	 -6.35222	 55.68475	 29.66208	 13.54826	 -3.02774	 67.37825	712.29999	 32.50	
 15.307	160.676	 59.21216	 -5.57291	 54.48275	 33.36302	 10.39485	 -3.09915	 67.36620	712.26001	 32.50	
 15.300	154.261	 59.15234	 -4.48980	 52.79501	 36.92599	  7.38142	 -3.25026	 67.34565	712.29999	 32.50	
 15.288	147.854	 59.19977	 -3.02277	 50.77262	 40.31645	  4.63181	 -3.37562	 67.35339	712.39001	 32.50	
 15.293	141.428	 59.25361	 -1.28581	 48.36575	 43.43599	  2.25658	 -3.37501	 67.35773	712.39001	 32.50	
 15.299	134.985	 59.22726	  0.64537	 45.59129	 46.36235	  0.01577	 -3.35741	 67.31029	712.34003	 32.50	
 15.305	128.583	 59.22579	  2.97233	 42.58194	 49.09671	 -2.02374	 -3.33296	 67.33827	712.40002	 32.50	
 15.309	122.142	 59.26144	  5.54537	 39.33631	 51.41686	 -3.62301	 -3.33125	 67.35218	712.33002	 32.50	
 15.304	115.711	 59.32799	  8.36433	 35.88966	 53.28350	 -4.90973	 -3.32320	 67.34188	712.37000	 32.50	
 15.297	109.291	 59.39871	 11.40862	 32.35810	 54.69788	 -5.86134	 -3.33777	 67.35571	712.33002	 32.50	
 15.293	102.897	 59.46148	 14.60333	 28.73528	 55.79401	 -6.54659	 -3.35183	 67.36333	712.33002	 32.50	
 15.293	 96.458	 59.54587	 18.06946	 25.09717	 56.48418	 -6.87776	 -3.25449	 67.37392	712.37000	 32.50	
 15.300	 90.000	 59.58252	 21.57244	 21.57506	 56.64610	 -6.90431	 -3.19282	 67.36856	712.34998	 32.60	
 15.293	 83.542	 59.61985	 25.16001	 18.17869	 56.35449	 -6.71303	 -3.23632	 67.34630	712.50000	 32.60	
 15.293	 77.103	 59.63427	 28.81612	 14.90221	 55.58969	 -6.13826	 -3.26215	 67.30939	712.40002	 32.60	
 15.297	 70.709	 59.68080	 32.47219	 11.83626	 54.50024	 -5.31146	 -3.21881	 67.33485	712.37000	 32.60	
 15.304	 64.289	 59.71309	 36.03357	  8.93347	 53.02660	 -4.34650	 -3.17999	 67.35560	712.41998	 32.60	
 15.309	 57.858	 59.75234	 39.51374	  6.20941	 51.10453	 -2.97343	 -3.13952	 67.38714	712.29999	 32.60	
 15.305	 51.417	 59.75100	 42.71731	  3.83167	 48.72672	 -1.22045	 -3.02707	 67.36278	712.40002	 32.60	
 15.299	 45.015	 59.82729	 45.64659	  1.77713	 45.96230	  0.77782	 -2.86318	 67.36805	712.40002	 32.60	
 15.293	 38.572	 59.85681	 48.36695	 -0.09309	 43.07015	  3.06327	 -2.70110	 67.37392	712.39001	 32.60	
 15.288	 32.146	 59.83067	 50.67836	 -1.67004	 39.96655	  5.58485	 -2.64878	 67.35567	712.28998	 32.60	
 15.300	 25.739	 59.81329	 52.63088	 -3.00314	 36.55391	  8.43235	 -2.67094	 67.34617	712.34998	 32.60	
 15.307	 19.324	 59.85952	 54.14833	 -3.88725	 32.96506	 11.52341	 -2.70297	 67.33976	712.34998	 32.60	
 15.291	 12.833	 59.93969	 55.18405	 -4.18487	 29.30038	 14.85039	 -2.70000	 67.32505	712.40997	 32.60	
 15.298	  6.413	 59.96849	 55.81110	 -4.56902	 25.68032	 18.32931	 -2.63961	 67.33334	712.40997	 32.60	
 15.300	  0.000	 59.96120	 55.97941	 -4.64094	 22.07331	 21.92995	 -2.58466	 67.32028	712.31000	 32.70	
 15.298	 -6.413	 59.97637	 55.68024	 -4.43055	 18.63537	 25.46773	 -2.53649	 67.34717	712.35999	 32.70	
 15.291	-12.833	 60.00790	 54.91825	 -3.86755	 15.25794	 29.13173	 -2.55258	 67.34550	712.40997	 32.70	
 15.307	-19.324	 59.94769	 53.69300	 -3.14011	 11.99754	 32.83232	 -2.56857	 67.30375	712.39001	 32.70	
 15.300	-25.739	 59.93904	 52.09375	 -2.15528	  9.05095	 36.33292	 -2.57112	 67.29980	712.35999	 32.70	
 15.288	-32.146	 59.97644	 50.03600	 -0.71030	  6.20687	 39.83006	 -2.59272	 67.32617	712.29999	 32.70	
 15.293	-38.572	 59.97155	 47.58292	  0.94708	  3.79286	 43.06054	 -2.56445	 67.33620	712.37000	 32.70	
 15.299	-45.015	 59.94641	 44.78750	  3.00038	  1.55200	 45.97093	 -2.51058	 67.31654	712.37000	 32.70	
 15.305	-51.417	 59.92004	 41.79163	  5.31016	 -0.44883	 48.61982	 -2.44611	 67.33370	712.34003	 32.70	
 15.309	-57.858	 59.88667	 38.49477	  7.88514	 -2.06754	 50.92963	 -2.39427	 67.31585	712.34003	 32.70	
 15.304	-64.289	 59.85798	 34.98616	 10.76311	 -3.39726	 52.83473	 -2.35473	 67.32829	712.34998	 32.70	
 15.297	-70.709	 59.84647	 31.39868	 13.78336	 -4.33625	 54.23924	 -2.35761	 67.30600	712.29999	 32.70	
 15.293	-77.103	 59.79502	 27.69403	 16.93727	 -5.08414	 55.25890	 -2.28546	 67.30829	712.27002	 32.70	
 15.293	-83.542	 59.78366	 23.95408	 20.38066	 -5.54599	 55.83665	 -2.24206	 67.31683	712.39001	 32.70	
 15.300	-90.000	 59.76355	 20.36315	 23.85662	 -5.63884	 55.99368	 -2.15139	 67.34338	712.37000	 32.70	
 15.293	-96.458	 59.66345	 16.87441	 27.33134	 -5.49146	 55.55997	 -2.09754	 67.25961	712.38000	 32.70	
 15.293	-102.897	 59.64305	 13.49838	 30.93413	 -5.04152	 54.78251	 -2.08072	 67.29329	712.45001	 32.70	
 15.297	-109.291	 59.64470	 10.42099	 34.47897	 -4.17916	 53.59317	 -2.12185	 67.29707	712.29999	 32.70	
 15.304	-115.711	 59.60397	  7.52184	 37.95320	 -3.09411	 51.93992	 -2.16433	 67.26943	712.46002	 32.80	
 15.309	-122.142	 59.58038	  4.80838	 41.30484	 -1.76763	 49.86335	 -2.18248	 67.28633	712.47998	 32.80	
 15.305	-128.583	 59.56530	  2.37243	 44.41491	 -0.14241	 47.37350	 -2.22325	 67.27275	712.45001	 32.80	
 15.299	-134.985	 59.55301	  0.14707	 47.29586	  1.81019	 44.60828	 -2.25194	 67.28496	712.42999	 32.80	
 15.293	-141.428	 59.56153	 -1.75781	 49.88377	  4.20306	 41.55770	 -2.32596	 67.30519	712.41998	 32.80	
 15.288	-147.854	 59.53092	 -3.36197	 52.11156	  6.62931	 38.19093	 -2.41029	 67.29417	712.33002	 32.80	
 15.300	-154.261	 59.48297	 -4.62333	 53.86206	  9.46854	 34.73555	 -2.52513	 67.25981	712.40002	 32.80	
 15.307	-160.676	 59.42320	 -5.68573	 55.24303	 12.40912	 31.18777	 -2.63762	 67.27221	712.40997	 32.80	
 15.291	-167.167	 59.39539	 -6.44252	 56.14487	 15.69054	 27.46440	 -2.71178	 67.28316	712.52002	 32.80	
 15.298	-173.587	 59.35138	 -6.87355	 56.73719	 19.07381	 23.83208	 -2.77968	 67.30322	712.47998	 32.80	
 15.300	180.000	 59.28059	 -7.03757	 56.76466	 22.45136	 20.36323	 -2.85413	 67.26848	712.45001	 32.80	
 17.000	180.000	 57.21111	-11.04577	 58.87193	 20.77148	 18.77447	 -3.02396	 67.27948	712.50000	 32.80	
 16.990	-174.179	 57.27055	-10.78560	 58.79330	 17.51520	 22.13416	 -2.84278	 67.28155	712.41998	 32.80	
 17.009	-168.383	 57.28923	-10.48463	 58.30926	 14.19782	 25.70851	 -2.70705	 67.25894	712.46002	 32.80	
 17.000	-162.596	 57.34641	 -9.84877	 57.50745	 10.94492	 29.39813	 -2.59342	 67.24754	712.53998	 32.90	
 16.990	-156.759	 57.44088	 -8.91758	 56.26822	  7.93284	 33.01412	 -2.50685	 67.28101	712.50000	 32.90	
 16.995	-150.919	 57.46623	 -7.65621	 54.59029	  5.18091	 36.63215	 -2.41389	 67.25127	712.45001	 32.90	
 16.988	-145.161	 57.45763	 -6.26231	 52.55770	  2.52314	 40.02526	 -2.28325	 67.22218	712.56000	 32.90	
 17.014	-139.343	 57.48347	 -4.68150	 50.23763	  0.11054	 43.20896	 -2.21677	 67.23412	712.32001	 32.90	
 17.007	-133.546	 57.51405	 -2.76196	 47.47457	 -1.99554	 46.19428	 -2.13866	 67.23022	712.48999	 32.90	
 17.001	-127.699	 57.55254	 -0.56469	 44.52821	 -3.82862	 49.01246	 -2.05839	 67.26299	712.37000	 32.90	
 17.006	-121.937	 57.52893	  1.79531	 41.47107	 -5.43519	 51.43624	 -1.99186	 67.24174	712.41998	 32.90	
 17.002	-116.134	 57.55681	  4.46978	 38.11584	 -6.77129	 53.53547	 -1.98491	 67.26101	712.46997	 32.90	
 17.001	-110.310	 57.58424	  7.34738	 34.57404	 -7.87893	 55.22937	 -1.96344	 67.26054	712.47998	 32.90	
 16.988	-104.517	 57.60656	 10.36533	 31.00577	 -8.78863	 56.53379	 -1.94101	 67.27765	712.46002	 32.90	
 17.008	-98.662	 57.58518	 13.64576	 27.35814	 -9.41250	 57.46022	 -1.93203	 67.26204	712.46002	 32.90	
 16.996	-92.909	 57.63372	 17.02757	 23.93712	 -9.36405	 57.92453	 -2.01120	 67.22250	712.46997	 33.00	
 16.996	-87.091	 57.67205	 20.44606	 20.56423	 -9.44247	 58.04118	 -2.07674	 67.22388	712.47998	 33.00	
 17.012	-81.253	 57.69667	 24.11257	 17.14129	 -9.31635	 57.82068	 -2.10051	 67.24706	712.40997	 33.00	
 16.988	-75.483	 57.74525	 27.80007	 13.91161	 -8.77171	 57.05891	 -2.18143	 67.25299	712.46002	 33.00	
 17.001	-69.690	 57.72626	 31.46202	 10.77325	 -8.10417	 55.94841	 -2.20449	 67.23891	712.42999	 33.00	
 17.002	-63.866	 57.70766	 35.07926	  7.79996	 -7.15216	 54.47035	 -2.25910	 67.22581	712.40002	 33.00	
 17.006	-58.063	 57.75339	 38.62614	  5.01016	 -5.89356	 52.62466	 -2.32459	 67.25596	712.41998	 33.00	
 17.001	-52.301	 57.79495	 41.88638	  2.51014	 -4.26172	 50.35712	 -2.42568	 67.23387	712.34998	 33.00	
 17.007	-46.454	 57.82454	 45.02948	  0.22477	 -2.36638	 47.69708	 -2.46485	 67.22104	712.40002	 33.00	
 17.014	-40.657	 57.82126	 47.90549	 -1.85654	 -0.34067	 44.82254	 -2.56361	 67.22723	712.50000	 33.00	
 16.988	-34.839	 57.84597	 50.42899	 -3.55633	  2.01890	 41.72311	 -2.64518	 67.23285	712.50000	 33.00	
 16.995	-29.081	 57.90847	 52.67186	 -4.90426	  4.71501	 38.40193	 -2.68272	 67.25344	712.38000	 32.90	
 16.990	-23.241	 57.93171	 54.51876	 -6.05722	  7.47318	 34.87025	 -2.75301	 67.25793	712.39001	 32.90	
 17.000	-17.404	 57.89095	 55.98753	 -6.99771	 10.42309	 31.27048	 -2.84180	 67.22622	712.44000	 32.90	
 17.009	-11.617	 57.92185	 57.13473	 -7.66520	 13.65415	 27.63281	 -2.87764	 67.26579	712.47998	 32.90	
 16.990	 -5.821	 57.92348	 57.78013	 -8.13727	 17.04838	 23.97405	 -2.93162	 67.23248	712.45001	 33.00	
 17.000	  0.000	 57.93666	 58.09270	 -8.32301	 20.48066	 20.43491	 -3.04161	 67.26679	712.42999	 32.90	
 16.990	  5.821	 57.93477	 57.96359	 -8.40901	 24.03083	 16.88139	 -3.17636	 67.27266	712.40997	 33.00	
 17.009	 11.617	 57.85415	 57.39895	 -8.34282	 27.56709	 13.40957	 -3.25629	 67.26569	712.41998	 33.00	
 17.000	 17.404	 57.80410	 56.42014	 -7.97692	 31.10048	 10.19230	 -3.28724	 67.26675	712.45001	 33.00	
 16.990	 23.241	 57.75879	 55.01294	 -7.20725	 34.85305	  7.01941	 -3.28825	 67.26444	712.46997	 33.00	
 16.995	 29.081	 57.68977	 53.23223	 -6.09102	 38.38172	  3.99946	 -3.27956	 67.22836	712.40997	 33.00	
 16.988	 34.839	 57.74104	 51.18576	 -4.66511	 41.62865	  1.43602	 -3.34746	 67.29185	712.39001	 33.00	
 17.014	 40.657	 57.72027	 48.68304	 -3.02911	 44.65730	 -0.95176	 -3.44888	 67.27389	712.44000	 33.00	
 17.007	 46.454	 57.73830	 45.86489	 -1.01276	 47.63191	 -2.97583	 -3.57998	 67.27964	712.51001	 33.00	
 17.001	 52.301	 57.67764	 42.86403	  1.01825	 50.27867	 -4.85194	 -3.70249	 67.24767	712.57001	 33.00	
 17.006	 58.063	 57.65215	 39.69502	  3.24431	 52.53089	 -6.51866	 -3.82145	 67.25913	712.40997	 33.00	
 17.002	 63.866	 57.60762	 36.21905	  5.79006	 54.44134	 -7.99797	 -3.88138	 67.24900	712.35999	 33.00	
 17.001	 69.690	 57.58573	 32.60826	  8.66295	 56.09007	 -8.99759	 -3.94937	 67.25680	712.44000	 33.10	
 16.988	 75.483	 57.53886	 28.95386	 11.67436	 57.29178	 -9.74370	 -3.98957	 67.21776	712.35999	 33.10	
 17.012	 81.253	 57.50402	 25.32919	 14.84324	 58.19036	-10.40248	 -4.01365	 67.27317	712.42999	 33.10	
 16.996	 87.091	 57.47798	 21.75966	 18.16517	 58.62847	-10.62857	 -3.95226	 67.27163	712.47998	 33.10	
 16.996	 92.909	 57.41964	 18.27621	 21.50930	 58.67817	-10.76406	 -3.96022	 67.25141	712.47998	 33.10	
 17.008	 98.662	 57.32899	 14.86093	 24.95042	 58.31782	-10.80605	 -4.01894	 67.23418	712.45001	 33.10	
 16.988	104.517	 57.30399	 11.51154	 28.61481	 57.47615	-10.35433	 -4.01258	 67.22787	712.38000	 33.10	
 17.001	110.310	 57.24454	  8.39051	 32.24731	 56.29345	 -9.61607	 -3.97583	 67.23695	712.46997	 33.10	
 17.002	116.134	 57.20140	  5.42866	 35.90250	 54.71941	 -8.53513	 -3.91832	 67.22587	712.44000	 33.10	
 17.006	121.937	 57.14450	  2.64811	 39.32276	 52.86895	 -7.23508	 -3.89232	 67.22067	712.41998	 33.10	
 17.001	127.699	 57.11081	  0.07959	 42.52621	 50.66319	 -5.69145	 -3.88145	 67.22643	712.44000	 33.20	
 17.007	133.546	 57.07574	 -2.15479	 45.62688	 48.03583	 -3.79019	 -3.88527	 67.21952	712.46997	 33.20	
 17.014	139.343	 57.04847	 -4.12835	 48.50349	 45.09329	 -1.73388	 -3.86050	 67.22119	712.53003	 33.20	
 16.988	145.161	 57.06158	 -5.82051	 51.05801	 41.99342	  0.57310	 -3.79252	 67.21857	712.47998	 33.20	
 16.995	150.919	 56.99961	 -7.40964	 53.21786	 38.79035	  2.98347	 -3.69955	 67.21420	712.50000	 33.20	
 16.990	156.759	 57.02956	 -8.67627	 55.09549	 35.30692	  5.83927	 -3.54130	 67.22002	712.53998	 33.20	
 17.000	162.596	 57.04060	 -9.66060	 56.60158	 31.60815	  8.89891	 -3.41482	 67.21618	712.50000	 33.20	
 17.009	168.383	 57.06044	-10.44295	 57.74285	 27.95726	 11.99060	 -3.31304	 67.23095	712.45001	 33.20	
 16.990	174.179	 57.11265	-10.98745	 58.44627	 24.29655	 15.33619	 -3.17876	 67.20968	712.47998	 33.20	
 18.709	174.675	 54.82502	-14.93464	 60.35729	 22.49071	 13.64984	 -3.28940	 67.21443	712.42999	 33.20	
 18.703	169.441	 54.78669	-14.46944	 59.72088	 26.14391	 10.38211	 -3.42715	 67.22646	712.53003	 33.20	
 18.691	164.085	 54.76013	-13.69626	 58.65161	 29.77314	  7.21637	 -3.53316	 67.21793	712.45001	 33.20	
 18.706	158.818	 54.72020	-12.83874	 57.25696	 33.46738	  4.13196	 -3.64790	 67.21075	712.50000	 33.20	
 18.695	153.537	 54.77055	-11.69325	 55.52334	 37.06874	  1.27690	 -3.78425	 67.24681	712.48999	 33.20	
 18.704	148.255	 54.79930	-10.26027	 53.47684	 40.38810	 -1.17742	 -3.93181	 67.22770	712.46997	 33.20	
 18.698	142.952	 54.79256	 -8.65928	 51.11551	 43.57826	 -3.47318	 -4.05897	 67.18530	712.40002	 33.20	
 18.699	137.625	 54.81710	 -6.89624	 48.44059	 46.66541	 -5.63239	 -4.17828	 67.20335	712.44000	 33.20	
 18.705	132.343	 54.84027	 -4.91892	 45.51824	 49.51597	 -7.62484	 -4.13125	 67.17165	712.53003	 33.20	
 18.713	127.067	 54.94961	 -2.72388	 42.46370	 52.06636	 -9.36398	 -4.17309	 67.23431	712.44000	 33.30	
 18.700	121.794	 54.93167	 -0.30722	 39.16647	 54.24553	-10.94928	 -4.19666	 67.19594	712.47998	 33.30	
 18.698	116.504	 54.94107	  2.34614	 35.73039	 56.15510	-12.30701	 -4.26433	 67.19671	712.41998	 33.30	
 18.707	111.165	 54.99399	  5.33680	 32.03614	 57.80656	-13.39870	 -4.38052	 67.18655	712.54999	 33.30	
 18.690	105.863	 55.06790	  8.45156	 28.40527	 59.01785	-14.15543	 -4.43788	 67.20109	712.47998	 33.30	
 18.696	100.583	 55.06707	 11.63065	 24.78309	 59.88665	-14.69207	 -4.54268	 67.14338	712.41998	 33.30	
 18.700	 95.309	 55.13423	 15.00044	 21.23915	 60.42305	-14.84883	 -4.56966	 67.17793	712.53003	 33.30	
 18.700	 90.000	 55.23465	 18.25378	 18.11498	 60.54020	-14.53041	 -4.52537	 67.17789	712.54999	 33.30	
 18.700	 84.691	 55.27306	 21.64451	 14.88849	 60.35267	-14.55842	 -4.51198	 67.17769	712.46002	 33.30	
 18.696	 79.417	 55.31385	 25.30127	 11.59477	 59.78568	-14.21338	 -4.50968	 67.18463	712.65997	 33.30	
 18.690	 74.137	 55.39541	 28.96538	  8.47576	 58.86457	-13.56470	 -4.48226	 67.22552	712.46002	 33.30	
 18.707	 68.835	 55.38276	 32.53982	  5.43477	 57.52295	-12.77349	 -4.43436	 67.19218	711.83002	 33.30	
 18.698	 63.496	 55.44506	 36.23503	  2.62429	 55.83324	-11.68418	 -4.32647	 67.19986	712.52002	 33.30	
 18.700	 58.206	 55.50469	 39.72590	  0.24431	 53.84467	-10.08247	 -4.28637	 67.18778	712.64001	 33.30	
 18.713	 52.933	 55.53460	 42.97499	 -1.93576	 51.60726	 -8.47651	 -4.20999	 67.19990	712.53003	 33.30	
 18.705	 47.657	 55.60030	 46.00147	 -3.87812	 49.07671	 -6.66297	 -4.10197	 67.22494	712.53998	 33.30	
 18.699	 42.375	 55.57805	 48.84721	 -5.83288	 46.21364	 -4.76383	 -4.00550	 67.20002	712.52002	 33.30	
 18.698	 37.048	 55.54832	 51.44020	 -7.69422	 43.09034	 -2.65498	 -3.88549	 67.17725	712.56000	 33.30	
 18.704	 31.745	 55.54991	 53.71414	 -9.11365	 39.85121	 -0.19007	 -3.76353	 67.18124	712.40002	 33.30	
 18.695	 26.463	 55.59240	 55.64096	-10.28836	 36.52450	  2.49725	 -3.69055	 67.21757	712.40997	 33.30	
 18.706	 21.182	 55.60101	 57.27488	-11.34766	 32.88605	  5.42892	 -3.66414	 67.20150	712.40002	 33.30	
 18.691	 15.915	 55.63076	 58.52940	-12.00425	 29.22919	  8.57163	 -3.60905	 67.19894	712.46997	 33.30	
 18.703	 10.559	 55.62370	 59.45606	-12.44844	 25.60113	 11.85989	 -3.54988	 67.19742	712.59003	 33.30	
 18.709	  5.325	 55.65688	 59.95164	-12.42132	 22.07146	 15.28248	 -3.46186	 67.18236	712.50000	 33.30	
 18.700	  0.000	 55.73196	 60.01404	-12.07999	 18.74548	 18.72690	 -3.25876	 67.16546	712.47998	 33.30	
 18.709	 -5.325	 55.75434	 59.77293	-11.92581	 15.42359	 22.22016	 -3.10124	 67.19214	712.53003	 33.30	
 18.703	-10.559	 55.74401	 59.13847	-11.44954	 12.08791	 25.84372	 -2.93007	 67.16418	712.47998	 33.30	
 18.691	-15.915	 55.72318	 58.13111	-11.02155	  8.81752	 29.47356	 -2.81182	 67.16467	712.46002	 33.30	
 18.706	-21.182	 55.72360	 56.80813	-10.26963	  5.92351	 33.05841	 -2.68578	 67.17980	712.46997	 33.30	
 18.695	-26.463	 55.74163	 55.07324	 -9.08029	  3.08011	 36.67348	 -2.57420	 67.18462	712.59998	 33.40	
 18.704	-31.745	 55.67416	 53.04567	 -7.90306	  0.33037	 40.12039	 -2.46032	 67.16106	712.53003	 33.40	
 18.698	-37.048	 55.68794	 50.71937	 -6.33200	 -1.98138	 43.29354	 -2.39850	 67.16385	712.47998	 33.40	
 18.699	-42.375	 55.70616	 48.08614	 -4.57111	 -4.12008	 46.37802	 -2.29491	 67.22521	712.45001	 33.40	
 18.705	-47.657	 55.65335	 45.09499	 -2.56828	 -6.07760	 49.20913	 -2.25094	 67.18851	712.50000	 33.40	
 18.713	-52.933	 55.56478	 41.90722	 -0.34387	 -7.95390	 51.76914	 -2.17510	 67.15956	712.53998	 33.40	
 18.700	-58.206	 55.55011	 38.61723	  2.08400	 -9.45470	 53.91432	 -2.07077	 67.14843	712.53998	 33.40	
 18.698	-63.496	 55.51983	 35.08472	  4.82766	-10.74690	 55.79091	 -2.01161	 67.12808	712.63000	 33.40	
 18.707	-68.835	 55.48987	 31.39623	  7.66642	-11.84573	 57.40255	 -1.92793	 67.14478	711.88000	 33.40	
 18.690	-74.137	 55.50696	 27.71473	 10.71345	-12.60837	 58.63746	 -1.90683	 67.16982	711.88000	 33.40	
 18.696	-79.417	 55.46415	 24.01423	 13.87058	-13.15678	 59.52379	 -1.86731	 67.17575	711.84998	 33.40	
 18.700	-84.691	 55.44304	 20.33956	 17.21415	-13.48491	 59.94205	 -1.86995	 67.19662	711.90997	 33.50	
 18.700	-90.000	 55.44432	 16.95257	 20.51403	-13.36691	 60.00113	 -1.81940	 67.19504	712.16998	 33.50	
 18.700	-95.309	 55.36243	 13.74231	 23.66161	-13.48342	 59.69252	 -1.68328	 67.17116	711.83002	 33.50	
 18.696	-100.583	 55.34401	 10.34591	 27.27630	-13.15831	 59.04918	 -1.63569	 67.17741	711.72998	 33.50	
 18.690	-105.863	 55.33862	  7.18310	 30.86019	-12.45234	 58.00070	 -1.63876	 67.18446	711.84998	 33.50	
 18.707	-111.165	 55.29929	  4.16124	 34.45370	-11.53645	 56.58276	 -1.68177	 67.15459	711.84003	 33.50	
 18.698	-116.504	 55.33463	  1.32094	 38.04316	-10.31664	 54.78094	 -1.69719	 67.15572	711.84998	 33.50	
 18.700	-121.794	 55.33345	 -1.30886	 41.40026	 -9.03995	 52.70537	 -1.73325	 67.16092	711.88000	 33.50	
 18.713	-127.067	 55.31200	 -3.61589	 44.43970	 -7.54039	 50.34383	 -1.78137	 67.16518	711.77002	 33.40	
 18.705	-132.343	 55.31866	 -5.59325	 47.42464	 -5.65493	 47.61389	 -1.85700	 67.14420	711.84998	 33.50	
 18.699	-137.625	 55.31607	 -7.42119	 50.24012	 -3.68731	 44.69204	 -1.92895	 67.17110	711.78003	 33.50	
 18.698	-142.952	 55.28925	 -9.10950	 52.72208	 -1.50528	 41.51609	 -2.02905	 67.14322	711.79999	 33.50	
 18.704	-148.255	 55.26168	-10.62415	 54.89554	  0.85743	 38.21866	 -2.12492	 67.18597	711.87000	 33.50	
 18.695	-153.537	 55.22213	-12.06914	 56.75863	  3.54937	 34.65845	 -2.18897	 67.15500	711.73999	 33.50	
 18.706	-158.818	 55.16843	-13.29254	 58.34836	  6.43411	 30.97375	 -2.30321	 67.19228	711.78003	 33.50	
 18.691	-164.085	 55.11198	-14.03415	 59.48396	  9.37699	 27.39921	 -2.37803	 67.19591	712.41998	 33.50	
 18.703	-169.441	 55.01435	-14.55945	 60.19221	 12.64614	 23.65089	 -2.50207	 67.16877	711.79999	 33.50	
 18.709	-174.675	 54.95050	-14.77813	 60.62623	 15.80029	 20.21008	 -2.67125	 67.17728	711.90997	 33.50	
 18.700	180.000	 54.90226	-14.99811	 60.65797	 18.89682	 17.07258	 -3.01844	 67.18018	712.39001	 33.50	
 20.400	180.000	 52.56274	-18.79517	 62.26795	 16.92201	 15.26309	 -3.03304	 67.15459	712.51001	 33.50	
 20.401	-175.153	 52.60397	-18.64575	 62.20566	 14.14959	 18.04852	 -2.49836	 67.12447	711.89001	 33.50	
 20.407	-170.264	 52.70176	-18.43488	 61.86612	 11.00012	 21.52524	 -2.29125	 67.15092	712.02002	 33.50	
 20.410	-165.423	 52.74038	-18.06558	 61.23581	  7.73013	 25.19913	 -2.17720	 67.12920	711.98999	 33.50	
 20.392	-160.496	 52.83113	-17.33903	 60.14212	  4.67027	 28.85108	 -2.08520	 67.13107	711.97998	 33.50	
 20.401	-155.705	 52.85710	-16.34721	 58.73453	  1.87814	 32.42622	 -2.01477	 67.12245	711.98999	 33.50	
 20.405	-150.835	 52.91364	-14.99027	 56.99621	 -0.78582	 36.10501	 -1.93526	 67.13254	711.94000	 33.50	
 20.397	-145.903	 53.02738	-13.46485	 54.95203	 -3.17361	 39.63057	 -1.91361	 67.15993	711.90997	 33.50	
 20.392	-141.062	 53.03108	-11.88454	 52.63095	 -5.38892	 42.88945	 -1.82348	 67.12180	711.85999	 33.50	
 20.396	-136.227	 53.06870	-10.13948	 50.08758	 -7.41217	 45.98110	 -1.75760	 67.15699	711.94000	 33.50	
 20.408	-131.372	 53.07800	 -8.37542	 47.25359	 -9.29518	 48.82987	 -1.73424	 67.14697	712.58002	 33.50	
 20.410	-126.511	 53.07073	 -6.47139	 44.21342	-11.09303	 51.47347	 -1.60453	 67.13805	711.90002	 33.50	
 20.400	-121.604	 53.08330	 -4.21683	 40.99973	-12.65540	 53.91917	 -1.57201	 67.16142	711.91998	 33.50	
 20.403	-116.741	 53.00390	 -1.82670	 37.62590	-13.89337	 55.93793	 -1.56847	 67.09977	711.97998	 33.50	
 20.413	-111.900	 53.00049	  0.88405	 34.08453	-15.07794	 57.79358	 -1.53212	 67.14596	712.67999	 33.50	
 20.398	-107.004	 53.00940	  3.87578	 30.48732	-16.03866	 59.30655	 -1.49568	 67.15184	711.82001	 33.50	
 20.394	-102.132	 52.93638	  6.91861	 26.88433	-16.84514	 60.40643	 -1.51590	 67.10854	711.85999	 33.60	
 20.403	-97.332	 52.93682	 10.15236	 23.30275	-17.35519	 61.19385	 -1.51136	 67.12500	711.88000	 33.50	
 20.392	-92.440	 53.00918	 13.62635	 19.79117	-17.45483	 61.62234	 -1.51737	 67.14745	711.92999	 33.60	
 20.392	-87.560	 53.04045	 16.47040	 17.05967	-17.41879	 61.72546	 -1.68988	 67.16351	711.97998	 33.60	
 20.403	-82.668	 53.03601	 20.00633	 13.73819	-17.34919	 61.55490	 -1.72103	 67.15160	711.94000	 33.60	
 20.394	-77.868	 53.08604	 23.68186	 10.55044	-16.94362	 60.96856	 -1.72486	 67.13731	711.79999	 33.60	
 20.398	-72.996	 53.12428	 27.33851	  7.46612	-16.36258	 60.06977	 -1.75038	 67.14998	711.89001	 33.60	
 20.413	-68.100	 53.14240	 31.03000	  4.51487	-15.52126	 58.77180	 -1.79233	 67.13486	711.84003	 33.60	
 20.403	-63.259	 53.24663	 34.72382	  1.79015	-14.38648	 57.24477	 -1.85328	 67.15952	711.89001	 33.60	
 20.400	-58.396	 53.27403	 38.25797	 -0.79152	-13.05496	 55.36887	 -1.94668	 67.15821	711.90997	 33.60	
 20.410	-53.489	 53.29773	 41.66726	 -3.23652	-11.45906	 53.08171	 -1.99536	 67.13010	711.84998	 33.60	
 20.408	-48.628	 53.29507	 44.85208	 -5.45931	 -9.86288	 50.59786	 -2.05714	 67.13245	711.84003	 33.60	
 20.396	-43.773	 53.34844	 47.82448	 -7.32939	 -8.02254	 47.86255	 -2.16824	 67.12921	711.87000	 33.60	
 20.392	-38.938	 53.39777	 50.60627	 -9.01004	 -5.93495	 44.87856	 -2.24274	 67.11824	711.91998	 33.60	
 20.397	-34.097	 53.42274	 53.08416	-10.61109	 -3.71665	 41.71985	 -2.27574	 67.12227	711.84003	 33.60	
 20.405	-29.165	 53.37993	 55.31768	-12.32286	 -1.35074	 38.30162	 -2.34954	 67.12841	711.85999	 33.60	
 20.401	-24.295	 53.36272	 57.20656	-13.62008	  1.30394	 34.70458	 -2.47951	 67.10327	711.84003	 33.60	
 20.392	-19.504	 53.39131	 58.77463	-14.55611	  4.15531	 31.14730	 -2.60542	 67.12293	711.90997	 33.60	
 20.410	-14.577	 53.39334	 60.03997	-15.21602	  7.21762	 27.54677	 -2.73834	 67.12087	711.92999	 33.60	
 20.407	 -9.736	 53.46519	 60.94026	-15.44576	 10.36492	 24.02514	 -2.91548	 67.16167	711.89001	 33.60	
 20.401	 -4.847	 53.45947	 61.47534	-15.67914	 13.65112	 20.41994	 -3.14211	 67.14491	711.89001	 33.60	
 20.400	  0.000	 53.42488	 61.70057	-15.75797	 16.81936	 17.09867	 -3.38452	 67.09994	711.94000	 33.60	
 20.401	  4.847	 53.38061	 61.66057	-16.30530	 19.95170	 13.78544	 -3.68301	 67.15423	711.83002	 33.60	
 20.407	  9.736	 53.29519	 61.17387	-16.34661	 23.56117	 10.23255	 -3.71605	 67.12334	711.94000	 33.60	
 20.410	 14.577	 53.27449	 60.43347	-16.01534	 27.11123	  6.92097	 -3.79647	 67.12924	711.84003	 33.60	
 20.392	 19.504	 53.28896	 59.24140	-15.36433	 30.79864	  3.76452	 -3.92816	 67.14618	711.82001	 33.60	
 20.401	 24.295	 53.23375	 57.74878	-14.49216	 34.35616	  0.84340	 -4.05196	 67.12695	711.88000	 33.60	
 20.405	 29.165	 53.24445	 55.95216	-13.35093	 37.84594	 -1.83137	 -4.15491	 67.14382	711.90997	 33.70	
 20.397	 34.097	 53.24524	 53.79279	-12.10964	 41.25408	 -4.36071	 -4.23307	 67.12572	711.83002	 33.70	
 20.392	 38.938	 53.23148	 51.41809	-10.64978	 44.41076	 -6.62481	 -4.35971	 67.12684	711.91998	 33.70	
 20.396	 43.773	 53.28830	 48.77542	 -8.79663	 47.39786	 -8.47079	 -4.49603	 67.14629	712.07001	 33.70	
 20.408	 48.628	 53.25737	 45.84199	 -7.05942	 50.19068	-10.43121	 -4.60139	 67.14007	711.97998	 33.70	
 20.410	 53.489	 53.24720	 42.78476	 -5.08198	 52.75729	-12.19770	 -4.66744	 67.15346	711.91998	 33.70	
 20.400	 58.396	 53.19513	 39.49519	 -2.89542	 55.01056	-13.68852	 -4.74928	 67.15158	711.92999	 33.70	
 20.403	 63.259	 53.09792	 35.98122	 -0.54512	 56.96506	-15.17019	 -4.81058	 67.14751	712.00000	 33.70	
 20.413	 68.100	 53.03123	 32.34709	  2.10328	 58.65748	-16.32779	 -4.89624	 67.14425	711.85999	 33.70	
 20.398	 72.996	 53.02798	 28.77971	  5.04075	 60.04199	-17.17522	 -4.95591	 67.13277	711.92999	 33.70	
 20.394	 77.868	 52.99937	 25.13617	  8.14174	 61.05062	-17.87641	 -5.06342	 67.13815	711.79999	 33.70	
 20.403	 82.668	 52.94709	 21.46127	 11.33420	 61.74363	-18.39459	 -5.10774	 67.12172	711.90002	 33.70	
 20.392	 87.560	 52.94712	 17.88323	 14.67096	 62.08923	-18.47015	 -5.16009	 67.12764	712.01001	 33.70	
 20.392	 92.440	 52.90702	 14.98765	 17.44582	 62.15022	-18.54155	 -5.12067	 67.14605	711.90002	 33.70	
 20.403	 97.332	 52.77636	 11.65067	 20.80505	 61.85977	-18.64672	 -5.06641	 67.10400	711.94000	 33.70	
 20.394	102.132	 52.74345	  8.40416	 24.36984	 61.22238	-18.33688	 -4.93646	 67.10558	712.06000	 33.70	
 20.398	107.004	 52.67067	  5.21252	 27.98883	 60.26592	-17.74967	 -4.79058	 67.10681	711.90997	 33.70	
 20.413	111.900	 52.58738	  2.13202	 31.59348	 58.99571	-16.95851	 -4.68663	 67.12557	711.79999	 33.70	
 20.403	116.741	 52.54924	 -0.61757	 35.18250	 57.42563	-15.87325	 -4.61313	 67.15270	711.92999	 33.70	
 20.400	121.604	 52.48457	 -3.14506	 38.64099	 55.42596	-14.52790	 -4.55308	 67.08907	712.03998	 33.70	
 20.410	126.511	 52.39061	 -5.49200	 42.01339	 53.21665	-12.96533	 -4.47075	 67.11392	711.89001	 33.70	
 20.408	131.372	 52.31576	 -7.65879	 45.11102	 50.69576	-11.23308	 -4.37698	 67.09967	711.98999	 33.70	
 20.396	136.227	 52.37764	 -9.58246	 48.06540	 47.84340	 -9.36455	 -4.26337	 67.06345	711.89001	 33.70	
 20.392	141.062	 52.35996	-11.36279	 50.84579	 44.89724	 -7.42214	 -4.15725	 67.09542	712.00000	 33.70	
 20.397	145.903	 52.37234	-13.03665	 53.36514	 41.82718	 -5.33574	 -3.99324	 67.12271	711.96002	 33.70	
 20.405	150.835	 52.32376	-14.57690	 55.62980	 38.43409	 -2.96863	 -3.84569	 67.10818	712.09003	 33.70	
 20.401	155.705	 52.34148	-15.80311	 57.53558	 34.98040	 -0.44711	 -3.69998	 67.11482	711.96997	 33.70	
 20.392	160.496	 52.34658	-16.77075	 59.02671	 31.33833	  2.32173	 -3.58403	 67.08018	712.00000	 33.70	
 20.410	165.423	 52.37906	-17.69758	 60.36928	 27.75703	  5.38827	 -3.51310	 67.10234	711.96997	 33.80	
 20.407	170.264	 52.37685	-18.36563	 61.30197	 24.16699	  8.51228	 -3.38041	 67.09224	712.00000	 33.70	
 20.401	175.153	 52.44306	-18.73607	 61.92837	 20.49317	 11.87271	 -3.27513	 67.10129	712.09998	 33.70	
  0.141	 45.000	 67.16267	 28.10872	 29.79185	 29.43616	 27.82562	  1.13072	 67.10756	711.87000	 33.80	
  4.001	128.691	 66.89175	 22.18429	 34.61824	 35.63519	 20.77752	  0.75257	 67.15918	711.90997	 33.80	
  4.002	 76.995	 66.92156	 29.55051	 27.20188	 37.27723	 19.36465	  0.95683	 67.13007	711.90997	 33.80	
  4.002	 25.892	 66.99351	 35.52436	 21.76181	 32.42294	 23.91622	  1.08683	 67.12517	711.90997	 33.80	
  4.002	-25.892	 67.01588	 35.33277	 22.21459	 24.89939	 31.50385	  0.96905	 67.11697	711.91998	 33.80	
  4.002	-76.995	 66.97366	 29.18320	 28.02619	 20.51019	 36.20525	  0.73312	 67.11099	711.91998	 33.80	
  4.001	-128.691	 66.87955	 21.85411	 35.26688	 22.14234	 34.19088	  0.58980	 67.11577	711.90997	 33.80	
  4.000	180.000	 66.85143	 18.90968	 38.14686	 28.80076	 27.27227	  0.59360	 67.13659	711.90997	 33.80	
  8.000	180.000	 65.31300	  9.87170	 45.56682	 27.38872	 25.56756	 -0.45397	 67.09706	711.92999	 33.80	
  7.991	-152.370	 65.39113	 11.48464	 43.82697	 19.71490	 33.73527	 -0.46474	 67.10101	711.97998	 33.80	
  7.997	-124.550	 65.51105	 16.33644	 38.29362	 14.20658	 40.48174	 -0.51754	 67.13663	711.84998	 33.80	
  8.006	-96.837	 65.56620	 23.60901	 30.59461	 11.41527	 43.98065	 -0.45000	 67.11438	711.85999	 33.80	
  7.988	-69.228	 65.61037	 31.94460	 22.48066	 12.22062	 43.05200	 -0.29717	 67.07720	711.90002	 33.80	
  7.997	-41.563	 65.66317	 39.21628	 16.34710	 16.21259	 38.26490	 -0.10839	 67.09810	711.85999	 33.80	
  8.008	-13.821	 65.67428	 43.60309	 12.66790	 23.01655	 30.59386	  0.19985	 67.11162	711.84003	 33.80	
  8.008	 13.821	 65.59286	 43.73809	 12.20461	 31.34969	 22.30470	  0.35872	 67.06598	711.90002	 33.80	
  7.997	 41.563	 65.58633	 39.72149	 15.45530	 38.87329	 15.40533	  0.24533	 67.11629	711.94000	 33.80	
  7.988	 69.228	 65.45545	 32.56266	 21.44391	 43.78993	 11.05558	  0.11005	 67.07005	711.84998	 33.80	
  8.006	 96.837	 65.37273	 24.23127	 29.22750	 45.09600	  9.89429	 -0.06990	 67.09573	711.81000	 33.80	
  7.997	124.550	 65.26393	 16.76731	 37.13644	 41.93740	 12.32802	 -0.20725	 67.06860	711.85999	 33.80	
  7.991	152.370	 65.25077	 11.71380	 43.08686	 35.58751	 17.88376	 -0.40682	 67.08395	711.90002	 33.90	
 12.009	161.059	 62.33898	  1.99355	 50.19829	 33.52515	 15.06663	 -2.09869	 67.07633	711.91998	 33.80	
 12.013	142.081	 62.34838	  5.22518	 45.62022	 41.25924	  8.49786	 -2.17149	 67.08350	711.78998	 33.90	
 12.006	123.113	 62.41958	 10.72943	 38.77430	 47.38466	  3.92233	 -2.04503	 67.06926	711.78003	 33.80	
 12.007	104.200	 62.50718	 17.90291	 30.74650	 51.00331	  1.27495	 -2.02548	 67.06020	711.85999	 33.80	
 11.989	 85.301	 62.65554	 26.10053	 22.50118	 51.63571	  0.89520	 -1.86379	 67.06989	711.90997	 33.80	
 12.013	 66.294	 62.71711	 34.64434	 14.94401	 49.40181	  2.68657	 -1.83631	 67.06429	711.85999	 33.80	
 12.012	 47.388	 62.78127	 42.14448	  8.92914	 44.28609	  6.59489	 -1.66991	 67.07598	711.84998	 33.80	
 11.990	 28.440	 62.88425	 47.74522	  5.01087	 37.21190	 12.56500	 -1.36858	 67.07876	711.79999	 33.80	
 11.991	  9.464	 62.98532	 50.69289	  3.00760	 28.96462	 20.12502	 -1.31819	 67.08775	711.78998	 33.80	
 11.991	 -9.464	 63.01265	 50.54928	  3.34162	 20.68068	 28.49751	 -1.36422	 67.09383	711.84003	 33.90	
 11.990	-28.440	 62.99201	 47.27790	  5.78952	 13.19734	 36.89169	 -1.79178	 67.06676	711.88000	 33.90	
 12.012	-47.388	 62.94020	 41.41411	 10.15461	  7.50132	 43.98182	 -1.83841	 67.06904	711.90002	 33.90	
 12.013	-66.294	 62.92088	 33.77161	 16.42820	  3.77534	 48.87710	 -1.96936	 67.08041	711.76001	 33.90	
 11.989	-85.301	 62.84753	 25.18604	 24.32078	  2.01442	 50.85929	 -1.75974	 67.02841	711.83002	 33.90	
 12.007	-104.200	 62.73520	 17.08309	 32.58602	  2.84579	 49.83319	 -1.92881	 67.02495	711.75000	 33.90	
 12.006	-123.113	 62.65063	 10.04924	 40.42470	  5.35435	 45.91216	 -2.06733	 67.03333	711.73999	 33.90	
 12.013	-142.081	 62.60624	  5.00515	 46.91735	 10.44845	 39.41072	 -1.98579	 67.05018	711.92999	 33.90	
 12.009	-161.059	 62.52011	  1.85598	 50.85320	 17.09856	 31.44210	 -2.14307	 67.02231	711.87000	 33.90	
 16.000	180.000	 58.27990	 -8.68314	 57.48227	 21.72509	 19.65067	 -2.93653	 67.06549	711.84003	 33.90	
 15.990	-165.604	 58.41688	 -7.87441	 56.58379	 13.97398	 27.92229	 -2.68941	 67.03876	711.85999	 33.90	
 16.002	-151.165	 58.49620	 -5.63714	 53.59352	  6.86624	 36.31494	 -2.41620	 67.03376	711.81000	 33.90	
 16.002	-136.836	 58.54738	 -1.93575	 48.37449	  1.09468	 43.94053	 -2.19621	 67.03219	711.92999	 33.90	
 15.995	-122.439	 58.54588	  3.36723	 41.40211	 -3.13220	 50.18330	 -2.09942	 67.01057	711.85999	 33.90	
 15.993	-107.966	 58.61062	  9.93297	 33.36052	 -5.98936	 54.49202	 -2.00854	 67.04305	711.89001	 33.90	
 16.005	-93.629	 58.70626	 17.57152	 25.12621	 -7.12513	 56.50119	 -2.06703	 67.06049	711.85999	 33.90	
 15.992	-79.234	 58.77375	 25.92507	 17.14605	 -6.83975	 56.19850	 -2.17637	 67.05128	711.90997	 33.90	
 16.009	-64.774	 58.81226	 34.52675	  9.84517	 -5.04645	 53.55255	 -2.27440	 67.06226	712.02002	 33.90	
 15.997	-50.364	 58.87669	 42.43562	  3.54641	 -1.61002	 48.59709	 -2.40017	 67.04844	711.97998	 33.90	
 15.997	-36.045	 58.92984	 49.03426	 -1.22417	  3.42840	 41.93804	 -2.58360	 67.07181	711.88000	 33.90	
 16.000	-21.597	 58.95169	 53.76899	 -4.31824	  9.81432	 33.90216	 -2.62348	 67.06097	711.89001	 33.90	
 16.003	 -7.169	 58.91602	 56.28389	 -5.92524	 17.31007	 25.35860	 -2.67549	 67.02150	711.90997	 33.90	
 16.003	  7.169	 58.93118	 56.47699	 -6.07744	 25.51403	 17.08442	 -2.85584	 67.04719	711.90997	 33.90	
 16.000	 21.597	 58.81033	 54.22953	 -5.19301	 33.97007	  9.36397	 -2.92254	 67.05695	711.85999	 33.90	
 15.997	 36.045	 58.79602	 49.75644	 -2.25727	 41.92708	  2.71549	 -2.92466	 67.08653	711.78998	 34.00	
 15.997	 50.364	 58.74022	 43.37925	  2.14166	 48.62741	 -2.27151	 -3.23164	 67.07819	711.96997	 34.00	
 16.009	 64.774	 58.70564	 35.66573	  7.90970	 53.63748	 -5.90887	 -3.45081	 67.08334	711.92999	 34.00	
 15.992	 79.234	 58.62365	 27.15247	 14.99336	 56.55768	 -7.88042	 -3.53538	 67.06517	711.92999	 34.00	
 16.005	 93.629	 58.47292	 18.81021	 22.77385	 57.26721	 -8.48165	 -3.49375	 67.06223	711.87000	 34.00	
 15.993	107.966	 58.38584	 11.05514	 31.16875	 55.54261	 -7.56786	 -3.59021	 67.06240	711.85999	 34.00	
 15.995	122.439	 58.22517	  4.21833	 39.39665	 51.73705	 -4.98718	 -3.53166	 67.03728	711.94000	 34.00	
 16.002	136.836	 58.18506	 -1.33031	 46.64098	 45.74499	 -0.66316	 -3.55486	 67.03799	711.89001	 34.00	
 16.002	151.165	 58.10519	 -5.32011	 52.27899	 38.51245	  4.80866	 -3.46824	 67.03621	711.89001	 34.00	
 15.990	165.604	 58.12488	 -7.77420	 55.97029	 30.11790	 11.79022	 -3.14157	 67.01503	711.94000	 34.00	
 20.003	168.362	 52.91566	-17.21008	 60.55663	 25.85744	  7.88949	 -3.44171	 67.02275	712.02002	 34.00	
 20.008	156.764	 52.84745	-15.18211	 57.53388	 34.31694	  0.81428	 -3.67918	 67.01119	711.96002	 34.00	
 20.000	145.147	 52.92915	-11.92981	 52.74205	 42.28600	 -4.87836	 -4.05567	 67.05212	711.95001	 34.00	
 19.995	133.545	 52.86395	 -7.76624	 46.37073	 49.27586	 -9.56325	 -4.31171	 67.02097	711.97998	 34.00	
 20.009	121.926	 53.02389	 -2.61954	 38.90904	 54.98413	-13.56606	 -4.49939	 67.03332	711.98999	 34.10	
 20.005	110.327	 53.13734	  3.75007	 30.61721	 59.00911	-16.32788	 -4.69810	 67.01197	711.96002	 34.10	
 19.989	 98.733	 53.30288	 11.19594	 22.25553	 61.23469	-17.59099	 -4.95033	 67.03111	711.88000	 34.10	
 19.999	 87.075	 53.44064	 18.63528	 14.79679	 61.58566	-17.49339	 -4.99805	 67.01791	711.94000	 34.10	
 19.992	 75.457	 53.52581	 27.17841	  7.20923	 60.15359	-16.59785	 -4.91034	 67.04205	711.97998	 34.10	
 20.009	 63.844	 53.53648	 35.59228	  0.45409	 56.76570	-14.45417	 -4.74812	 67.01734	711.95001	 34.10	
 19.989	 52.269	 53.61456	 43.45882	 -4.72726	 51.82347	-10.82752	 -4.58008	 67.03693	712.02002	 34.10	
 19.999	 40.602	 53.73428	 50.31459	 -9.20119	 45.29216	 -6.48852	 -4.32868	 67.03618	712.06000	 34.10	
 20.004	 29.051	 53.73635	 55.61008	-12.46363	 37.77609	 -0.99714	 -4.08760	 67.01543	712.03003	 34.10	
 20.005	 17.433	 53.72824	 59.31090	-14.75501	 29.39156	  5.70176	 -3.88164	 67.00562	711.92999	 34.10	
 20.006	  5.780	 53.81794	 61.13788	-15.43051	 21.00590	 13.51941	 -3.65075	 67.06007	711.96002	 34.10	
 20.006	 -5.780	 53.92616	 60.92219	-14.74296	 13.52943	 21.39240	 -3.10645	 67.04325	712.03003	 34.10	
 20.005	-17.433	 53.69086	 58.88487	-13.88968	  6.07558	 29.78708	 -2.68255	 67.00100	711.94000	 34.10	
 20.004	-29.051	 53.68571	 54.98996	-11.41437	 -0.55825	 38.20815	 -2.43949	 67.02681	711.96002	 34.10	
 19.999	-40.602	 53.66640	 49.44165	 -7.67498	 -5.87549	 45.67807	 -2.26791	 66.99209	712.06000	 34.10	
 19.989	-52.269	 53.60669	 42.35978	 -3.03199	-10.18585	 52.11814	 -2.09811	 66.98802	712.03998	 34.10	
 20.009	-63.844	 53.58789	 34.36695	  2.73587	-13.68221	 56.95136	 -1.89535	 67.00555	711.96002	 34.10	
 19.992	-75.457	 53.42602	 25.77168	  9.54587	-15.72909	 60.07317	 -1.80369	 67.02396	712.03003	 34.10	
 19.999	-87.075	 53.30709	 17.16923	 17.18883	-16.50873	 61.22237	 -1.74071	 66.99355	712.09003	 34.10	
 19.989	-98.733	 53.43023	  9.70544	 24.72449	-16.31147	 60.53310	 -1.59057	 67.01673	712.08002	 34.10	
 20.005	-110.327	 53.47016	  2.44603	 33.09958	-14.53735	 57.88061	 -1.59772	 67.01431	711.97998	 34.10	
 20.009	-121.926	 53.50421	 -3.67753	 41.18003	-11.76591	 53.45608	 -1.63213	 67.03065	712.00000	 34.10	
 19.995	-133.545	 53.48177	 -8.36007	 48.31748	 -7.68861	 47.36359	 -1.80614	 66.97198	712.04999	 34.10	
 20.000	-145.147	 53.40567	-12.37996	 54.23656	 -2.88881	 40.10709	 -1.97182	 66.98679	712.03003	 34.10	
 20.008	-156.764	 53.27362	-15.74524	 58.65876	  3.05883	 31.77757	 -2.10691	 66.99654	712.02002	 34.10	
 20.003	-168.362	 53.15533	-17.38868	 61.14439	 10.16342	 23.30199	 -2.32133	 66.99344	712.09003	 34.10	
 20.000	180.000	 53.02674	-17.85225	 61.76778	 17.36316	 15.69320	 -3.06692	 67.01204	711.95001	 34.10	
