FileType=PCF
NHL=14
Date=05/30/19	11:00:57
Facility=APL
Serial=16071-7
Customer=NASA
NP=6
Mach=0.550000
Calibration=1:1
CalPts=490
TstPts=95
PortNumbering=AP Standard
Units=Torr C m/s kg/m^3 deg mm 
Theta[deg]	Phi[deg]	P1[Torr]	P2[Torr]	P3[Torr]	P4[Torr]	P5[Torr]	P6[Torr]	Pt[Torr]	Ps[Abs,Torr]	Ts[C]	
  0.000	  0.000	162.77357	 74.74520	 77.56432	 73.87163	 76.24535	  6.17169	162.65533	702.33002	 39.70	
  1.691	128.401	162.80939	 70.08701	 82.15054	 80.08504	 69.71987	  6.06158	162.70110	702.28998	 39.70	
  1.692	 77.194	162.85515	 76.73247	 75.56765	 81.60642	 68.26425	  6.09870	162.74303	702.28003	 39.70	
  1.699	 26.182	162.90839	 82.10205	 70.27682	 77.35079	 72.53893	  6.08857	162.79681	702.28998	 39.80	
  1.699	-26.182	162.86823	 81.79525	 70.34007	 70.20039	 79.54581	  6.03040	162.76462	703.00000	 39.80	
  1.692	-77.194	162.89859	 76.28690	 75.69580	 65.82207	 83.87485	  6.00855	162.81953	702.83002	 39.80	
  1.691	-128.401	162.92992	 69.70432	 82.33517	 67.54154	 82.31841	  5.95734	162.85486	702.67999	 39.90	
  1.700	180.000	162.96584	 66.92866	 85.44472	 73.88457	 75.97083	  5.98187	162.85912	702.59998	 39.90	
  3.400	180.000	162.69675	 58.54164	 93.24864	 73.18394	 75.47147	  5.48749	162.89592	703.07001	 39.80	
  3.388	-152.325	162.63391	 60.35237	 91.17435	 65.32607	 82.87473	  5.47823	162.87921	702.46997	 39.80	
  3.397	-124.529	162.61642	 65.01423	 85.98918	 59.54639	 88.76978	  5.47992	162.88081	703.22998	 39.80	
  3.399	-96.763	162.64709	 71.98984	 78.69686	 56.92624	 91.73057	  5.56826	162.88745	702.34003	 39.80	
  3.394	-69.283	162.71815	 79.40713	 71.41531	 57.64774	 90.82592	  5.58279	162.90697	703.15002	 39.80	
  3.400	-41.398	162.78224	 86.19608	 65.10079	 61.95309	 86.20233	  5.61171	162.93224	702.71002	 39.80	
  3.401	-14.021	162.86157	 90.02984	 61.81252	 68.96373	 79.41174	  5.65003	162.97298	703.10999	 39.80	
  3.401	 14.021	162.93391	 90.23302	 61.80043	 77.54910	 71.52376	  5.75185	163.00343	703.21002	 39.80	
  3.400	 41.398	162.96175	 86.85467	 65.07421	 84.24086	 64.97335	  5.79071	163.01744	702.87000	 39.80	
  3.394	 69.283	162.95854	 80.44185	 71.21412	 88.55404	 60.85648	  5.77741	162.99657	703.15997	 39.90	
  3.399	 96.763	162.98767	 72.88608	 78.63133	 89.62714	 59.96131	  5.77471	163.04581	703.09003	 39.90	
  3.397	124.529	162.91891	 65.86868	 85.84361	 86.87817	 62.48286	  5.69965	163.01402	702.98999	 39.90	
  3.388	152.325	162.92892	 60.82923	 91.15730	 80.94666	 68.19185	  5.61411	163.06180	702.97998	 39.90	
  5.099	161.165	162.21370	 51.84164	 99.39113	 80.27928	 66.97010	  4.99741	163.08731	703.15997	 39.90	
  5.109	142.013	162.27798	 55.62130	 95.25078	 87.47306	 60.13950	  5.08664	163.08574	703.09998	 39.90	
  5.095	123.033	162.41908	 61.49382	 88.96656	 92.86990	 55.14535	  5.15800	163.13338	703.04999	 40.00	
  5.105	104.191	162.41747	 68.33997	 81.55132	 96.52954	 52.08137	  5.15077	163.07632	703.20001	 40.00	
  5.093	 85.207	162.51337	 76.13374	 73.81693	 97.24994	 51.57717	  5.24388	163.15012	702.31000	 40.00	
  5.104	 66.290	162.51051	 83.96654	 66.33611	 95.18045	 53.38970	  5.24432	163.15373	703.13000	 40.00	
  5.094	 47.331	162.48082	 90.66890	 60.06985	 90.52368	 57.53719	  5.22234	163.13991	703.03998	 39.90	
  5.089	 28.397	162.44067	 95.66773	 55.59540	 84.26665	 63.40730	  5.17867	163.13383	702.34003	 39.90	
  5.096	  9.576	162.45526	 98.17921	 53.25039	 76.78091	 70.69198	  5.19170	163.16844	703.02002	 39.90	
  5.096	 -9.576	162.40421	 97.93531	 53.31478	 67.82167	 78.80304	  5.17405	163.19583	703.09998	 39.90	
  5.089	-28.397	162.32126	 95.03405	 55.72836	 60.50567	 86.28093	  5.06938	163.17900	703.09998	 40.00	
  5.094	-47.331	162.24756	 89.66521	 60.31084	 54.73855	 92.95322	  5.04157	163.19475	703.07001	 40.00	
  5.104	-66.290	162.24434	 82.62160	 66.50177	 50.68376	 97.76955	  5.03904	163.23163	703.03003	 40.00	
  5.093	-85.207	162.15973	 74.99674	 73.96857	 48.78023	 99.66807	  4.99951	163.20200	703.00000	 40.10	
  5.105	-104.191	162.17238	 67.26887	 81.97787	 49.30804	 98.97639	  4.97927	163.26157	703.09003	 40.20	
  5.095	-123.033	162.11446	 60.52401	 89.32877	 52.22518	 95.34319	  4.89782	163.20149	703.09998	 40.20	
  5.109	-142.013	162.18953	 54.97433	 95.51116	 57.25135	 89.55647	  4.90224	163.26379	703.02002	 40.20	
  5.099	-161.165	162.25769	 51.67891	 99.55216	 64.20080	 82.35470	  4.87809	163.26118	703.04999	 40.20	
  5.100	180.000	162.33806	 50.55003	100.82092	 72.44926	 74.66030	  4.87257	163.26791	703.13000	 40.20	
  6.800	180.000	161.08838	 42.25687	107.67081	 71.27001	 73.37915	  4.42303	163.28815	703.01001	 40.30	
  6.796	-166.229	161.00845	 42.81935	106.73280	 63.18768	 80.96952	  4.35921	163.28047	703.13000	 40.30	
  6.808	-152.311	160.94969	 45.28008	103.92780	 55.96324	 88.17865	  4.39221	163.27162	703.08002	 40.30	
  6.795	-138.383	160.89589	 49.20706	 99.47218	 50.56425	 95.21212	  4.41759	163.30739	703.07001	 40.30	
  6.792	-124.591	160.89745	 54.47721	 93.40471	 46.20310	100.73954	  4.41790	163.33253	703.09003	 40.30	
  6.787	-110.754	160.87888	 60.85377	 86.11549	 42.78849	104.48668	  4.46393	163.31319	703.09998	 40.40	
  6.800	-96.985	160.88237	 67.82737	 78.52509	 40.94757	106.63828	  4.51500	163.30424	703.07001	 40.40	
  6.800	-83.015	160.94421	 75.34904	 70.85625	 40.77480	106.72945	  4.51193	163.32498	703.15997	 40.30	
  6.787	-69.246	161.04079	 82.87878	 63.82837	 42.35540	104.87206	  4.54987	163.36182	703.15997	 40.40	
  6.792	-55.409	161.10576	 90.03804	 57.38923	 45.67243	101.31789	  4.55800	163.38055	703.25000	 40.40	
  6.795	-41.617	161.21887	 96.48788	 52.10757	 50.59243	 95.78157	  4.58499	163.37070	703.13000	 40.40	
  6.808	-27.689	161.31934	101.36468	 47.94415	 56.81830	 88.78178	  4.58941	163.41043	703.15002	 40.40	
  6.796	-13.771	161.38022	104.50837	 45.33839	 63.14450	 81.36401	  4.67538	163.39137	702.92999	 40.40	
  6.800	  0.000	161.47694	105.66117	 44.45345	 70.65674	 73.71732	  4.68631	163.41533	703.09003	 40.50	
  6.796	 13.771	161.53720	104.81559	 45.22213	 79.24839	 66.19184	  4.63609	163.39555	703.04999	 40.50	
  6.808	 27.689	161.60736	102.31441	 47.75872	 86.81359	 59.22993	  4.65140	163.44064	703.12000	 40.60	
  6.795	 41.617	161.59140	 97.90990	 51.86012	 93.29500	 53.11131	  4.59945	163.40263	703.15002	 40.50	
  6.792	 55.409	161.68015	 91.85634	 57.23547	 98.83514	 48.51724	  4.57054	163.43332	703.04999	 40.50	
  6.787	 69.246	161.69757	 84.90793	 63.62545	102.52172	 45.22206	  4.61879	163.41747	703.02002	 40.50	
  6.800	 83.015	161.68770	 77.07693	 70.76821	104.55123	 43.28556	  4.63011	163.43057	703.03003	 40.50	
  6.800	 96.985	161.64781	 69.32549	 78.36782	104.51591	 43.26730	  4.58404	163.41153	703.12000	 40.50	
  6.787	110.754	161.62903	 62.33950	 85.88187	102.60176	 44.98515	  4.61934	163.42221	702.97998	 40.50	
  6.792	124.591	161.53226	 55.95570	 92.99979	 98.62482	 48.35291	  4.75699	163.37758	703.08002	 40.50	
  6.795	138.383	161.46754	 50.53884	 99.21704	 93.01797	 53.06042	  4.71009	163.38799	703.12000	 40.50	
  6.808	152.311	161.44788	 46.10346	103.95370	 86.53619	 59.11368	  4.63192	163.50423	703.12000	 40.50	
  6.796	166.229	161.34177	 43.39980	106.80482	 79.17189	 65.98979	  4.47208	163.44846	703.13000	 40.50	
  8.491	168.704	159.66324	 35.02613	113.88424	 77.74204	 64.31605	  4.42996	163.49976	703.09998	 40.50	
  8.502	157.493	159.75333	 37.00657	111.39462	 85.35087	 57.26508	  4.56234	163.55411	702.28998	 40.50	
  8.494	146.194	159.87677	 40.58253	107.17543	 92.48306	 50.76606	  4.59059	163.52998	703.07001	 40.50	
  8.495	135.039	159.92725	 45.21451	102.00999	 99.01387	 45.32649	  4.55731	163.49925	703.09003	 40.50	
  8.487	123.723	160.00195	 51.05736	 95.49792	104.52792	 40.69236	  4.48192	163.51543	702.83002	 40.50	
  8.492	112.575	160.09969	 57.56290	 88.28902	108.49541	 37.41197	  4.29646	163.55086	702.94000	 40.50	
  8.510	101.220	160.18964	 64.88261	 80.57925	110.91819	 35.54877	  4.20402	163.52287	703.08002	 40.50	
  8.500	 90.000	160.24767	 71.92971	 73.09027	111.65220	 35.15019	  4.18911	163.53275	703.12000	 40.50	
  8.510	 78.780	160.29391	 79.90529	 65.57412	110.84785	 35.63539	  4.16241	163.59695	702.29999	 40.50	
  8.492	 67.425	160.28471	 87.82236	 58.45752	108.20744	 37.91434	  4.18263	163.57773	702.91998	 40.50	
  8.487	 56.277	160.27954	 94.75582	 52.28632	104.35772	 41.24544	  4.16345	163.59052	703.07001	 40.50	
  8.495	 44.961	160.23283	101.11068	 46.76418	 99.07755	 45.80187	  4.25135	163.58449	703.03003	 40.50	
  8.494	 33.806	160.15408	106.12432	 42.13304	 92.57260	 51.41653	  4.29604	163.55865	702.72998	 40.50	
  8.502	 22.507	160.09714	109.84215	 38.64708	 85.57685	 57.78136	  4.41360	163.58020	702.64001	 40.50	
  8.491	 11.296	160.02394	112.00311	 36.74440	 77.25709	 64.91051	  4.44576	163.55499	703.07001	 40.50	
  8.500	  0.000	159.96312	112.56412	 36.28286	 69.20345	 72.54097	  4.51306	163.54269	703.02002	 40.50	
  8.491	-11.296	159.87201	111.61062	 36.88844	 62.22887	 80.35070	  4.52786	163.56384	703.02002	 40.50	
  8.502	-22.507	159.75780	108.87451	 38.83135	 55.24825	 87.83051	  4.53812	163.55894	703.12000	 40.50	
  8.494	-33.806	159.68835	104.65700	 42.29262	 48.77096	 95.39011	  4.47104	163.56586	703.09003	 40.50	
  8.495	-44.961	159.59100	 99.43507	 46.94925	 43.09827	101.82958	  4.46298	163.59042	703.03003	 40.60	
  8.487	-56.277	159.56839	 92.52917	 52.71882	 38.40689	107.06007	  4.49750	163.59332	703.09003	 40.60	
  8.492	-67.425	159.47377	 85.32270	 59.03686	 34.87485	110.91241	  4.52154	163.62965	703.08002	 40.70	
  8.510	-78.780	159.43387	 77.59115	 66.31036	 32.80366	113.36747	  4.47698	163.63564	702.39001	 40.60	
  8.500	-90.000	159.39624	 69.95340	 73.78503	 31.97930	113.98636	  4.49132	163.61600	702.32001	 40.60	
  8.510	-101.220	159.29977	 62.64695	 81.30839	 32.19467	113.16461	  4.43647	163.60883	702.35999	 40.60	
  8.492	-112.575	159.28041	 55.43846	 89.07538	 35.16994	110.47026	  4.34236	163.58340	703.03998	 40.60	
  8.487	-123.723	159.29965	 49.32493	 96.13425	 38.50988	106.36680	  4.28413	163.61140	702.56000	 40.70	
  8.495	-135.039	159.37543	 43.67887	102.69172	 43.19327	101.03374	  4.26502	163.60522	703.09003	 40.70	
  8.494	-146.194	159.42256	 39.20855	107.65111	 48.49118	 94.56198	  4.25831	163.61096	702.66998	 40.70	
  8.502	-157.493	159.52116	 36.00544	111.51191	 54.67917	 86.96622	  4.26249	163.65352	702.73999	 40.70	
  8.491	-168.704	159.63818	 34.36292	113.99027	 61.72937	 79.69424	  4.28246	163.66161	702.31000	 40.80	
  8.500	180.000	159.72185	 33.95824	114.97166	 69.98013	 72.00996	  4.32797	163.67340	702.40002	 40.80	
 10.200	180.000	157.52232	 25.58197	121.20319	 67.89375	 70.11069	  4.55366	163.73045	702.31000	 40.80	
 10.191	-170.497	157.38512	 25.65187	120.54449	 59.71070	 77.81802	  4.51436	163.67781	702.26001	 40.80	
 10.210	-161.034	157.25172	 26.78139	118.76093	 52.60524	 85.41599	  4.46477	163.65938	702.28998	 40.80	
 10.194	-151.526	157.20033	 29.42380	115.31268	 45.91252	 93.14495	  4.42666	163.67969	702.32001	 40.80	
 10.190	-142.105	157.09778	 33.00237	110.67251	 39.95423	100.28587	  4.45326	163.65512	702.28003	 40.90	
 10.215	-132.646	157.01025	 37.34643	105.14669	 34.76099	106.50176	  4.47542	163.69086	702.50000	 41.00	
 10.203	-123.092	156.96324	 43.46840	 98.47488	 30.38416	111.77948	  4.55970	163.66983	702.34003	 41.00	
 10.192	-113.678	156.94327	 49.96737	 91.14500	 27.16666	115.95921	  4.60239	163.64543	702.25000	 41.00	
 10.208	-104.249	156.91197	 56.88972	 83.56155	 24.06516	118.80907	  4.64432	163.63501	702.27002	 41.00	
 10.210	-94.801	156.93025	 64.16176	 75.65695	 22.93185	120.34227	  4.65004	163.61887	702.27002	 41.00	
 10.210	-85.199	157.05496	 71.61108	 68.06158	 23.41460	120.40796	  4.70541	163.69810	702.31000	 41.00	
 10.208	-75.751	157.07965	 79.32510	 60.63585	 24.42054	119.16934	  4.66930	163.69299	702.29999	 41.00	
 10.192	-66.322	157.19189	 87.08223	 53.78746	 26.68628	116.55456	  4.64720	163.70287	702.72998	 41.00	
 10.203	-56.908	157.19543	 94.76218	 47.27849	 29.61231	112.62084	  4.67849	163.65614	702.39001	 41.00	
 10.215	-47.354	157.30789	101.65735	 41.49649	 33.85825	107.41047	  4.63332	163.65143	703.09998	 41.00	
 10.190	-37.895	157.46655	107.39926	 36.32278	 39.62534	101.39999	  4.67353	163.63852	703.03998	 41.00	
 10.194	-28.474	157.59065	112.34635	 32.80891	 46.47705	 94.09844	  4.69228	163.64583	703.12000	 41.00	
 10.210	-18.966	157.64490	116.08910	 30.19988	 53.26112	 86.27066	  4.68765	163.65070	703.07001	 41.00	
 10.191	 -9.503	157.83603	118.29448	 28.76563	 60.70133	 78.67798	  4.69747	163.69748	703.17999	 41.00	
 10.200	  0.000	157.89183	119.24271	 28.28087	 67.78043	 70.83088	  4.61198	163.66704	703.08002	 41.10	
 10.191	  9.503	158.01424	118.76910	 28.65472	 75.57152	 63.25772	  4.54908	163.70113	703.00000	 41.10	
 10.210	 18.966	158.02345	116.96149	 29.98254	 83.90514	 55.95819	  4.53132	163.68629	702.45001	 41.10	
 10.194	 28.474	158.14909	113.62327	 32.76113	 91.50869	 49.24972	  4.41520	163.72708	702.29999	 41.10	
 10.190	 37.895	158.21812	109.27177	 36.57899	 98.32291	 43.00115	  4.24095	163.72701	702.34003	 41.10	
 10.215	 47.354	158.21373	103.83062	 41.17877	104.66077	 37.48285	  4.09007	163.70070	702.96997	 41.10	
 10.203	 56.908	158.30577	 97.22719	 47.00947	109.83753	 33.19335	  4.05767	163.73317	702.31000	 41.20	
 10.192	 66.322	158.30688	 90.10258	 53.18586	113.83678	 29.99379	  4.07995	163.66275	702.32001	 41.10	
 10.208	 75.751	158.36511	 82.37711	 60.06100	116.91422	 27.87931	  4.10206	163.72900	702.15002	 41.10	
 10.210	 85.199	158.33551	 74.27454	 67.46720	118.13552	 27.02889	  4.10984	163.71393	702.20001	 41.20	
 10.210	 94.801	158.34894	 67.07789	 75.09554	118.16103	 26.87296	  4.14372	163.76215	702.72998	 41.20	
 10.208	104.249	158.28214	 59.56424	 82.75580	116.85635	 27.79939	  4.18713	163.77307	702.28998	 41.20	
 10.192	113.678	158.19252	 52.42881	 90.45062	114.05008	 29.90709	  4.33939	163.76805	702.19000	 41.20	
 10.203	123.092	158.11253	 45.97327	 97.71342	110.01968	 33.08273	  4.49912	163.75516	702.17999	 41.30	
 10.215	132.646	157.98834	 39.24949	104.45634	104.82626	 37.23839	  4.65009	163.77048	702.22998	 41.30	
 10.190	142.105	157.92236	 34.25347	110.18891	 98.22011	 42.45622	  4.85489	163.74986	702.25000	 41.40	
 10.194	151.526	157.78648	 30.62361	115.03601	 91.22173	 48.50723	  4.85326	163.75179	702.21997	 41.40	
 10.210	161.034	157.69963	 28.09729	118.59862	 83.79279	 55.27066	  4.73548	163.77832	702.21002	 41.40	
 10.191	170.497	157.69098	 26.50040	120.48779	 76.06696	 62.56348	  4.63253	163.78737	702.21997	 41.40	
 11.899	171.783	154.87198	 17.25726	126.76557	 73.55956	 60.42484	  4.88494	163.79597	702.28998	 41.40	
 11.890	163.610	154.98466	 18.70781	124.73623	 81.57368	 53.19703	  4.97261	163.81047	702.26001	 41.40	
 11.889	155.445	155.04956	 20.96808	121.66187	 89.21470	 46.11597	  5.12183	163.78607	702.29999	 41.40	
 11.909	147.299	155.08501	 23.72134	117.76333	 96.59108	 39.55297	  5.14948	163.79031	702.33002	 41.40	
 11.902	139.148	155.23715	 28.13227	112.49256	103.57359	 33.76507	  5.03506	163.79601	702.31000	 41.40	
 11.894	130.867	155.34319	 34.28121	106.22609	109.79671	 28.96980	  4.69316	163.77814	702.32001	 41.40	
 11.897	122.732	155.40530	 40.40606	 99.43867	114.86401	 24.98422	  4.56261	163.77472	702.25000	 41.40	
 11.903	114.597	155.50198	 46.81475	 92.08562	119.05481	 21.87505	  4.51295	163.77795	702.21997	 41.40	
 11.893	106.346	155.58392	 53.97997	 84.16970	122.26979	 19.51816	  4.56255	163.72789	702.25000	 41.40	
 11.892	 98.155	155.70618	 61.59752	 76.42429	124.13184	 18.23187	  4.39670	163.77129	702.28003	 41.40	
 11.900	 90.000	155.79730	 68.94079	 69.00376	124.71472	 18.15225	  4.37741	163.78963	702.16998	 41.40	
 11.892	 81.845	155.79132	 76.31243	 61.56907	124.13279	 18.41594	  4.33652	163.79041	702.16998	 41.40	
 11.893	 73.654	155.80789	 84.43491	 54.36157	122.09734	 19.59145	  4.26725	163.79622	702.28003	 41.40	
 11.903	 65.403	155.77022	 92.28719	 47.41057	119.01690	 21.92570	  4.29327	163.78673	702.20001	 41.40	
 11.897	 57.268	155.73683	 99.54086	 41.10887	114.77682	 25.07197	  4.39424	163.77704	702.22998	 41.40	
 11.894	 49.133	155.70267	106.20309	 35.41635	109.52255	 29.13868	  4.47421	163.79677	702.22998	 41.40	
 11.902	 40.852	155.70633	112.01974	 30.71980	103.50936	 34.41058	  4.44131	163.83882	702.21002	 41.50	
 11.909	 32.701	155.58975	116.95650	 26.50983	 96.58817	 40.58859	  4.58265	163.80185	702.27002	 41.60	
 11.889	 24.555	155.54785	120.71009	 23.19933	 89.46387	 47.10465	  4.69542	163.81662	702.21997	 41.60	
 11.890	 16.390	155.49393	123.36319	 20.74817	 81.69296	 54.12111	  4.78595	163.80946	702.19000	 41.70	
 11.899	  8.217	155.40364	125.07923	 19.39067	 73.86822	 61.34076	  4.80651	163.83441	702.26001	 41.70	
 11.900	  0.000	155.36040	125.36959	 19.26160	 66.20905	 68.97047	  4.84426	163.82159	702.17999	 41.70	
 11.899	 -8.217	155.19141	124.69376	 19.25631	 58.61451	 76.58010	  4.85562	163.84062	702.17999	 41.60	
 11.890	-16.390	155.11336	122.51142	 20.68665	 51.19945	 84.42931	  4.89118	163.84872	702.21002	 41.60	
 11.889	-24.555	154.99495	119.40495	 23.10839	 44.14302	 92.32218	  4.91912	163.86267	702.16998	 41.60	
 11.909	-32.701	154.73532	115.07466	 26.42426	 37.25121	100.01881	  4.93930	163.81415	702.13000	 41.70	
 11.902	-40.852	154.68169	109.64864	 30.97958	 31.49409	106.76384	  4.96079	163.84921	702.32001	 41.60	
 11.894	-49.133	154.54674	103.32813	 36.00219	 26.60660	112.83974	  4.86631	163.85048	702.12000	 41.60	
 11.897	-57.268	154.44217	 96.30712	 41.75504	 22.56400	117.93569	  4.95635	163.83232	702.25000	 41.60	
 11.903	-65.403	154.32767	 88.82566	 48.08377	 19.27937	121.70761	  4.89953	163.84386	702.29999	 41.60	
 11.893	-73.654	154.31360	 80.38608	 55.18573	 17.10671	124.56592	  5.00097	163.83182	702.32001	 41.60	
 11.892	-81.845	154.27252	 72.43993	 62.55210	 15.83421	126.28195	  4.88478	163.86282	702.20001	 41.60	
 11.900	-90.000	154.22252	 65.43504	 69.85745	 15.43447	126.84414	  4.91078	163.85681	702.16998	 41.60	
 11.892	-98.155	154.16188	 58.14673	 77.41746	 15.38525	126.12302	  4.94303	163.84285	702.22998	 41.60	
 11.893	-106.346	154.17268	 50.85488	 85.42982	 16.74655	124.06551	  4.93512	163.85274	702.25000	 41.60	
 11.903	-114.597	154.17029	 43.71397	 93.10193	 19.01494	120.97639	  4.96636	163.85147	702.19000	 41.60	
 11.897	-122.732	154.26428	 36.76581	100.49840	 22.21174	116.87784	  4.89290	163.89003	702.17999	 41.60	
 11.894	-130.867	154.31273	 31.02529	107.15100	 26.19670	111.53890	  4.83061	163.85425	702.23999	 41.60	
 11.902	-139.148	154.39803	 26.34100	113.36628	 31.32431	105.40346	  4.79274	163.88501	702.26001	 41.60	
 11.909	-147.299	154.37862	 22.63994	118.30599	 37.05369	 98.52212	  4.66522	163.77876	702.25000	 41.70	
 11.889	-155.445	154.54390	 19.87901	122.12684	 43.45858	 91.01846	  4.70189	163.82628	702.35999	 41.70	
 11.890	-163.610	154.66367	 17.71097	124.96266	 50.52079	 83.46341	  4.81589	163.86732	702.28003	 41.80	
 11.899	-171.783	154.66444	 16.43752	126.91730	 57.70691	 75.67523	  4.80552	163.80284	702.35999	 41.80	
 11.900	180.000	154.84308	 16.64423	127.54158	 65.36823	 67.97511	  4.85946	163.84872	702.34003	 41.80	
 13.600	180.000	151.56410	  7.36096	133.07164	 62.66820	 65.45966	  5.05291	163.85988	702.21002	 41.80	
 13.608	-172.853	151.42708	  7.11490	132.65251	 55.36316	 72.67022	  5.10974	163.85811	702.22998	 41.80	
 13.611	-165.583	151.39925	  8.16499	131.09427	 47.67701	 80.72847	  5.07191	163.88535	702.32001	 41.80	
 13.601	-158.353	151.28963	 10.02469	128.46088	 40.53856	 88.55489	  4.89113	163.87029	702.31000	 41.80	
 13.609	-151.210	151.21536	 12.60555	124.79073	 33.96891	 96.26786	  4.93612	163.88428	702.26001	 41.80	
 13.611	-143.999	151.11421	 15.74706	120.54779	 27.53078	103.64491	  4.89111	163.90839	702.38000	 41.70	
 13.601	-136.825	151.04230	 19.64682	115.11833	 22.19630	110.27531	  4.98147	163.92787	702.35999	 41.80	
 13.596	-129.640	150.93906	 24.44036	108.73178	 17.65133	116.21803	  5.06272	163.89609	702.33002	 41.80	
 13.611	-122.431	150.83157	 30.39450	101.76641	 13.62547	121.29087	  5.12685	163.85077	702.22998	 41.70	
 13.604	-115.211	150.79645	 37.19594	 94.27888	 10.62047	125.49493	  5.18143	163.86465	702.28003	 41.70	
 13.595	-108.042	150.71803	 44.32811	 86.76505	  7.36792	128.83992	  5.10773	163.84140	702.17999	 41.70	
 13.607	-100.793	150.69957	 51.67342	 78.60796	  5.21505	131.19722	  5.02644	163.81696	702.21997	 41.70	
 13.601	-93.617	150.76682	 59.09119	 70.83799	  4.49556	132.35286	  5.03243	163.84459	702.22998	 41.70	
 13.601	-86.383	150.91333	 66.10889	 63.78778	  4.94419	132.41478	  5.01701	163.88188	702.15997	 41.70	
 13.607	-79.207	150.85146	 73.39012	 56.31427	  5.31592	131.50002	  5.05224	163.83694	702.27002	 41.70	
 13.595	-71.958	150.92691	 81.41427	 49.04828	  6.89609	129.53912	  5.04389	163.84535	702.23999	 41.70	
 13.604	-64.789	150.94461	 89.90414	 42.16107	  9.24777	126.49236	  5.02196	163.84558	702.29999	 41.70	
 13.611	-57.569	151.10255	 97.56928	 35.81863	 12.50371	122.56335	  5.04287	163.89134	702.21997	 41.80	
 13.596	-50.360	151.17476	104.60844	 29.98417	 17.11855	117.62489	  5.00527	163.82170	702.21002	 41.90	
 13.601	-43.175	151.32288	111.19604	 24.35006	 22.78792	111.68717	  5.04349	163.86229	702.20001	 42.00	
 13.611	-36.001	151.42073	116.92614	 18.97102	 28.16858	105.15633	  5.05801	163.86102	702.23999	 42.00	
 13.609	-28.790	151.55472	121.77816	 15.21973	 34.49797	 97.78072	  5.01774	163.83218	702.23999	 42.10	
 13.601	-21.647	151.74454	125.60799	 12.47311	 41.34999	 89.86128	  4.97467	163.83258	702.26001	 42.10	
 13.611	-14.417	151.88109	128.54077	 10.54763	 48.78500	 81.88270	  4.98976	163.79143	702.28003	 42.10	
 13.608	 -7.147	151.94812	130.55104	  9.41433	 56.17740	 73.86993	  4.96238	163.80829	702.32001	 42.10	
 13.600	  0.000	152.14468	131.31543	  9.54353	 63.60178	 66.38970	  4.94416	163.85638	702.33002	 42.10	
 13.608	  7.147	152.14485	130.99985	  9.66066	 71.04788	 59.01968	  4.96207	163.78429	702.33002	 42.20	
 13.611	 14.417	152.29959	129.67992	 10.89550	 79.05463	 51.56636	  4.93973	163.86244	702.28003	 42.20	
 13.601	 21.647	152.38121	127.33327	 12.95149	 87.09232	 44.48243	  4.92143	163.88429	702.32001	 42.20	
 13.609	 28.790	152.46220	123.85959	 15.78979	 94.54329	 37.69664	  4.82509	163.91063	702.22998	 42.20	
 13.611	 36.001	152.53853	119.41660	 19.53043	101.92190	 31.07218	  4.75304	163.91331	702.23999	 42.20	
 13.601	 43.175	152.61441	114.15834	 24.08588	108.29282	 25.63991	  4.70680	163.87932	702.21997	 42.20	
 13.596	 50.360	152.72667	108.00941	 29.38193	114.34733	 20.69403	  4.80871	163.93086	702.26001	 42.20	
 13.611	 57.569	152.64494	101.40417	 34.94305	119.57518	 16.34245	  4.68708	163.85316	702.20001	 42.20	
 13.604	 64.789	152.68503	 93.79038	 41.36797	123.79428	 13.33808	  4.69747	163.86034	702.20001	 42.20	
 13.595	 71.958	152.72304	 85.98904	 48.18226	127.15758	 11.16388	  4.59560	163.81989	702.34998	 42.20	
 13.607	 79.207	152.68723	 77.98202	 55.31870	129.32030	  9.47299	  4.62699	163.81316	702.28998	 42.20	
 13.601	 86.383	152.75475	 70.18356	 62.80555	130.46463	  8.82497	  4.62104	163.84129	702.21997	 42.20	
 13.601	 93.617	152.71625	 62.93060	 69.88731	130.51526	  8.92517	  4.71741	163.83832	702.15002	 42.20	
 13.607	100.793	152.59862	 55.31569	 77.45109	129.54941	  9.25285	  4.76377	163.85388	702.20001	 42.30	
 13.595	108.042	152.54108	 47.86988	 85.44592	127.26900	 11.03446	  4.91641	163.81046	702.26001	 42.30	
 13.604	115.211	152.43289	 41.05329	 93.33549	123.97502	 13.30285	  4.74638	163.80238	702.25000	 42.40	
 13.611	122.431	152.32603	 34.56344	100.85754	119.61275	 16.37417	  4.70799	163.85704	702.10999	 42.40	
 13.596	129.640	152.23402	 28.57985	107.86260	114.40876	 20.31651	  4.66484	163.85075	702.22998	 42.40	
 13.601	136.825	152.20532	 22.71894	114.10690	108.50436	 25.08546	  5.01184	163.86964	702.28998	 42.30	
 13.611	143.999	152.04149	 17.55832	119.69225	101.80180	 30.29684	  5.29332	163.87305	702.19000	 42.40	
 13.609	151.210	151.86661	 13.63033	124.22315	 94.50867	 36.67449	  5.38173	163.79214	702.32001	 42.40	
 13.601	158.353	151.73714	 10.70099	128.09738	 86.89004	 43.37480	  5.29036	163.80991	702.22998	 42.30	
 13.611	165.583	151.62370	  8.67653	130.83795	 78.74072	 50.51822	  5.12762	163.78015	702.21997	 42.30	
 13.608	172.853	151.60245	  7.58739	132.50365	 70.33220	 57.93262	  5.04418	163.82541	702.15002	 42.30	
 15.298	173.587	147.88422	 -1.77316	137.96584	 66.84926	 55.03391	  5.15366	163.80919	702.23999	 42.30	
 15.291	167.167	147.91949	 -0.80572	136.33263	 75.18427	 47.55692	  5.19703	163.77092	702.29999	 42.20	
 15.307	160.676	148.00571	  0.94596	133.84846	 83.73611	 40.37057	  5.33807	163.79433	702.23999	 42.20	
 15.300	154.261	148.16072	  3.67969	130.42683	 91.64139	 33.65839	  5.49078	163.79630	702.23999	 42.30	
 15.288	147.854	148.28635	  7.24997	126.01246	 99.08125	 27.10172	  5.40882	163.78375	702.17999	 42.20	
 15.293	141.428	148.32185	 11.27805	120.98870	106.33475	 21.00863	  5.12659	163.73537	702.33002	 42.20	
 15.299	134.985	148.42052	 16.21449	115.02950	112.90717	 15.79520	  4.82462	163.73041	702.17999	 42.30	
 15.305	128.583	148.49776	 22.68957	108.71473	118.74445	 11.46192	  4.76201	163.76064	702.21002	 42.30	
 15.309	122.142	148.61884	 28.60343	101.61814	123.90095	  7.93236	  4.81173	163.74324	702.20001	 42.30	
 15.304	115.711	148.82260	 35.01449	 94.13545	128.29893	  4.90799	  4.84258	163.80238	702.26001	 42.30	
 15.297	109.291	148.91759	 41.68507	 85.98416	131.61157	  2.52695	  5.11313	163.77087	702.16998	 42.30	
 15.293	102.897	149.04333	 48.89221	 78.26991	134.02974	  0.68987	  5.14247	163.76563	702.31000	 42.40	
 15.293	 96.458	149.11099	 56.42960	 70.39843	135.52722	 -0.34838	  5.01876	163.74124	702.32001	 42.40	
 15.300	 90.000	149.16348	 63.37786	 63.51324	136.06299	 -0.48426	  4.82158	163.73813	702.29999	 42.40	
 15.293	 83.542	149.23352	 71.25605	 56.22094	135.57303	 -0.39659	  4.86622	163.74490	702.31000	 42.40	
 15.293	 77.103	149.29726	 79.07251	 48.74932	133.99426	  0.84641	  4.80400	163.78603	702.23999	 42.30	
 15.297	 70.709	149.32678	 86.87334	 41.84821	131.46182	  2.68873	  4.84412	163.78079	702.32001	 42.30	
 15.304	 64.289	149.33661	 94.74657	 35.24586	128.17105	  5.02922	  4.87563	163.77423	702.34998	 42.30	
 15.309	 57.858	149.28241	102.38967	 28.98802	123.73265	  8.06277	  4.80436	163.78799	702.33002	 42.30	
 15.305	 51.417	149.25119	109.21844	 22.69345	118.68906	 12.02291	  4.90243	163.82944	702.21997	 42.30	
 15.299	 45.015	149.22440	115.47297	 17.16858	112.71964	 16.78562	  4.82869	163.81580	702.27002	 42.30	
 15.293	 38.572	149.07097	121.09634	 12.68753	106.18826	 22.26764	  4.84424	163.76132	702.28998	 42.40	
 15.288	 32.146	149.00150	126.03104	  9.04808	 98.84994	 28.58835	  4.91180	163.79971	702.20001	 42.40	
 15.300	 25.739	148.90823	129.92635	  5.97228	 91.67304	 34.96148	  4.83108	163.79852	702.27002	 42.40	
 15.307	 19.324	148.70972	133.04857	  3.46355	 83.87021	 41.61209	  4.90396	163.76663	702.35999	 42.40	
 15.291	 12.833	148.67229	135.26123	  1.73614	 75.97750	 48.82973	  4.94210	163.80200	702.27002	 42.50	
 15.298	  6.413	148.49152	136.47758	  0.65512	 67.93636	 56.24538	  4.96626	163.73222	702.35999	 42.50	
 15.300	  0.000	148.38440	136.70352	  0.40398	 60.60973	 63.44478	  4.94545	163.71419	702.27002	 42.50	
 15.298	 -6.413	148.35054	135.99625	  0.33817	 53.45716	 70.89841	  5.01497	163.77504	702.32001	 42.50	
 15.291	-12.833	148.30449	134.09921	  1.25190	 46.08761	 78.81220	  4.99854	163.79622	702.23999	 42.50	
 15.307	-19.324	148.11917	131.45091	  2.87387	 38.62246	 86.77985	  4.94464	163.80461	702.37000	 42.50	
 15.300	-25.739	147.91714	127.98434	  5.37776	 31.53810	 94.83795	  4.94309	163.79428	702.20001	 42.50	
 15.288	-32.146	147.78012	123.43507	  8.69766	 25.19209	102.53454	  5.01358	163.81322	702.28003	 42.50	
 15.293	-38.572	147.67932	118.09884	 12.82886	 18.24531	109.53898	  4.97371	163.79953	702.33002	 42.60	
 15.299	-45.015	147.46121	112.14404	 17.84520	 12.54546	116.09364	  5.01471	163.77040	702.32001	 42.60	
 15.305	-51.417	147.34752	105.48708	 23.60615	  7.99509	121.74350	  5.01614	163.80147	702.34998	 42.50	
 15.309	-57.858	147.17682	 98.39739	 29.59590	  4.03342	126.60069	  5.02129	163.79630	702.34998	 42.50	
 15.304	-64.289	147.11275	 90.43143	 36.10313	  0.85227	130.76569	  4.99082	163.81082	702.35999	 42.50	
 15.297	-70.709	147.08452	 82.07722	 42.80592	 -1.61904	133.98120	  4.98936	163.82881	702.28003	 42.60	
 15.293	-77.103	146.97224	 74.07082	 49.79912	 -3.50457	136.21259	  4.99551	163.80447	702.39001	 42.60	
 15.293	-83.542	146.97310	 66.55516	 57.29316	 -4.37723	137.65421	  5.01873	163.83459	702.42999	 42.60	
 15.300	-90.000	146.81024	 59.44795	 64.18753	 -4.69007	138.04462	  5.02439	163.78709	702.35999	 42.60	
 15.293	-96.458	146.78384	 52.13270	 71.47478	 -4.74544	137.48521	  5.04666	163.82990	702.35999	 42.60	
 15.293	-102.897	146.79851	 44.67368	 79.58619	 -3.48606	135.66557	  5.10441	163.80577	702.32001	 42.50	
 15.297	-109.291	146.90231	 37.58812	 87.45728	 -1.45915	133.16580	  5.14738	163.83772	702.31000	 42.50	
 15.304	-115.711	146.96182	 30.15847	 95.12451	  1.31449	129.66875	  5.18714	163.80869	702.28003	 42.50	
 15.309	-122.142	147.00037	 23.82359	102.53581	  5.28640	125.30914	  5.20456	163.79730	702.23999	 42.50	
 15.305	-128.583	147.11308	 18.11825	109.56171	  9.40047	120.35132	  5.16951	163.83812	702.21002	 42.50	
 15.299	-134.985	147.26187	 13.16402	116.03989	 13.75449	114.43625	  4.99292	163.83232	702.25000	 42.50	
 15.293	-141.428	147.34518	  8.95608	121.90601	 18.63145	107.80714	  4.97860	163.80869	702.22998	 42.40	
 15.288	-147.854	147.53958	  5.63161	126.71738	 24.32752	100.58367	  4.97039	163.82503	702.34998	 42.40	
 15.300	-154.261	147.52046	  2.54713	130.96167	 30.53029	 92.99962	  4.93313	163.81047	702.34003	 42.50	
 15.307	-160.676	147.59888	  0.32376	134.18599	 37.28032	 85.37013	  4.99847	163.82460	702.37000	 42.50	
 15.291	-167.167	147.74194	 -1.14283	136.59254	 44.61926	 77.41372	  5.09832	163.81801	702.32001	 42.50	
 15.298	-173.587	147.79344	 -2.03301	138.09322	 52.41113	 69.54031	  5.21672	163.82616	702.40997	 42.60	
 15.300	180.000	147.86996	 -2.03073	138.52696	 59.57938	 62.54538	  5.14591	163.84256	702.34003	 42.60	
 17.000	180.000	143.55397	-11.14931	143.29652	 56.06390	 59.29265	  5.19306	163.85211	702.33002	 42.60	
 16.990	-174.179	143.44998	-11.18920	142.89034	 49.18584	 66.03878	  5.22698	163.82550	702.19000	 42.60	
 17.009	-168.383	143.34000	-10.40528	141.68034	 41.38079	 73.85009	  5.14223	163.81610	702.26001	 42.60	
 17.000	-162.596	143.24387	 -9.00295	139.48436	 33.95559	 81.82545	  4.97198	163.77730	702.39001	 42.60	
 16.990	-156.759	143.16789	 -7.21365	136.46309	 27.14444	 89.62693	  4.92563	163.79814	702.40997	 42.60	
 16.995	-150.919	143.04538	 -4.74283	132.67700	 20.79212	 97.32514	  4.90825	163.76981	702.21997	 42.60	
 16.988	-145.161	142.95609	 -1.68650	128.04558	 15.10112	104.74682	  4.96701	163.83401	702.21997	 42.70	
 17.014	-139.343	142.75601	  1.94523	122.82129	 10.14924	111.67024	  5.04060	163.78329	702.21002	 42.70	
 17.007	-133.546	142.77213	  6.61919	116.66452	  5.30113	118.11870	  5.09854	163.80951	702.13000	 42.70	
 17.001	-127.699	142.60104	 11.49533	110.03561	  1.00219	123.91886	  5.06498	163.79991	702.26001	 42.70	
 17.006	-121.937	142.48195	 16.93680	103.03976	 -2.66636	129.04062	  5.09683	163.83949	702.46002	 42.70	
 17.002	-116.134	142.37820	 23.12277	 95.48982	 -6.73610	133.45517	  5.07438	163.80495	702.39001	 42.70	
 17.001	-110.310	142.31842	 29.76856	 87.69815	 -9.80955	137.03619	  5.01675	163.82965	702.19000	 42.70	
 16.988	-104.517	142.23865	 37.63723	 79.97602	-11.96507	139.86031	  4.98529	163.82658	702.29999	 42.70	
 17.008	-98.662	142.16377	 45.11588	 71.79852	-13.51532	141.82455	  4.89918	163.82753	702.33002	 42.70	
 16.996	-92.909	142.18654	 52.43149	 64.18940	-13.91933	142.76465	  4.90697	163.79143	702.34998	 42.70	
 16.996	-87.091	142.30901	 59.33946	 57.68388	-13.63385	142.87642	  4.95976	163.82532	702.38000	 42.60	
 17.012	-81.253	142.26361	 66.94185	 50.24408	-13.21744	142.21172	  4.89717	163.78645	702.32001	 42.60	
 16.988	-75.483	142.47707	 74.65592	 43.25961	-11.77082	140.55084	  4.87303	163.83598	702.33002	 42.60	
 17.001	-69.690	142.46461	 82.40115	 36.26698	-10.04123	138.16035	  4.82075	163.84323	702.19000	 42.60	
 17.002	-63.866	142.59644	 90.83875	 29.59015	 -7.39327	134.66644	  4.80755	163.83987	702.21997	 42.60	
 17.006	-58.063	142.71127	 98.58151	 23.30447	 -4.16084	130.54988	  4.82383	163.82188	702.26001	 42.60	
 17.001	-52.301	142.83652	105.83465	 17.48293	 -0.49939	125.58419	  4.82925	163.80968	702.33002	 42.60	
 17.007	-46.454	143.04652	112.75352	 11.52052	  3.96094	120.06176	  4.87056	163.85651	702.45001	 42.60	
 17.014	-40.657	143.04959	118.99046	  6.32382	  8.87303	113.70110	  4.85322	163.81607	702.41998	 42.60	
 16.988	-34.839	143.33665	124.53546	  2.25272	 15.01643	106.87747	  4.87484	163.83298	702.27002	 42.70	
 16.995	-29.081	143.44727	129.50264	 -1.30275	 21.60689	 99.31132	  4.84130	163.80377	702.34003	 42.70	
 16.990	-23.241	143.62856	133.55278	 -4.24770	 28.64550	 91.31891	  4.74069	163.82706	702.28998	 42.70	
 17.000	-17.404	143.71689	136.97086	 -6.52322	 35.59125	 83.41319	  4.75404	163.79315	702.34998	 42.80	
 17.009	-11.617	143.88155	139.46948	 -7.88328	 42.90962	 75.41039	  4.79741	163.81194	702.28003	 42.80	
 16.990	 -5.821	143.99385	140.92403	 -8.58816	 50.45920	 67.46208	  4.83010	163.73549	702.27002	 42.90	
 17.000	  0.000	144.10619	141.62375	 -8.52426	 57.80915	 59.85699	  4.92254	163.74185	702.26001	 42.90	
 16.990	  5.821	144.25171	141.37685	 -8.22075	 64.59786	 53.08834	  4.78773	163.72885	702.35999	 42.90	
 17.009	 11.617	144.28941	140.48810	 -7.44009	 72.34838	 45.65340	  4.73690	163.77989	702.29999	 42.80	
 17.000	 17.404	144.50334	138.44623	 -5.71432	 80.28958	 38.58535	  4.70061	163.79124	702.33002	 42.80	
 16.990	 23.241	144.60945	135.54715	 -3.52343	 88.49299	 31.74725	  4.81957	163.78387	702.37000	 42.90	
 16.995	 29.081	144.71634	132.00797	 -0.78484	 95.95528	 25.03513	  4.81018	163.80396	702.32001	 42.90	
 16.988	 34.839	144.85240	127.43015	  2.41886	103.34038	 18.64960	  4.89293	163.81567	702.27002	 42.90	
 17.014	 40.657	144.82906	122.40511	  5.83849	110.25003	 12.81929	  4.85933	163.79471	702.21997	 43.00	
 17.007	 46.454	144.97453	116.41470	 10.37903	116.74275	  7.89287	  4.89148	163.80974	702.26001	 43.00	
 17.001	 52.301	145.12601	109.95000	 15.78476	122.64453	  3.52151	  4.82234	163.81549	702.28998	 43.10	
 17.006	 58.063	145.11659	103.08278	 22.11190	127.74117	 -0.38535	  4.81578	163.81253	702.32001	 43.10	
 17.002	 63.866	145.08058	 95.51579	 28.58730	132.11342	 -3.67331	  4.82077	163.84293	702.39001	 43.10	
 17.001	 69.690	145.09821	 87.53568	 35.15056	135.74440	 -6.09399	  4.78612	163.84743	702.41998	 43.10	
 16.988	 75.483	145.21347	 79.84270	 42.01119	138.45464	 -7.79280	  4.86882	163.91399	702.53003	 43.10	
 17.012	 81.253	145.06213	 71.95383	 49.11410	140.28915	 -9.41194	  4.86921	163.89536	702.37000	 43.10	
 16.996	 87.091	145.10483	 63.95983	 56.73373	141.17839	 -9.93020	  4.85487	163.88272	702.28003	 43.10	
 16.996	 92.909	145.06110	 56.89516	 63.58350	141.21895	 -9.83601	  4.86031	163.89723	702.25000	 43.10	
 17.008	 98.662	144.93430	 49.79030	 70.68065	140.35362	 -9.51131	  5.13234	163.86697	702.27002	 43.00	
 16.988	104.517	144.89491	 42.31282	 78.80654	138.41733	 -8.15831	  5.14564	163.86153	702.37000	 43.10	
 17.001	110.310	144.77113	 35.24301	 86.53185	135.75352	 -6.37793	  5.13160	163.83328	702.38000	 43.20	
 17.002	116.134	144.71886	 28.71041	 94.55701	132.25595	 -3.82663	  5.01260	163.83574	702.33002	 43.20	
 17.006	121.937	144.56557	 22.19092	102.13712	127.84009	 -0.69746	  4.81853	163.78542	702.33002	 43.20	
 17.001	127.699	144.47247	 15.37255	109.31004	122.67094	  2.88937	  4.73243	163.78876	702.28998	 43.20	
 17.007	133.546	144.31938	  9.55161	115.87718	116.91548	  7.08027	  4.69318	163.76018	702.23999	 43.10	
 17.014	139.343	144.12096	  4.77330	121.91598	110.55842	 11.76393	  4.83393	163.76593	702.21997	 43.10	
 16.988	145.161	144.08417	  0.71034	127.27363	103.35523	 17.23331	  5.16680	163.80107	702.21997	 43.10	
 16.995	150.919	143.96216	 -2.93922	132.00424	 96.14858	 23.28425	  5.40783	163.80211	702.28998	 43.00	
 16.990	156.759	143.85469	 -6.00389	135.92502	 88.39941	 30.28538	  5.37345	163.78966	702.21997	 43.00	
 17.000	162.596	143.68956	 -8.49604	139.17567	 79.78677	 37.29283	  5.19458	163.78767	702.31000	 43.00	
 17.009	168.383	143.58600	-10.14678	141.38260	 71.31459	 44.38297	  5.09521	163.77733	702.20001	 43.00	
 16.990	174.179	143.53444	-11.09201	142.74258	 63.79079	 51.80006	  5.13337	163.77272	702.32001	 43.00	
 18.709	174.675	138.55598	-20.44655	147.23717	 60.14148	 48.11478	  5.08156	163.79173	702.37000	 43.00	
 18.703	169.441	138.65276	-19.41243	146.05357	 68.03931	 40.88158	  5.07626	163.81619	702.26001	 43.00	
 18.691	164.085	138.76563	-17.73355	143.88217	 75.92778	 33.34674	  5.07310	163.78806	702.28003	 43.00	
 18.706	158.818	138.91502	-15.60431	141.03416	 84.38750	 25.94215	  5.20374	163.78084	702.28003	 43.00	
 18.695	153.537	139.11583	-12.88746	137.42950	 92.45183	 19.65607	  5.27114	163.78999	702.34998	 42.90	
 18.704	148.255	139.29567	 -9.51768	133.05431	100.06382	 13.81389	  5.16940	163.77596	702.37000	 42.90	
 18.698	142.952	139.43672	 -5.74354	127.99297	107.27306	  8.08870	  4.92770	163.79884	702.37000	 43.00	
 18.699	137.625	139.61043	 -1.34099	122.35545	114.30575	  2.85434	  4.74643	163.80368	702.46002	 43.00	
 18.705	132.343	139.71283	  3.49764	116.04898	120.55103	 -1.77034	  4.66414	163.75659	702.40002	 43.00	
 18.713	127.067	139.79161	  8.55426	109.65112	126.19209	 -5.72551	  4.75229	163.77411	702.38000	 43.00	
 18.700	121.794	139.91380	 14.31683	102.31775	131.35185	 -9.16624	  4.85430	163.78165	702.31000	 43.00	
 18.698	116.504	140.00035	 21.36989	 94.87238	135.60468	-12.04088	  4.97617	163.79962	702.34003	 43.00	
 18.707	111.165	140.03801	 28.63521	 86.80210	139.18405	-14.83855	  5.01939	163.79501	702.37000	 43.00	
 18.690	105.863	140.13974	 35.56433	 78.87948	142.07114	-16.46994	  5.13934	163.80824	702.35999	 43.00	
 18.696	100.583	140.19713	 42.81697	 70.90868	144.15834	-18.05390	  5.09069	163.80858	702.32001	 43.10	
 18.700	 95.309	140.20889	 50.27658	 63.00032	145.38625	-19.02261	  4.99832	163.82658	702.38000	 43.10	
 18.700	 90.000	140.24013	 56.66236	 56.59060	145.70093	-19.11875	  4.85246	163.79749	702.34998	 43.20	
 18.700	 84.691	140.30914	 64.19083	 49.33445	145.38962	-18.89047	  4.80637	163.78604	702.37000	 43.20	
 18.696	 79.417	140.39833	 72.24182	 42.02148	144.13684	-17.72970	  4.75838	163.83640	702.33002	 43.30	
 18.690	 74.137	140.36482	 80.06815	 34.96445	142.01007	-16.26702	  4.72549	163.80421	702.28003	 43.30	
 18.707	 68.835	140.35379	 87.87862	 27.25211	139.25221	-14.50093	  4.70667	163.80051	702.34998	 43.30	
 18.698	 63.496	140.37274	 95.84858	 20.38604	135.49808	-11.85643	  4.71288	163.81004	702.32001	 43.30	
 18.700	 58.206	140.31664	103.42296	 14.36795	131.14101	 -8.75253	  4.73703	163.81462	702.26001	 43.30	
 18.713	 52.933	140.20502	110.39497	  8.80199	125.92264	 -5.11122	  4.72757	163.77094	702.34003	 43.30	
 18.705	 47.657	140.26340	116.91656	  3.96478	120.23956	 -0.78862	  4.70267	163.77928	702.26001	 43.40	
 18.699	 42.375	140.20631	122.91226	 -0.13603	113.89597	  3.96483	  4.74924	163.75975	702.19000	 43.40	
 18.698	 37.048	140.09850	128.50555	 -4.02072	107.05824	  9.31764	  4.77880	163.80051	702.31000	 43.40	
 18.704	 31.745	140.01346	133.32672	 -7.45438	 99.70831	 15.15195	  4.74006	163.79028	702.19000	 43.40	
 18.695	 26.463	139.90797	137.46564	-10.56510	 92.23306	 21.37594	  4.63338	163.77252	702.32001	 43.40	
 18.706	 21.182	139.71053	140.82974	-13.19875	 83.98476	 28.05407	  4.60511	163.77197	702.35999	 43.40	
 18.691	 15.915	139.69801	143.19789	-15.06782	 76.48347	 35.13260	  4.59143	163.76498	702.37000	 43.40	
 18.703	 10.559	139.52879	145.07442	-16.65016	 68.48521	 42.32098	  4.59440	163.80598	702.21002	 43.40	
 18.709	  5.325	139.43649	145.99724	-17.56004	 60.96316	 49.60926	  4.69459	163.80301	702.26001	 43.50	
 18.700	  0.000	139.30237	146.14665	-17.82797	 54.34520	 56.06340	  4.77581	163.76839	702.29999	 43.50	
 18.709	 -5.325	139.12442	145.50494	-18.01383	 46.99268	 63.72962	  4.77132	163.77750	702.35999	 43.60	
 18.703	-10.559	139.00763	144.06181	-16.92941	 39.61002	 71.64840	  4.75033	163.78639	702.32001	 43.60	
 18.691	-15.915	138.84869	141.79559	-15.84816	 32.28909	 79.72255	  4.68828	163.75435	702.42999	 43.70	
 18.706	-21.182	138.65916	138.84888	-14.00088	 25.01700	 87.62714	  4.71615	163.77769	702.33002	 43.70	
 18.695	-26.463	138.52095	134.91145	-11.24499	 18.27898	 95.48242	  4.66113	163.76849	702.28998	 43.80	
 18.704	-31.745	138.32915	130.41139	 -7.90904	 11.74953	103.28386	  4.66252	163.76837	702.42999	 43.80	
 18.698	-37.048	138.18312	125.19712	 -4.07256	  5.59642	110.52255	  4.69142	163.75734	702.42999	 43.70	
 18.699	-42.375	138.05702	119.40337	  0.32158	  0.46834	117.22578	  4.68182	163.76288	702.34003	 43.70	
 18.705	-47.657	137.88773	112.82537	  5.10369	 -3.98392	123.39045	  4.69226	163.71085	702.46997	 43.70	
 18.713	-52.933	137.77739	105.99891	 10.54203	 -8.00515	128.91589	  4.72407	163.75117	702.39001	 43.80	
 18.700	-58.206	137.69539	 98.74829	 16.66995	-11.70360	133.83183	  4.69812	163.75668	702.41998	 43.80	
 18.698	-63.496	137.54659	 90.82265	 22.87444	-15.29273	138.05621	  4.68221	163.74672	702.33002	 43.70	
 18.707	-68.835	137.48885	 82.69765	 29.50630	-18.10357	141.56311	  4.67475	163.73938	702.38000	 43.70	
 18.690	-74.137	137.42259	 74.97101	 36.28638	-20.06239	144.12021	  4.68218	163.74394	702.35999	 43.70	
 18.696	-79.417	137.37630	 66.98930	 43.29763	-21.56520	146.00381	  4.77714	163.77620	702.29999	 43.70	
 18.700	-84.691	137.27747	 58.95219	 50.58873	-22.58745	147.04926	  4.81054	163.75406	702.23999	 43.70	
 18.700	-90.000	137.23361	 51.77685	 57.47847	-22.86885	147.28870	  4.80762	163.74249	702.35999	 43.70	
 18.700	-95.309	137.21382	 45.11700	 64.24051	-22.79235	146.81067	  4.78555	163.78476	702.33002	 43.60	
 18.696	-100.583	137.18782	 37.59457	 71.97815	-21.89005	145.47551	  4.78264	163.77969	702.35999	 43.60	
 18.690	-105.863	137.23238	 29.82252	 79.82620	-20.28741	143.29909	  4.81507	163.73578	702.33002	 43.60	
 18.707	-111.165	137.25035	 22.45575	 87.41137	-18.19514	140.40833	  4.89053	163.73499	702.31000	 43.60	
 18.698	-116.504	137.37318	 16.04188	 95.41044	-15.43780	136.57933	  4.95037	163.70697	702.44000	 43.60	
 18.700	-121.794	137.44543	 10.18686	103.04054	-12.29751	132.14990	  4.95283	163.72290	702.39001	 43.70	
 18.713	-127.067	137.51027	  4.74111	110.20497	 -8.13396	127.01664	  4.91198	163.69965	702.34003	 43.70	
 18.705	-132.343	137.57330	 -0.14022	116.75799	 -3.71365	121.47265	  4.90669	163.69635	702.28003	 43.60	
 18.699	-137.625	137.69101	 -4.66763	122.99517	  1.16867	115.08096	  4.91257	163.67883	702.46997	 43.60	
 18.698	-142.952	137.84703	 -8.58460	128.54633	  6.23386	108.32180	  4.88836	163.69391	702.35999	 43.60	
 18.704	-148.255	137.98526	-11.87137	133.57211	 11.49385	101.02063	  4.85898	163.68224	702.38000	 43.60	
 18.695	-153.537	138.16971	-14.56156	137.89789	 17.59827	 93.41827	  4.81598	163.72270	702.40997	 43.60	
 18.706	-158.818	138.21983	-16.83195	141.40746	 24.10796	 85.63868	  4.83203	163.68317	702.31000	 43.60	
 18.691	-164.085	138.31532	-18.39432	144.12428	 30.91637	 77.90337	  4.88463	163.70654	702.27002	 43.60	
 18.703	-169.441	138.30612	-19.69734	146.12810	 38.24667	 69.78736	  5.07746	163.69238	702.34998	 43.60	
 18.709	-174.675	138.32701	-20.52712	147.28865	 45.64196	 62.02024	  5.13382	163.69331	702.42999	 43.60	
 18.700	180.000	138.46115	-20.39682	147.61147	 52.50558	 55.28127	  5.13089	163.70570	702.41998	 43.50	
 20.400	180.000	133.25728	-29.50712	151.35875	 48.53977	 51.50874	  5.09711	163.72798	702.46002	 43.50	
 20.401	-175.153	133.17923	-29.48781	151.10014	 42.15274	 57.87289	  5.09759	163.75800	702.42999	 43.50	
 20.407	-170.264	133.10597	-28.78246	150.12683	 34.86621	 65.55669	  5.01353	163.75912	702.33002	 43.50	
 20.410	-165.423	132.99390	-27.69814	148.38957	 27.45629	 73.54530	  4.91988	163.72644	702.34003	 43.50	
 20.392	-160.496	133.04251	-26.12719	145.80814	 20.30364	 81.56805	  4.88450	163.74612	702.25000	 43.50	
 20.401	-155.705	133.00815	-23.98044	142.66507	 13.83921	 89.12885	  4.79892	163.77267	702.40997	 43.40	
 20.405	-150.835	132.88797	-21.45615	138.74312	  7.74374	 96.71414	  4.83574	163.77220	702.32001	 43.40	
 20.397	-145.903	132.66977	-18.40574	133.96312	  2.01296	104.45306	  4.81706	163.73116	702.39001	 43.40	
 20.392	-141.062	132.63777	-14.71361	128.79753	 -3.10896	111.57783	  4.87166	163.78230	702.40002	 43.40	
 20.396	-136.227	132.44206	-10.95181	123.07657	 -8.03183	118.08035	  4.86435	163.75050	702.34998	 43.40	
 20.408	-131.372	132.30182	 -6.64868	116.79587	-12.48445	124.25257	  4.83300	163.75435	702.42999	 43.40	
 20.410	-126.511	132.25366	 -1.70670	110.02903	-16.45605	129.91454	  4.85742	163.76514	702.28998	 43.50	
 20.400	-121.604	132.09999	  3.41669	102.77094	-20.05156	134.98148	  4.82548	163.72836	702.40997	 43.50	
 20.403	-116.741	131.93861	  9.05748	 94.99963	-23.19812	139.43027	  4.74097	163.74440	702.29999	 43.60	
 20.413	-111.900	131.82187	 15.34710	 87.27844	-25.89727	143.19302	  4.77856	163.73074	702.39001	 43.60	
 20.398	-107.004	131.77318	 22.20089	 79.47680	-28.01499	146.27242	  4.80272	163.73465	702.48999	 43.70	
 20.394	-102.132	131.72974	 30.18085	 71.65722	-29.76715	148.53548	  4.69700	163.70961	702.39001	 43.70	
 20.403	-97.332	131.67833	 37.43558	 63.83534	-31.03209	150.14432	  4.75512	163.72868	702.40997	 43.60	
 20.392	-92.440	131.64301	 44.23547	 56.62400	-31.76333	150.97444	  4.76795	163.72433	702.45001	 43.60	
 20.392	-87.560	131.68091	 50.90705	 50.31262	-31.67378	151.07930	  4.77112	163.70082	702.41998	 43.60	
 20.403	-82.668	131.73071	 58.71062	 43.04136	-31.16274	150.47359	  4.73156	163.68011	702.41998	 43.60	
 20.394	-77.868	131.91920	 66.59258	 36.04076	-29.90775	149.26970	  4.72685	163.69127	702.27002	 43.60	
 20.398	-72.996	132.07822	 74.74614	 29.20063	-28.21657	147.29076	  4.66793	163.76495	702.38000	 43.50	
 20.413	-68.100	132.16995	 82.51952	 22.30477	-26.17544	144.56052	  4.62143	163.76483	702.41998	 43.50	
 20.403	-63.259	132.60786	 90.37672	 15.71364	-23.51446	141.03297	  4.59212	163.70712	702.34003	 43.50	
 20.400	-58.396	132.88194	 98.26580	  9.69037	-19.89820	136.89246	  4.65292	163.75732	702.44000	 43.50	
 20.410	-53.489	132.69743	105.74870	  4.02861	-16.21147	131.96924	  4.65578	163.75154	702.40997	 43.40	
 20.408	-48.628	133.00850	112.61037	 -1.05976	-12.29015	126.46897	  4.63008	163.75275	702.28998	 43.40	
 20.396	-43.773	133.22324	119.24245	 -5.68788	 -7.74252	120.45544	  4.62208	163.73079	702.46002	 43.50	
 20.392	-38.938	133.29601	125.13715	-10.19497	 -3.03705	113.98489	  4.65339	163.75224	702.38000	 43.50	
 20.397	-34.097	133.42500	130.68240	-14.37427	  1.98682	106.95345	  4.59300	163.72078	702.46997	 43.50	
 20.405	-29.165	133.37180	135.71219	-17.93734	  7.53389	 99.29552	  4.66918	163.75816	702.42999	 43.50	
 20.401	-24.295	133.23021	139.76398	-20.85111	 13.87365	 91.45599	  4.66469	163.70204	702.38000	 43.60	
 20.392	-19.504	133.46117	143.25325	-23.14476	 21.07808	 83.90608	  4.61404	163.70674	702.26001	 43.70	
 20.410	-14.577	133.60641	146.10443	-24.83791	 28.29786	 75.72879	  4.58610	163.74211	702.37000	 43.70	
 20.407	 -9.736	133.83409	148.15681	-25.69058	 35.88685	 67.68193	  4.63883	163.75298	702.33002	 43.80	
 20.401	 -4.847	133.96701	149.46451	-26.82667	 43.34286	 59.55575	  4.68914	163.73097	702.33002	 43.80	
 20.400	  0.000	134.04178	150.00215	-26.68505	 50.47606	 52.01043	  4.68121	163.67743	702.32001	 43.80	
 20.401	  4.847	134.09541	149.90497	-26.66181	 56.76507	 45.67181	  4.62074	163.67368	702.34998	 43.80	
 20.407	  9.736	134.27470	149.13760	-25.68772	 64.34404	 38.36045	  4.54104	163.67651	702.34003	 43.80	
 20.410	 14.577	134.39551	147.57684	-24.31899	 72.18071	 30.98794	  4.52089	163.67674	702.31000	 43.70	
 20.392	 19.504	134.52484	145.16812	-22.51238	 80.12021	 24.03861	  4.53955	163.67627	702.26001	 43.70	
 20.401	 24.295	134.62527	142.22339	-20.36609	 87.67084	 17.49636	  4.57206	163.69934	702.35999	 43.70	
 20.405	 29.165	134.70958	138.52962	-17.67775	 95.80279	 11.10937	  4.48325	163.72179	702.34003	 43.70	
 20.397	 34.097	134.84607	133.92937	-14.25876	103.25168	  5.35130	  4.53849	163.74205	702.38000	 43.70	
 20.392	 38.938	135.03325	128.74005	-10.58247	110.51169	  0.04757	  4.53944	163.73781	702.46997	 43.70	
 20.396	 43.773	135.02783	123.25110	 -6.82487	116.96186	 -4.98541	  4.66086	163.70145	702.40002	 43.80	
 20.408	 48.628	135.08115	116.97337	 -2.60279	123.27681	 -9.44454	  4.60191	163.73044	702.39001	 43.80	
 20.410	 53.489	135.11115	110.41855	  2.17665	128.89197	-13.34478	  4.61808	163.70901	702.40997	 43.80	
 20.400	 58.396	135.23642	103.06420	  7.65278	134.06734	-16.88651	  4.59836	163.72499	702.44000	 43.80	
 20.403	 63.259	135.25705	 95.61740	 13.57364	138.50041	-20.04289	  4.60121	163.73491	702.41998	 43.80	
 20.413	 68.100	135.19580	 87.74343	 19.78269	142.22829	-22.79769	  4.56714	163.74576	702.40997	 43.70	
 20.398	 72.996	135.23570	 79.95081	 27.08976	145.23973	-24.79034	  4.59156	163.71446	702.37000	 43.70	
 20.394	 77.868	135.17984	 72.05905	 34.50851	147.46355	-26.35616	  4.67326	163.69383	702.35999	 43.70	
 20.403	 82.668	135.10056	 64.20844	 41.67965	148.89511	-27.75578	  4.73627	163.68172	702.41998	 43.60	
 20.392	 87.560	135.15620	 56.36102	 49.06778	149.67128	-28.49253	  4.85891	163.76372	702.37000	 43.60	
 20.392	 92.440	135.09077	 49.86432	 55.35606	149.64468	-28.47186	  4.85856	163.74348	702.41998	 43.60	
 20.403	 97.332	134.98161	 42.81452	 62.75759	149.02184	-27.80990	  4.94523	163.71933	702.28998	 43.60	
 20.394	102.132	135.02455	 35.58174	 70.61226	147.50786	-26.47017	  4.97710	163.70221	702.44000	 43.70	
 20.398	107.004	134.94662	 28.62803	 78.53159	145.31255	-24.90519	  4.96708	163.68146	702.38000	 43.70	
 20.413	111.900	134.90306	 20.82197	 86.47857	142.37526	-23.06882	  4.98903	163.68074	702.41998	 43.80	
 20.403	116.741	134.90669	 13.83861	 94.35745	138.63516	-20.34778	  4.94188	163.70256	702.42999	 43.90	
 20.400	121.604	134.86394	  7.95657	101.92371	134.40976	-17.45607	  4.87449	163.74809	702.44000	 43.90	
 20.410	126.511	134.73529	  2.40560	109.28854	129.31813	-14.13684	  4.80808	163.72861	702.35999	 43.90	
 20.408	131.372	134.54114	 -3.04613	115.92841	123.71699	-10.29820	  4.68879	163.68300	702.29999	 43.90	
 20.396	136.227	134.42311	 -7.72305	122.26383	117.49208	 -5.92570	  4.73065	163.66161	702.44000	 43.80	
 20.392	141.062	134.28531	-11.86503	127.98357	110.75539	 -1.11341	  4.76897	163.64369	702.39001	 43.80	
 20.397	145.903	134.14496	-15.62145	133.26437	103.73898	  4.07873	  4.93374	163.64374	702.40997	 43.80	
 20.405	150.835	133.92056	-19.30046	138.10709	 96.09141	  9.78268	  5.16983	163.66312	702.42999	 43.70	
 20.401	155.705	133.79018	-22.23515	142.15062	 88.29443	 15.95239	  5.13746	163.71629	702.45001	 43.70	
 20.392	160.496	133.62111	-24.80122	145.44749	 80.07044	 22.54904	  5.10034	163.71886	702.39001	 43.60	
 20.410	165.423	133.42618	-26.97992	148.06085	 72.13261	 29.53029	  5.07110	163.70964	702.40997	 43.60	
 20.407	170.264	133.31677	-28.57557	149.87692	 64.16460	 36.75886	  5.01926	163.70399	702.40997	 43.50	
 20.401	175.153	133.28339	-29.55592	150.95547	 56.00857	 44.35619	  5.08250	163.70245	702.38000	 43.50	
  0.141	 45.000	163.81770	 75.88335	 77.54836	 74.99298	 76.22495	  6.23424	163.67838	702.37000	 43.50	
  4.001	128.691	163.45235	 63.33128	 88.78645	 88.42541	 61.20543	  5.55585	163.69110	702.35999	 43.50	
  4.002	 76.995	163.49744	 79.31030	 72.59673	 92.19629	 57.66240	  5.61880	163.67685	702.28003	 43.40	
  4.002	 25.892	163.49110	 92.15675	 60.42497	 81.93781	 67.42321	  5.58609	163.70354	702.38000	 43.40	
  4.002	-25.892	163.35158	 91.54859	 60.58957	 64.19574	 84.02909	  5.46404	163.66643	702.39001	 43.40	
  4.002	-76.995	163.26291	 78.09849	 72.88539	 54.60506	 94.74838	  5.38420	163.71524	702.46997	 43.40	
  4.001	-128.691	163.21089	 62.52331	 88.99533	 58.13311	 90.67751	  5.29557	163.72379	702.45001	 43.40	
  4.000	180.000	163.26370	 55.97139	 96.39544	 73.52606	 75.50123	  5.24602	163.65692	702.46997	 43.50	
  8.000	180.000	160.30487	 36.56091	112.98879	 70.40206	 72.45138	  4.29716	163.68213	702.46997	 43.60	
  7.991	-152.370	160.10062	 39.88018	108.22794	 53.23160	 89.97926	  4.27480	163.65953	702.56000	 43.60	
  7.997	-124.550	159.98730	 50.60577	 95.85501	 41.04901	104.69686	  4.29436	163.70094	702.46002	 43.70	
  8.006	-96.837	159.96716	 66.24794	 78.43457	 35.12881	111.81127	  4.46271	163.68813	702.46997	 43.70	
  7.988	-69.228	160.06355	 83.81679	 61.36354	 37.22232	109.60813	  4.45063	163.64325	702.48999	 43.80	
  7.997	-41.563	160.22711	 99.87663	 47.53995	 46.69219	 99.01365	  4.49083	163.63753	702.50000	 43.80	
  8.008	-13.821	160.39212	109.37349	 39.54344	 61.63643	 81.86089	  4.56019	163.59392	702.46997	 43.80	
  8.008	 13.821	160.63930	109.78716	 39.43128	 79.75365	 64.04585	  4.49845	163.63788	702.50000	 43.90	
  7.997	 41.563	160.80994	101.48585	 47.38772	 96.26660	 49.08192	  4.33322	163.69257	702.46002	 43.90	
  7.988	 69.228	160.85167	 86.21407	 60.89800	107.14170	 39.62186	  4.23803	163.65858	702.37000	 43.90	
  8.006	 96.837	160.80818	 68.16042	 78.01167	109.49414	 37.65319	  4.26847	163.64989	702.42999	 43.80	
  7.997	124.550	160.65559	 52.28348	 95.28764	102.70649	 43.21445	  4.54847	163.65021	702.40997	 43.80	
  7.991	152.370	160.39494	 40.83416	108.03278	 88.15237	 55.76248	  4.56740	163.58620	702.44000	 43.80	
 12.009	161.059	154.57845	 18.72834	124.12296	 83.89487	 50.50093	  5.01397	163.59360	702.40997	 43.90	
 12.013	142.081	154.81897	 25.86177	114.64470	101.30053	 35.26115	  5.11191	163.61665	702.34998	 43.90	
 12.006	123.113	155.12985	 39.58527	 99.90669	114.90742	 24.81100	  4.47241	163.63797	702.28003	 43.90	
 12.007	104.200	155.29422	 55.50136	 82.02055	123.13501	 18.50836	  4.41892	163.62514	702.35999	 43.80	
 11.989	 85.301	155.47020	 72.89494	 64.61488	124.77398	 17.72093	  4.30217	163.58887	702.44000	 43.90	
 12.013	 66.294	155.39790	 91.37486	 47.77246	119.66588	 20.93825	  4.29268	163.63026	702.53003	 43.90	
 12.012	 47.388	155.33333	107.55633	 33.82591	108.46081	 29.63449	  4.42629	163.62309	702.50000	 43.90	
 11.990	 28.440	155.19804	119.21149	 24.21573	 92.93470	 43.59951	  4.64866	163.61581	702.50000	 44.00	
 11.991	  9.464	155.03703	125.08055	 18.95041	 74.99164	 59.86334	  4.78608	163.59694	702.53003	 44.10	
 11.991	 -9.464	154.73393	124.47975	 18.81401	 57.17659	 77.66266	  4.85901	163.57317	702.53003	 44.20	
 11.990	-28.440	154.49232	117.55820	 24.07617	 40.59298	 96.04874	  4.91140	163.61371	702.50000	 44.20	
 12.012	-47.388	154.15692	104.73766	 34.37300	 27.30702	111.79969	  4.94315	163.64265	702.46002	 44.20	
 12.013	-66.294	153.93768	 87.85313	 48.41451	 18.65423	122.20467	  4.88122	163.62553	702.51001	 44.20	
 11.989	-85.301	153.81409	 69.23322	 65.35208	 15.21218	126.76814	  4.94274	163.57346	702.48999	 44.20	
 12.007	-104.200	153.67032	 52.45228	 83.09752	 15.69592	124.87106	  4.89515	163.56470	702.46997	 44.30	
 12.006	-123.113	153.74135	 35.92079	100.82084	 21.91260	116.72690	  4.88440	163.56532	702.46997	 44.30	
 12.013	-142.081	153.93668	 24.25873	115.34845	 32.81818	103.10857	  4.75110	163.61754	702.46002	 44.20	
 12.009	-161.059	154.16142	 17.58582	124.35339	 47.98917	 85.63465	  4.81674	163.59854	702.48999	 44.20	
 16.000	180.000	145.95265	 -5.98750	140.31993	 58.05772	 61.20150	  5.17068	163.63725	702.51001	 44.20	
 15.990	-165.604	145.74216	 -4.61677	137.96742	 40.65757	 78.63157	  5.11058	163.60724	702.39001	 44.10	
 16.002	-151.165	145.55850	  0.26338	130.61879	 24.92346	 96.75229	  4.94473	163.63187	702.51001	 44.10	
 16.002	-136.836	145.30865	  8.54176	118.70818	 12.39520	113.37827	  5.07882	163.63026	702.46002	 44.10	
 15.995	-122.439	145.05573	 20.60437	103.10420	  2.13319	126.46732	  5.15916	163.61551	702.50000	 44.10	
 15.993	-107.966	144.85318	 36.71714	 85.24153	 -5.72859	135.46167	  5.09491	163.58852	702.40002	 44.10	
 16.005	-93.629	144.76816	 53.83176	 66.74124	 -8.67236	139.79239	  4.95849	163.60204	702.48999	 44.10	
 15.992	-79.234	144.95229	 70.77053	 50.30292	 -7.48722	138.70944	  4.98575	163.57161	702.56000	 44.10	
 16.009	-64.774	145.09309	 89.49700	 34.09820	 -2.80492	132.61346	  4.91754	163.54619	702.48999	 44.10	
 15.997	-50.364	145.42155	107.10668	 19.78668	  5.54128	121.92259	  4.94609	163.54892	702.40997	 44.20	
 15.997	-36.045	145.66437	121.48715	  7.67852	 17.73333	107.33401	  4.93751	163.56404	702.46002	 44.30	
 16.000	-21.597	146.06642	131.92236	  0.07567	 33.83553	 89.27030	  4.86299	163.54633	702.47998	 44.40	
 16.003	 -7.169	146.41931	137.69907	 -3.29691	 51.00769	 70.69112	  4.94047	163.56371	702.51001	 44.40	
 16.003	  7.169	146.65173	138.32146	 -2.85663	 67.85622	 53.58450	  4.86354	163.55844	702.46002	 44.40	
 16.000	 21.597	146.89365	133.74680	  0.76300	 86.51175	 36.82304	  4.85764	163.57764	702.46997	 44.40	
 15.997	 36.045	147.08295	124.32719	  7.73955	104.02991	 21.49741	  4.89017	163.54971	702.45001	 44.40	
 15.997	 50.364	147.31059	110.94337	 18.51798	118.88651	  9.43750	  4.89883	163.57030	702.41998	 44.30	
 16.009	 64.774	147.44225	 94.18853	 33.15650	130.13031	  1.11096	  4.91192	163.59924	702.53998	 44.30	
 15.992	 79.234	147.33533	 75.62186	 49.26485	136.67615	 -3.56597	  4.85860	163.56737	702.48999	 44.20	
 16.005	 93.629	147.19090	 58.05130	 65.85646	137.97203	 -4.39987	  4.98521	163.55093	702.53003	 44.20	
 15.993	107.966	147.10965	 40.95302	 83.73668	134.03220	 -1.64714	  5.16447	163.58586	702.57001	 44.20	
 15.995	122.439	146.89868	 25.77805	102.24252	125.06668	  4.63645	  4.87665	163.56210	702.50000	 44.20	
 16.002	136.836	146.60257	 11.31590	117.76496	112.02588	 14.02656	  4.93044	163.57826	702.53003	 44.20	
 16.002	151.165	146.27386	  1.73184	129.88040	 95.47070	 27.67487	  5.42872	163.54222	702.39001	 44.30	
 15.990	165.604	146.12280	 -4.01263	137.61116	 76.30690	 43.73701	  5.17854	163.56046	702.46002	 44.30	
 20.003	168.362	134.54253	-25.90647	148.27344	 67.81512	 35.14750	  4.99403	163.54242	702.53003	 44.30	
 20.008	156.764	134.82648	-21.01620	142.06694	 86.71946	 18.67179	  5.22679	163.53706	702.51001	 44.20	
 20.000	145.147	135.36038	-13.36439	131.91226	104.68957	  5.06187	  4.96176	163.57147	702.48999	 44.20	
 19.995	133.545	135.66263	 -3.42348	118.43767	120.45128	 -6.58408	  4.70104	163.53175	702.44000	 44.20	
 20.009	121.926	135.84860	  9.03792	102.30750	133.22690	-15.38759	  4.88237	163.52089	702.53003	 44.10	
 20.005	110.327	136.04317	 25.17369	 84.23637	142.22069	-21.70342	  4.94073	163.50760	702.46002	 44.10	
 19.989	 98.733	136.17343	 41.74102	 65.79431	147.49571	-25.30224	  4.96996	163.60559	702.50000	 44.00	
 19.999	 87.075	136.24826	 57.91238	 49.24048	148.54773	-26.26153	  4.82491	163.56505	702.41998	 44.00	
 19.992	 75.457	136.33319	 76.35749	 32.21740	145.44083	-23.40322	  4.66342	163.55760	702.46997	 43.90	
 20.009	 63.844	136.40518	 94.83812	 15.78476	138.12019	-18.40589	  4.66381	163.58841	702.46002	 43.90	
 19.989	 52.269	136.27942	111.69210	  2.72012	126.84529	-10.40677	  4.62571	163.54872	702.46002	 43.80	
 19.999	 40.602	136.17015	126.30506	 -7.41788	112.35782	  0.03640	  4.67925	163.56792	702.39001	 43.90	
 20.004	 29.051	135.81003	137.87637	-15.75022	 95.58987	 12.84673	  4.58798	163.55455	702.57001	 43.90	
 20.005	 17.433	135.59509	145.36362	-21.29797	 77.13338	 28.32536	  4.55106	163.55582	702.44000	 43.90	
 20.006	  5.780	135.24609	148.83481	-24.50959	 58.85623	 45.38877	  4.59586	163.53665	702.40997	 43.90	
 20.006	 -5.780	135.01341	148.24780	-24.67477	 42.89314	 61.75291	  4.69858	163.56918	702.38000	 43.90	
 20.005	-17.433	134.68779	143.69952	-22.02904	 25.50424	 80.69876	  4.67220	163.60193	702.34998	 43.90	
 20.004	-29.051	134.29138	135.04967	-16.05453	  9.50505	 99.00594	  4.64338	163.58261	702.41998	 43.90	
 19.999	-40.602	134.11424	122.67614	 -6.79866	 -2.93836	115.92062	  4.62037	163.64696	702.37000	 43.90	
 19.989	-52.269	133.77776	107.23422	  4.46244	-13.20525	129.96924	  4.64571	163.60497	702.40002	 43.90	
 20.009	-63.844	133.40710	 89.65121	 18.10204	-21.78579	140.64813	  4.60762	163.61455	702.46002	 44.00	
 19.992	-75.457	133.19788	 71.16729	 33.92961	-27.04250	147.38481	  4.67391	163.57776	702.40002	 44.00	
 19.999	-87.075	133.00188	 52.54158	 50.65499	-29.62529	150.08696	  4.80031	163.61093	702.39001	 43.90	
 19.989	-98.733	133.00064	 36.33908	 66.88014	-28.78690	148.78760	  4.74415	163.61748	702.42999	 43.90	
 20.005	-110.327	133.02109	 18.87151	 85.12032	-24.94280	143.44095	  4.77787	163.59521	702.40997	 43.90	
 20.009	-121.926	133.26996	  4.70480	103.09214	-18.31918	133.96951	  4.84639	163.54793	702.39001	 43.90	
 19.995	-133.545	133.56099	 -6.79408	119.18481	 -8.45926	121.06454	  4.90283	163.57425	702.40997	 43.90	
 20.000	-145.147	133.84601	-16.09662	132.51315	  3.01556	105.48524	  4.86737	163.58246	702.46997	 43.90	
 20.008	-156.764	134.10149	-22.64336	142.52707	 16.92260	 87.62322	  4.81952	163.56709	702.47998	 43.80	
 20.003	-168.362	134.25720	-26.33343	148.60321	 33.09799	 69.23994	  5.01219	163.63126	702.46002	 43.90	
 20.000	180.000	134.38626	-27.53153	150.44051	 49.41807	 52.37045	  5.13618	163.59695	702.45001	 43.80	
