FileType=PCF
NHL=14
Date=08/24/17	14:18:07
Facility=APL
Serial=16328-3
Customer=NASA
NP=6
Mach=0.250000
Calibration=1:1
CalPts=490
TstPts=95
PortNumbering=AP Standard
Units=Torr C m/s kg/m^3 deg mm 
Theta[deg]	Phi[deg]	P1[Torr]	P2[Torr]	P3[Torr]	P4[Torr]	P5[Torr]	P6[Torr]	Pt[Torr]	Ps[Abs,Torr]	Ts[C]	
  0.000	  0.000	 30.48290	 16.15490	 15.85561	 15.86202	 16.32917	  0.30944	 30.43778	705.50800	 24.00	
  1.691	128.401	 30.44156	 15.14281	 16.76041	 17.03300	 15.04920	  0.29719	 30.40397	705.51398	 24.00	
  1.692	 77.194	 30.47015	 16.53044	 15.46806	 17.33249	 14.75958	  0.28749	 30.42705	705.40601	 24.00	
  1.699	 26.182	 30.49166	 17.61830	 14.36746	 16.43890	 15.60275	  0.29479	 30.45611	705.54401	 24.00	
  1.699	-26.182	 30.52315	 17.59789	 14.39714	 15.13442	 17.11778	  0.28286	 30.48232	705.60303	 24.00	
  1.692	-77.194	 30.51466	 16.44388	 15.54404	 14.35208	 17.94478	  0.27946	 30.47560	705.57599	 24.00	
  1.691	-128.401	 30.50331	 15.08276	 16.85820	 14.64454	 17.64053	  0.29049	 30.46329	705.52002	 24.00	
  1.700	180.000	 30.48675	 14.53861	 17.41851	 15.82383	 16.30841	  0.30044	 30.43991	705.58398	 24.00	
  3.400	180.000	 30.45886	 12.73818	 18.94886	 15.72728	 16.18688	  0.24619	 30.46676	705.59302	 24.00	
  3.388	-152.325	 30.44598	 13.02802	 18.59181	 14.32280	 17.73236	  0.24718	 30.46037	705.46002	 24.00	
  3.397	-124.529	 30.40485	 14.01178	 17.53312	 13.19263	 18.83271	  0.23035	 30.42963	705.51599	 24.00	
  3.399	-96.763	 30.40692	 15.41057	 16.06086	 12.54647	 19.37412	  0.21900	 30.42858	705.46503	 24.00	
  3.394	-69.283	 30.42000	 16.99339	 14.55119	 12.74213	 19.21805	  0.21703	 30.46046	705.53003	 24.00	
  3.400	-41.398	 30.41617	 18.35080	 13.10821	 13.61954	 18.38280	  0.23559	 30.44982	705.52197	 24.00	
  3.401	-14.021	 30.44778	 19.13287	 12.41783	 14.86978	 17.06990	  0.25282	 30.49015	705.46002	 24.00	
  3.401	 14.021	 30.40998	 19.14572	 12.37245	 16.31688	 15.40392	  0.22230	 30.44525	705.58698	 24.00	
  3.400	 41.398	 30.40963	 18.50200	 13.02772	 17.71593	 14.08872	  0.23529	 30.42765	705.52698	 24.00	
  3.394	 69.283	 30.44323	 17.26546	 14.53882	 18.64693	 13.24482	  0.23087	 30.45420	705.41302	 24.00	
  3.399	 96.763	 30.43357	 15.70927	 16.03225	 18.89626	 13.03551	  0.23867	 30.42541	705.45801	 24.00	
  3.397	124.529	 30.43076	 14.30487	 17.44341	 18.34326	 13.58162	  0.25062	 30.41373	705.32599	 24.00	
  3.388	152.325	 30.42531	 13.08813	 18.52818	 17.16764	 14.72380	  0.26710	 30.42054	705.48901	 24.00	
  5.099	161.165	 30.28932	 11.34781	 20.08515	 17.02074	 14.37672	  0.16564	 30.41819	705.40601	 24.00	
  5.109	142.013	 30.30176	 12.05307	 19.26147	 18.47281	 12.81083	  0.10796	 30.40984	705.43201	 24.00	
  5.095	123.033	 30.32628	 13.15378	 18.02643	 19.53305	 11.93606	  0.11200	 30.43431	705.49597	 24.00	
  5.105	104.191	 30.32286	 14.75541	 16.54540	 20.16523	 11.35131	  0.13917	 30.43392	705.52197	 24.00	
  5.093	 85.207	 30.31844	 16.31184	 15.02794	 20.25039	 11.24021	  0.06963	 30.44221	705.45502	 24.00	
  5.104	 66.290	 30.31569	 17.88192	 13.25499	 19.83570	 11.61069	  0.09696	 30.45956	705.51599	 24.00	
  5.094	 47.331	 30.23695	 19.15129	 11.95343	 18.87671	 12.32100	  0.04189	 30.39586	705.51398	 24.00	
  5.089	 28.397	 30.28017	 20.11670	 11.04140	 17.62997	 13.70321	  0.07294	 30.46425	705.54999	 24.00	
  5.096	  9.576	 30.25356	 20.57234	 10.58308	 16.10361	 15.15677	  0.12951	 30.46311	705.53003	 24.00	
  5.096	 -9.576	 30.19958	 20.51521	 10.59228	 14.53003	 16.72583	  0.07545	 30.41594	705.45801	 24.00	
  5.089	-28.397	 30.22235	 19.96601	 11.09668	 13.03858	 18.30749	  0.14308	 30.44266	705.52802	 24.00	
  5.094	-47.331	 30.18527	 18.87527	 12.07435	 11.82400	 19.50958	  0.02148	 30.40376	705.44897	 24.00	
  5.104	-66.290	 30.20089	 17.52404	 13.35849	 10.99907	 20.37326	 -0.00643	 30.42343	705.43500	 24.00	
  5.093	-85.207	 30.12220	 15.87749	 14.96893	 10.66164	 20.65194	  0.08747	 30.32884	705.46899	 24.00	
  5.105	-104.191	 30.22447	 14.33189	 16.63817	 10.82376	 20.59036	 -0.01154	 30.42369	705.46002	 24.00	
  5.095	-123.033	 30.21354	 12.90631	 18.10149	 11.44993	 19.96033	  0.01994	 30.39602	705.41803	 24.00	
  5.109	-142.013	 30.18127	 11.85205	 19.29297	 12.47804	 18.87800	  0.04452	 30.35565	705.35901	 24.00	
  5.099	-161.165	 30.22341	 11.23046	 20.07535	 14.01988	 17.50056	  0.08263	 30.38558	705.41602	 24.00	
  5.100	180.000	 30.21888	 11.05788	 20.31907	 15.47630	 15.87712	  0.17090	 30.37068	705.31897	 24.00	
  6.800	180.000	 29.94139	  9.25879	 21.56889	 15.18495	 15.51748	 -0.06440	 30.34581	705.21503	 24.00	
  6.796	-166.229	 29.94918	  9.37171	 21.39410	 13.69120	 17.11860	 -0.10154	 30.36839	705.34198	 24.00	
  6.808	-152.311	 29.88621	  9.79513	 20.86622	 12.12575	 18.54769	 -0.12447	 30.32090	705.41302	 24.00	
  6.795	-138.383	 29.89583	 10.57370	 19.99759	 10.88266	 19.82225	 -0.15570	 30.34414	705.45697	 24.00	
  6.792	-124.591	 29.88897	 11.56625	 18.82713	  9.78912	 20.84325	 -0.19040	 30.35591	705.43500	 24.00	
  6.787	-110.754	 29.89581	 12.83097	 17.41311	  9.17943	 21.50359	 -0.21720	 30.38250	705.41998	 24.00	
  6.800	-96.985	 29.88219	 14.25701	 15.88856	  8.87765	 21.89031	 -0.22577	 30.37534	705.51398	 24.00	
  6.800	-83.015	 29.81543	 15.87359	 14.10956	  8.82563	 21.86232	 -0.23529	 30.32088	705.46002	 24.00	
  6.787	-69.246	 29.83186	 17.49955	 12.69507	  9.09128	 21.52638	 -0.23137	 30.34634	705.50800	 24.00	
  6.792	-55.409	 29.86291	 18.90126	 11.39323	  9.66562	 20.90449	 -0.20105	 30.37680	705.50598	 24.00	
  6.795	-41.617	 29.88764	 20.08283	 10.29597	 10.63269	 19.93439	 -0.13282	 30.40664	705.37000	 24.00	
  6.808	-27.689	 29.87037	 21.01177	  9.48730	 11.85935	 18.66040	 -0.08493	 30.39630	705.58197	 24.00	
  6.796	-13.771	 29.84983	 21.59192	  9.00504	 13.30110	 17.14539	 -0.08217	 30.36566	705.61298	 24.00	
  6.800	  0.000	 29.86150	 21.82978	  8.82974	 14.90347	 15.59723	 -0.09042	 30.35857	705.52301	 24.00	
  6.796	 13.771	 29.87988	 21.66732	  8.98782	 16.41509	 14.02969	 -0.12368	 30.36617	705.38098	 24.00	
  6.808	 27.689	 29.93336	 21.23713	  9.43289	 17.95035	 12.47845	 -0.11899	 30.39886	705.36401	 24.00	
  6.795	 41.617	 29.93118	 20.36676	 10.22842	 19.22442	 11.43080	 -0.12671	 30.36972	705.41803	 23.90	
  6.792	 55.409	 29.90607	 19.22495	 11.18487	 20.24024	 10.51054	 -0.15102	 30.32076	705.53699	 23.90	
  6.787	 69.246	 29.98405	 17.92184	 12.50293	 21.03630	  9.91003	 -0.14860	 30.37528	705.40399	 23.90	
  6.800	 83.015	 30.01978	 16.42608	 13.93566	 21.41848	  9.57564	 -0.14430	 30.39112	705.35699	 23.90	
  6.800	 96.985	 30.03886	 14.81882	 15.76447	 21.44518	  9.51531	 -0.14024	 30.39663	705.42401	 23.90	
  6.787	110.754	 30.00857	 13.18512	 17.28629	 21.13093	  9.83285	 -0.11809	 30.34685	705.36499	 23.90	
  6.792	124.591	 30.05688	 11.93161	 18.74888	 20.48939	 10.46862	 -0.07538	 30.38655	705.39301	 23.90	
  6.795	138.383	 30.02777	 10.84751	 19.92040	 19.46264	 11.34353	 -0.03661	 30.36753	705.43298	 23.90	
  6.808	152.311	 30.03958	 10.00257	 20.88223	 18.18504	 12.43341	 -0.01135	 30.40124	705.51599	 23.90	
  6.796	166.229	 30.00628	  9.50649	 21.39607	 16.68530	 13.97060	 -0.02198	 30.37667	705.48798	 23.90	
  8.491	168.704	 29.64445	  7.84200	 22.65621	 16.37495	 13.31913	 -0.23289	 30.37933	705.55798	 23.90	
  8.502	157.493	 29.70160	  8.26586	 22.18792	 17.90309	 11.96755	 -0.20130	 30.42396	705.44897	 23.90	
  8.494	146.194	 29.70428	  8.92484	 21.45888	 19.33540	 10.76923	 -0.23039	 30.39804	705.38202	 23.90	
  8.495	135.039	 29.69187	  9.68310	 20.45859	 20.53372	  9.69700	 -0.25953	 30.37755	705.35400	 23.90	
  8.487	123.723	 29.72443	 10.85474	 19.23027	 21.44821	  8.82958	 -0.32102	 30.41149	705.42902	 23.90	
  8.492	112.575	 29.71896	 12.13815	 17.76704	 22.19008	  8.24296	 -0.35835	 30.40388	705.42401	 23.90	
  8.510	101.220	 29.67260	 13.56767	 16.19107	 22.61432	  7.85787	 -0.39225	 30.36129	705.49902	 23.90	
  8.500	 90.000	 29.69825	 15.25695	 14.38536	 22.75549	  7.83421	 -0.39416	 30.40150	705.40198	 23.90	
  8.510	 78.780	 29.65012	 16.84579	 12.82847	 22.55645	  7.94188	 -0.40314	 30.38784	705.45502	 23.90	
  8.492	 67.425	 29.66776	 18.41192	 11.38970	 22.05494	  8.34117	 -0.37677	 30.41880	705.34198	 23.90	
  8.487	 56.277	 29.63542	 19.77262	 10.19861	 21.24676	  8.91343	 -0.38505	 30.42099	705.38800	 23.90	
  8.495	 44.961	 29.57513	 20.91676	  9.09772	 20.27404	  9.78418	 -0.36781	 30.38485	705.40399	 23.90	
  8.494	 33.806	 29.56724	 21.83717	  8.22238	 19.03688	 10.88907	 -0.36578	 30.39502	705.32599	 23.90	
  8.502	 22.507	 29.57869	 22.60549	  7.62932	 17.63109	 12.07805	 -0.36574	 30.43534	705.45697	 23.90	
  8.491	 11.296	 29.56192	 23.02174	  7.26999	 16.08530	 13.44127	 -0.35659	 30.44466	705.48297	 23.90	
  8.500	  0.000	 29.53633	 23.15443	  7.10330	 14.51509	 15.21488	 -0.30650	 30.44652	705.38800	 23.90	
  8.491	-11.296	 29.51462	 22.94730	  7.24547	 12.77405	 16.76882	 -0.29653	 30.43261	705.41602	 23.90	
  8.502	-22.507	 29.48924	 22.43464	  7.63655	 11.31417	 18.36469	 -0.28043	 30.42415	705.44397	 23.90	
  8.494	-33.806	 29.51815	 21.59350	  8.35673	  9.99170	 19.77938	 -0.30958	 30.44666	705.29199	 23.90	
  8.495	-44.961	 29.49042	 20.55387	  9.21619	  8.92632	 20.94809	 -0.38142	 30.42013	705.38800	 23.80	
  8.487	-56.277	 29.49267	 19.35588	 10.28981	  8.14784	 21.87689	 -0.45275	 30.41657	705.40100	 23.90	
  8.492	-67.425	 29.50512	 17.93604	 11.57317	  7.63640	 22.61848	 -0.48109	 30.42000	705.43500	 23.90	
  8.510	-78.780	 29.51406	 16.29183	 13.02223	  7.28044	 23.09098	 -0.48314	 30.43010	705.41302	 23.80	
  8.500	-90.000	 29.56119	 14.62274	 14.58256	  7.17767	 23.24920	 -0.48343	 30.47517	705.53900	 23.80	
  8.510	-101.220	 29.55117	 13.07371	 16.29763	  7.29991	 23.08730	 -0.48637	 30.44870	705.34198	 23.80	
  8.492	-112.575	 29.56085	 11.65845	 17.89965	  7.70396	 22.57797	 -0.42837	 30.44133	705.32501	 23.80	
  8.487	-123.723	 29.57540	 10.41828	 19.32976	  8.33144	 21.81780	 -0.39052	 30.43076	705.32300	 23.80	
  8.495	-135.039	 29.61682	  9.32900	 20.60828	  9.14623	 20.91008	 -0.35351	 30.47066	705.39502	 23.80	
  8.494	-146.194	 29.64101	  8.51945	 21.63067	 10.27405	 19.71171	 -0.32873	 30.45947	705.44897	 23.80	
  8.502	-157.493	 29.63385	  7.94562	 22.28542	 11.71704	 18.28377	 -0.33470	 30.44158	705.49103	 23.80	
  8.491	-168.704	 29.67991	  7.67354	 22.74683	 13.18738	 16.77391	 -0.30509	 30.46295	705.53699	 23.80	
  8.500	180.000	 29.69745	  7.59894	 22.88423	 14.87921	 15.12482	 -0.28688	 30.45402	705.44098	 23.80	
 10.200	180.000	 29.21225	  5.85303	 24.08805	 14.20229	 14.54222	 -0.53173	 30.44402	705.40997	 23.80	
 10.191	-170.497	 29.20288	  5.89782	 23.98823	 12.67651	 16.21037	 -0.56677	 30.46510	705.45697	 23.80	
 10.210	-161.034	 29.15709	  6.14193	 23.58055	 11.11304	 17.84294	 -0.56257	 30.44928	705.47198	 23.80	
 10.194	-151.526	 29.11896	  6.56517	 22.89489	  9.70691	 19.31736	 -0.54339	 30.43364	705.39600	 23.80	
 10.190	-142.105	 29.12408	  7.22929	 22.04195	  8.59332	 20.65871	 -0.53212	 30.45658	705.45203	 23.80	
 10.215	-132.646	 29.09118	  8.05565	 21.00820	  7.55202	 21.75367	 -0.55278	 30.45915	705.48297	 23.80	
 10.203	-123.092	 29.09909	  9.13673	 19.71861	  6.67278	 22.82636	 -0.58395	 30.49826	705.59497	 23.80	
 10.192	-113.678	 29.03535	 10.39062	 18.21162	  6.03460	 23.56575	 -0.66787	 30.44271	705.45697	 23.80	
 10.208	-104.249	 29.04416	 11.77274	 16.63762	  5.57611	 24.16542	 -0.70447	 30.48578	705.34802	 23.80	
 10.210	-94.801	 29.06354	 13.29629	 14.93203	  5.33820	 24.49175	 -0.74874	 30.52836	705.53400	 23.80	
 10.210	-85.199	 29.01416	 14.87892	 13.29873	  5.30462	 24.48028	 -0.73739	 30.48341	705.53101	 23.80	
 10.208	-75.751	 28.97668	 16.54015	 11.76412	  5.48998	 24.17858	 -0.74737	 30.44860	705.47198	 23.80	
 10.192	-66.322	 29.01630	 18.23296	 10.38698	  5.88095	 23.65875	 -0.73300	 30.48448	705.41998	 23.80	
 10.203	-56.908	 29.01505	 19.66900	  9.14070	  6.47329	 22.88971	 -0.69908	 30.47836	705.44702	 23.70	
 10.215	-47.354	 28.97405	 20.90859	  7.98114	  7.26231	 21.84737	 -0.65306	 30.44343	705.45099	 23.70	
 10.190	-37.895	 28.99960	 22.04609	  7.09041	  8.25712	 20.76653	 -0.57952	 30.47464	705.52698	 23.70	
 10.194	-28.474	 29.03361	 23.02981	  6.32573	  9.38979	 19.47554	 -0.51316	 30.49494	705.33899	 23.70	
 10.210	-18.966	 28.99390	 23.73822	  5.75062	 10.73098	 17.92900	 -0.50356	 30.45081	705.44397	 23.70	
 10.191	 -9.503	 29.04418	 24.21170	  5.37661	 12.23833	 16.32774	 -0.52603	 30.48729	705.40900	 23.70	
 10.200	  0.000	 29.02996	 24.36355	  5.29625	 13.79195	 14.66194	 -0.57594	 30.46717	705.44299	 23.70	
 10.191	  9.503	 29.03839	 24.25848	  5.41208	 15.61049	 12.96701	 -0.62172	 30.45835	705.35602	 23.70	
 10.210	 18.966	 29.09114	 23.92983	  5.70064	 17.16207	 11.62967	 -0.62197	 30.48454	705.45099	 23.70	
 10.194	 28.474	 29.12446	 23.29930	  6.19469	 18.68353	 10.33957	 -0.62004	 30.48413	705.56799	 23.70	
 10.190	 37.895	 29.17319	 22.46195	  6.93044	 20.08471	  9.16150	 -0.61914	 30.50014	705.51898	 23.70	
 10.215	 47.354	 29.19589	 21.44061	  7.82882	 21.21807	  8.10437	 -0.62489	 30.50205	705.39301	 23.70	
 10.203	 56.908	 29.21258	 20.23474	  8.95288	 22.25132	  7.26926	 -0.61703	 30.49095	705.42401	 23.70	
 10.192	 66.322	 29.23439	 18.85919	 10.26281	 23.07700	  6.61224	 -0.62529	 30.48075	705.42102	 23.70	
 10.208	 75.751	 29.23408	 17.30869	 11.57628	 23.65405	  6.14861	 -0.67158	 30.45398	705.42102	 23.60	
 10.210	 85.199	 29.31292	 15.67789	 13.15230	 24.00688	  5.94026	 -0.68377	 30.50464	705.39600	 23.60	
 10.210	 94.801	 29.33208	 13.98557	 14.77239	 24.03058	  5.94665	 -0.69043	 30.49966	705.47998	 23.60	
 10.208	104.249	 29.34156	 12.46037	 16.51938	 23.78139	  6.13109	 -0.68300	 30.48739	705.32599	 23.60	
 10.192	113.678	 29.36255	 11.04222	 18.11243	 23.26187	  6.56237	 -0.62436	 30.50149	705.37903	 23.60	
 10.203	123.092	 29.35223	  9.82004	 19.56665	 22.53539	  7.13364	 -0.56202	 30.49448	705.47699	 23.60	
 10.215	132.646	 29.36550	  8.68820	 20.92092	 21.55519	  7.96077	 -0.50640	 30.52414	705.35699	 23.60	
 10.190	142.105	 29.32419	  7.69696	 21.96518	 20.42116	  8.99518	 -0.47945	 30.48099	705.42401	 23.60	
 10.194	151.526	 29.30055	  6.96096	 22.84607	 19.05089	 10.19670	 -0.43368	 30.46789	705.41602	 23.60	
 10.210	161.034	 29.31141	  6.39461	 23.56848	 17.55851	 11.48881	 -0.43148	 30.50669	705.35101	 23.60	
 10.191	170.497	 29.28091	  6.04080	 23.96583	 15.99742	 12.86274	 -0.48179	 30.49350	705.33002	 23.60	
 11.899	171.783	 28.72583	  4.18189	 25.15866	 15.33629	 12.33462	 -0.73618	 30.52544	705.36401	 23.60	
 11.890	163.610	 28.72353	  4.48157	 24.74023	 17.03122	 10.98752	 -0.67266	 30.49369	705.45099	 23.60	
 11.889	155.445	 28.72516	  4.94996	 24.12220	 18.59906	  9.63467	 -0.64158	 30.46367	705.30298	 23.60	
 11.909	147.299	 28.77231	  5.59377	 23.33095	 20.07121	  8.35488	 -0.67389	 30.51037	705.42700	 23.60	
 11.902	139.148	 28.74967	  6.40387	 22.28969	 21.24653	  7.18152	 -0.71388	 30.47954	705.33099	 23.60	
 11.894	130.867	 28.76332	  7.35045	 21.13528	 22.44252	  6.44070	 -0.76219	 30.50062	705.47699	 23.60	
 11.897	122.732	 28.77790	  8.63108	 19.83759	 23.46192	  5.64603	 -0.82436	 30.52438	705.46503	 23.60	
 11.903	114.597	 28.75528	  9.86151	 18.33177	 24.23146	  5.07456	 -0.88578	 30.48877	705.55103	 23.60	
 11.893	106.346	 28.75108	 11.19132	 16.70052	 24.79245	  4.66682	 -0.96123	 30.49392	705.53601	 23.60	
 11.892	 98.155	 28.73534	 12.66980	 14.95629	 25.12707	  4.38084	 -0.99431	 30.50366	705.59302	 23.60	
 11.900	 90.000	 28.69193	 14.20751	 13.35574	 25.19841	  4.30473	 -0.99904	 30.48421	705.42401	 23.60	
 11.892	 81.845	 28.68837	 15.87158	 11.78522	 25.03551	  4.42560	 -0.96664	 30.48006	705.54199	 23.60	
 11.893	 73.654	 28.64717	 17.56886	 10.30148	 24.62146	  4.66418	 -0.92650	 30.48348	705.52197	 23.60	
 11.903	 65.403	 28.64799	 19.16716	  8.96794	 24.00431	  5.09855	 -0.85728	 30.50523	705.54999	 23.50	
 11.897	 57.268	 28.61169	 20.56029	  7.67743	 23.13547	  5.72609	 -0.84836	 30.49559	705.48199	 23.60	
 11.894	 49.133	 28.59568	 21.77018	  6.55524	 22.07270	  6.51106	 -0.86753	 30.50423	705.42700	 23.60	
 11.902	 40.852	 28.55958	 22.84334	  5.62572	 20.91714	  7.36587	 -0.91335	 30.48125	705.46503	 23.50	
 11.909	 32.701	 28.58024	 23.85489	  4.83466	 19.66504	  8.48628	 -0.90734	 30.54385	705.56201	 23.50	
 11.889	 24.555	 28.57329	 24.61971	  4.22501	 18.16923	  9.77677	 -0.88945	 30.55415	705.43201	 23.50	
 11.890	 16.390	 28.48954	 25.11683	  3.83252	 16.55716	 11.10377	 -0.85940	 30.50516	705.49103	 23.50	
 11.899	  8.217	 28.45483	 25.41974	  3.55135	 14.82495	 12.45284	 -0.83045	 30.50503	705.45502	 23.50	
 11.900	  0.000	 28.45927	 25.51473	  3.47357	 13.22120	 14.03376	 -0.79628	 30.51858	705.40100	 23.50	
 11.899	 -8.217	 28.44641	 25.35900	  3.55205	 11.66055	 15.76203	 -0.74563	 30.52433	705.43298	 23.50	
 11.890	-16.390	 28.45347	 24.96861	  3.89646	 10.19059	 17.37970	 -0.73787	 30.54067	705.44702	 23.50	
 11.889	-24.555	 28.39569	 24.29303	  4.36087	  8.81613	 18.97374	 -0.71072	 30.49444	705.40198	 23.50	
 11.909	-32.701	 28.36673	 23.43317	  4.98101	  7.57863	 20.38741	 -0.75190	 30.47997	705.47498	 23.50	
 11.902	-40.852	 28.41492	 22.41636	  5.82892	  6.51384	 21.66514	 -0.81492	 30.52405	705.43201	 23.50	
 11.894	-49.133	 28.42882	 21.17007	  6.80537	  5.55477	 22.81368	 -0.86106	 30.54577	705.44098	 23.50	
 11.897	-57.268	 28.38229	 19.91514	  7.93269	  4.76909	 23.77470	 -0.90811	 30.49498	705.46503	 23.50	
 11.903	-65.403	 28.39245	 18.45220	  9.19436	  4.18192	 24.57665	 -0.94867	 30.51430	705.54498	 23.50	
 11.893	-73.654	 28.43550	 16.75764	 10.54762	  3.83331	 25.15870	 -0.94681	 30.53850	705.60101	 23.50	
 11.892	-81.845	 28.41060	 15.10498	 12.04786	  3.62299	 25.48620	 -0.93554	 30.50437	705.50800	 23.50	
 11.900	-90.000	 28.42868	 13.52347	 13.60991	  3.55299	 25.60992	 -0.94452	 30.52437	705.52301	 23.50	
 11.892	-98.155	 28.43900	 11.96666	 15.18476	  3.62474	 25.46890	 -0.94785	 30.51678	705.50800	 23.50	
 11.893	-106.346	 28.46412	 10.48850	 16.88848	  3.89071	 25.12353	 -0.92917	 30.53745	705.42102	 23.50	
 11.903	-114.597	 28.43667	  9.08737	 18.52202	  4.35473	 24.49499	 -0.85758	 30.49714	705.49701	 23.50	
 11.897	-122.732	 28.51381	  7.90130	 20.02752	  5.01030	 23.70236	 -0.80062	 30.55255	705.37299	 23.50	
 11.894	-130.867	 28.52243	  6.82803	 21.30861	  5.83691	 22.67023	 -0.74523	 30.51488	705.43701	 23.50	
 11.902	-139.148	 28.56191	  5.90871	 22.43470	  6.87962	 21.50472	 -0.73044	 30.53044	705.54498	 23.50	
 11.909	-147.299	 28.60995	  5.19911	 23.46853	  8.04738	 20.31196	 -0.75411	 30.55732	705.46503	 23.50	
 11.889	-155.445	 28.62692	  4.71748	 24.25061	  9.21830	 18.89705	 -0.77930	 30.52857	705.46600	 23.50	
 11.890	-163.610	 28.63911	  4.32647	 24.83391	 10.61952	 17.29768	 -0.80001	 30.51205	705.47400	 23.50	
 11.899	-171.783	 28.64817	  4.10384	 25.17525	 12.11593	 15.55947	 -0.80554	 30.49864	705.44897	 23.50	
 11.900	180.000	 28.70844	  4.07673	 25.30149	 13.72682	 13.90151	 -0.77942	 30.52980	705.37799	 23.50	
 13.600	180.000	 28.00199	  2.27525	 26.33040	 13.11085	 13.24637	 -1.04367	 30.53022	705.38800	 23.50	
 13.608	-172.853	 27.98944	  2.20797	 26.28035	 11.54959	 14.80564	 -1.07177	 30.56054	705.27100	 23.50	
 13.611	-165.583	 27.93284	  2.37650	 25.94946	 10.01640	 16.48264	 -1.05599	 30.53006	705.34802	 23.50	
 13.601	-158.353	 27.93032	  2.76554	 25.43450	  8.65827	 18.10842	 -1.04104	 30.54957	705.35602	 23.50	
 13.609	-151.210	 27.89035	  3.14382	 24.71402	  7.37225	 19.61230	 -1.00023	 30.54301	705.40100	 23.50	
 13.611	-143.999	 27.82944	  3.77773	 23.76379	  6.18246	 20.98788	 -0.96100	 30.51865	705.38800	 23.50	
 13.601	-136.825	 27.81304	  4.57948	 22.67327	  5.07921	 22.24010	 -0.93608	 30.52674	705.57800	 23.50	
 13.596	-129.640	 27.80557	  5.55292	 21.52994	  4.12631	 23.45018	 -0.94122	 30.55791	705.45502	 23.50	
 13.611	-122.431	 27.73983	  6.62363	 20.19630	  3.32666	 24.43816	 -0.97758	 30.51393	705.44702	 23.50	
 13.604	-115.211	 27.76008	  7.95000	 18.73840	  2.70492	 25.30641	 -1.04699	 30.55599	705.35101	 23.50	
 13.595	-108.042	 27.75502	  9.14618	 17.09394	  2.26705	 25.93329	 -1.09306	 30.55857	705.48199	 23.50	
 13.607	-100.793	 27.70572	 10.58348	 15.39859	  1.93255	 26.34778	 -1.11617	 30.52366	705.33002	 23.50	
 13.601	-93.617	 27.71661	 12.09531	 13.82374	  1.79286	 26.60906	 -1.08909	 30.55505	705.41199	 23.50	
 13.601	-86.383	 27.71787	 13.67867	 12.23683	  1.76401	 26.64636	 -1.05729	 30.56249	705.33002	 23.50	
 13.607	-79.207	 27.64867	 15.22694	 10.68100	  1.85400	 26.38958	 -1.03804	 30.50620	705.33398	 23.50	
 13.595	-71.958	 27.69806	 16.85451	  9.31932	  2.11561	 26.02231	 -1.03181	 30.56553	705.37500	 23.50	
 13.604	-64.789	 27.65906	 18.56971	  7.95460	  2.47903	 25.38280	 -1.04837	 30.52753	705.51599	 23.50	
 13.611	-57.569	 27.66536	 20.07035	  6.68557	  3.02523	 24.59990	 -1.04580	 30.54883	705.42102	 23.50	
 13.596	-50.360	 27.68945	 21.33321	  5.53766	  3.78606	 23.60870	 -1.02759	 30.57291	705.47198	 23.50	
 13.601	-43.175	 27.66246	 22.59811	  4.49367	  4.69654	 22.41349	 -0.98420	 30.53771	705.39502	 23.50	
 13.611	-36.001	 27.70845	 23.77829	  3.60496	  5.75612	 21.28632	 -0.93083	 30.58184	705.44897	 23.50	
 13.609	-28.790	 27.69720	 24.71533	  2.90787	  6.93141	 19.92160	 -0.90501	 30.56084	705.31702	 23.50	
 13.601	-21.647	 27.72759	 25.51863	  2.44567	  8.16948	 18.43670	 -0.87307	 30.59789	705.38702	 23.50	
 13.611	-14.417	 27.69371	 26.05807	  2.02920	  9.50346	 16.70230	 -0.90608	 30.54964	705.33899	 23.50	
 13.608	 -7.147	 27.71292	 26.41636	  1.79499	 10.99235	 14.95491	 -0.92981	 30.54645	705.30603	 23.50	
 13.600	  0.000	 27.75569	 26.58876	  1.72969	 12.55409	 13.40773	 -0.94826	 30.58767	705.44897	 23.50	
 13.608	  7.147	 27.73826	 26.50994	  1.78016	 14.13963	 11.90784	 -1.01818	 30.54915	705.35901	 23.50	
 13.611	 14.417	 27.73399	 26.22415	  2.00101	 15.73747	 10.43799	 -1.03958	 30.52068	705.22302	 23.50	
 13.601	 21.647	 27.80376	 25.76365	  2.40221	 17.46066	  9.07887	 -1.07022	 30.55380	705.32202	 23.40	
 13.609	 28.790	 27.84823	 25.11689	  2.90972	 19.05482	  7.78436	 -1.09895	 30.56385	705.28802	 23.40	
 13.611	 36.001	 27.84556	 24.24198	  3.39374	 20.46477	  6.77167	 -1.09456	 30.54155	705.43701	 23.40	
 13.601	 43.175	 27.86451	 23.17577	  4.24367	 21.68219	  5.71686	 -1.08684	 30.50992	705.26099	 23.40	
 13.596	 50.360	 27.94959	 22.01756	  5.25101	 22.95246	  4.76847	 -1.04931	 30.57936	705.39801	 23.50	
 13.611	 57.569	 27.95519	 20.81482	  6.38886	 24.02413	  3.91207	 -1.05938	 30.58240	705.34198	 23.40	
 13.604	 64.789	 27.93681	 19.38493	  7.63845	 24.84880	  3.30015	 -1.08666	 30.52630	705.31097	 23.40	
 13.595	 71.958	 28.00267	 17.81734	  8.98591	 25.55266	  2.82681	 -1.14731	 30.56921	705.39001	 23.50	
 13.607	 79.207	 28.02800	 16.09896	 10.41983	 26.01781	  2.51161	 -1.20262	 30.57292	705.37500	 23.40	
 13.601	 86.383	 28.08028	 14.52782	 11.93613	 26.28399	  2.39111	 -1.24376	 30.59806	705.33698	 23.50	
 13.601	 93.617	 28.09046	 12.90571	 13.54994	 26.29750	  2.38831	 -1.24234	 30.56578	705.33698	 23.40	
 13.607	100.793	 28.08541	 11.35809	 15.12652	 26.11029	  2.48828	 -1.22523	 30.54209	705.39801	 23.40	
 13.595	108.042	 28.12731	  9.99226	 16.85642	 25.75063	  2.80044	 -1.19163	 30.57348	705.24402	 23.40	
 13.604	115.211	 28.12287	  8.69637	 18.48527	 25.13938	  3.33254	 -1.13465	 30.55839	705.38800	 23.50	
 13.611	122.431	 28.14021	  7.41517	 20.00993	 24.36288	  3.89026	 -1.06042	 30.58229	705.33899	 23.50	
 13.596	129.640	 28.14737	  6.23100	 21.38420	 23.36437	  4.64245	 -0.98863	 30.57919	705.35602	 23.50	
 13.601	136.825	 28.12255	  5.14504	 22.57641	 22.16541	  5.55424	 -0.89783	 30.55201	705.29199	 23.50	
 13.611	143.999	 28.10548	  4.22390	 23.66978	 20.96071	  6.60686	 -0.84012	 30.54069	705.34399	 23.50	
 13.609	151.210	 28.10621	  3.47945	 24.63953	 19.60419	  7.76174	 -0.82219	 30.57039	705.33301	 23.50	
 13.601	158.353	 28.11707	  3.02829	 25.38135	 18.06474	  8.95835	 -0.85898	 30.57837	705.38800	 23.50	
 13.611	165.583	 28.08816	  2.62234	 25.92331	 16.36045	 10.31724	 -0.91360	 30.57068	705.42102	 23.50	
 13.608	172.853	 28.08831	  2.33089	 26.28682	 14.73701	 11.74535	 -0.97258	 30.60507	705.35901	 23.50	
 15.298	173.587	 27.26365	  0.69864	 27.21232	 14.05146	 11.02748	 -1.18066	 30.58410	705.30200	 23.50	
 15.291	167.167	 27.26712	  0.92690	 26.87477	 15.62644	  9.57330	 -1.12896	 30.55280	705.38702	 23.50	
 15.307	160.676	 27.28342	  1.21783	 26.40604	 17.24132	  8.32378	 -1.05029	 30.56409	705.44897	 23.50	
 15.300	154.261	 27.28173	  1.65787	 25.71560	 18.93591	  7.02895	 -1.00191	 30.53624	705.38098	 23.50	
 15.288	147.854	 27.30758	  2.23993	 24.86102	 20.39080	  5.83644	 -1.01181	 30.54863	705.39600	 23.50	
 15.293	141.428	 27.32953	  3.00780	 23.83607	 21.65597	  4.73468	 -1.04038	 30.55762	705.40100	 23.40	
 15.299	134.985	 27.31509	  3.85749	 22.66034	 22.94156	  3.70256	 -1.11267	 30.53399	705.31598	 23.40	
 15.305	128.583	 27.37521	  4.94506	 21.46207	 24.12959	  2.87699	 -1.16999	 30.60527	705.41302	 23.50	
 15.309	122.142	 27.34986	  6.13836	 20.06703	 25.09672	  2.12745	 -1.23482	 30.57742	705.30298	 23.50	
 15.304	115.711	 27.35964	  7.38754	 18.53913	 25.90103	  1.49867	 -1.28873	 30.58863	705.33002	 23.50	
 15.297	109.291	 27.33808	  8.69491	 16.86891	 26.51028	  1.00033	 -1.31987	 30.58469	705.36700	 23.50	
 15.293	102.897	 27.32567	 10.01137	 15.22588	 26.94196	  0.68168	 -1.36133	 30.57353	705.30298	 23.50	
 15.293	 96.458	 27.28773	 11.52545	 13.61030	 27.18312	  0.49754	 -1.38070	 30.56055	705.27100	 23.50	
 15.300	 90.000	 27.30754	 13.09041	 12.05395	 27.29111	  0.46904	 -1.41849	 30.60260	705.38501	 23.40	
 15.293	 83.542	 27.26142	 14.66028	 10.54984	 27.12880	  0.52527	 -1.42943	 30.58565	705.24597	 23.40	
 15.293	 77.103	 27.23997	 16.24475	  9.04619	 26.77225	  0.76388	 -1.38011	 30.57925	705.46802	 23.40	
 15.297	 70.709	 27.21634	 17.89049	  7.66806	 26.26597	  1.10668	 -1.31501	 30.58380	705.32501	 23.40	
 15.304	 64.289	 27.22793	 19.48084	  6.36366	 25.61136	  1.58120	 -1.25994	 30.62458	705.25201	 23.40	
 15.309	 57.858	 27.16014	 20.88150	  5.11199	 24.71966	  2.16734	 -1.22448	 30.58836	705.34998	 23.40	
 15.305	 51.417	 27.11223	 22.12603	  3.98987	 23.65965	  2.92914	 -1.22668	 30.57298	705.35699	 23.50	
 15.299	 45.015	 27.09956	 23.38308	  3.05399	 22.47675	  3.82957	 -1.25206	 30.58657	705.34802	 23.40	
 15.293	 38.572	 27.05816	 24.48346	  2.20196	 21.14114	  4.91121	 -1.23354	 30.56004	705.51099	 23.40	
 15.288	 32.146	 27.04571	 25.46235	  1.48606	 19.82640	  6.04079	 -1.21309	 30.59280	705.45099	 23.40	
 15.300	 25.739	 26.96766	 26.19064	  0.87918	 18.30086	  7.23975	 -1.17172	 30.55093	705.39301	 23.40	
 15.307	 19.324	 26.95432	 26.81143	  0.43597	 16.61523	  8.35110	 -1.14551	 30.57881	705.22302	 23.40	
 15.291	 12.833	 26.89677	 27.18784	  0.14613	 14.99630	  9.76440	 -1.09858	 30.54783	705.37000	 23.40	
 15.298	  6.413	 26.87741	 27.41838	 -0.03258	 13.42322	 11.21877	 -1.07147	 30.53972	705.41302	 23.40	
 15.300	  0.000	 26.90941	 27.49985	 -0.05865	 11.84290	 12.72191	 -1.02171	 30.60013	705.30603	 23.40	
 15.298	 -6.413	 26.89065	 27.36477	 -0.01649	 10.29395	 14.26167	 -1.00869	 30.58947	705.24902	 23.40	
 15.291	-12.833	 26.89041	 27.05544	  0.17878	  8.89124	 15.85825	 -0.99519	 30.59729	705.18402	 23.40	
 15.307	-19.324	 26.82685	 26.50954	  0.51595	  7.50842	 17.61783	 -0.95694	 30.56930	705.35901	 23.40	
 15.300	-25.739	 26.82907	 25.80808	  1.03442	  6.20950	 19.22063	 -0.95993	 30.57173	705.36401	 23.40	
 15.288	-32.146	 26.82671	 24.92681	  1.67454	  4.98687	 20.65404	 -0.98288	 30.55813	705.22400	 23.40	
 15.293	-38.572	 26.82508	 23.88824	  2.40618	  3.83476	 21.87717	 -1.01991	 30.56657	705.22900	 23.40	
 15.299	-45.015	 26.82919	 22.69551	  3.19854	  2.83714	 23.17505	 -1.05830	 30.57457	705.19000	 23.40	
 15.305	-51.417	 26.83222	 21.37224	  4.24777	  2.02566	 24.29078	 -1.05677	 30.55486	705.27100	 23.40	
 15.309	-57.858	 26.85350	 20.00683	  5.40700	  1.30947	 25.29938	 -1.03908	 30.58106	705.21503	 23.40	
 15.304	-64.289	 26.84675	 18.45755	  6.64704	  0.75158	 26.10397	 -1.01826	 30.57232	705.24597	 23.40	
 15.297	-70.709	 26.85628	 16.90093	  7.97796	  0.35435	 26.73221	 -1.00685	 30.56567	705.23199	 23.40	
 15.293	-77.103	 26.87532	 15.33037	  9.36969	  0.09451	 27.22242	 -0.99739	 30.59029	705.23297	 23.40	
 15.293	-83.542	 26.85040	 13.71424	 10.79172	 -0.00516	 27.46717	 -1.02633	 30.56060	705.15100	 23.40	
 15.300	-90.000	 26.88418	 12.14380	 12.35516	 -0.03968	 27.56836	 -1.07604	 30.58713	705.31598	 23.40	
 15.293	-96.458	 26.90555	 10.60891	 13.95689	  0.05213	 27.45721	 -1.14675	 30.58552	705.39001	 23.40	
 15.293	-102.897	 26.91448	  9.13850	 15.54166	  0.26138	 27.14577	 -1.20688	 30.58040	705.22998	 23.40	
 15.297	-109.291	 26.91866	  7.78879	 17.12855	  0.57029	 26.65823	 -1.19734	 30.57991	705.31097	 23.40	
 15.304	-115.711	 26.94534	  6.60830	 18.82727	  1.02858	 25.99690	 -1.16877	 30.59686	705.27802	 23.40	
 15.309	-122.142	 26.96987	  5.32140	 20.32152	  1.66901	 25.13781	 -1.11603	 30.58715	705.35602	 23.40	
 15.305	-128.583	 27.01525	  4.26178	 21.67824	  2.43700	 24.14219	 -1.09251	 30.61127	705.27698	 23.40	
 15.299	-134.985	 27.05015	  3.26578	 22.85963	  3.31841	 23.00940	 -1.09662	 30.62310	705.32501	 23.40	
 15.293	-141.428	 27.05046	  2.36647	 24.00809	  4.34546	 21.73550	 -1.10449	 30.59445	705.31097	 23.40	
 15.288	-147.854	 27.10774	  1.78066	 25.02929	  5.45974	 20.39390	 -1.15934	 30.60988	705.27698	 23.40	
 15.300	-154.261	 27.10119	  1.29741	 25.84019	  6.68021	 18.89545	 -1.20095	 30.58099	705.24902	 23.40	
 15.307	-160.676	 27.14089	  0.89580	 26.51252	  8.00576	 17.34299	 -1.24174	 30.59220	705.33099	 23.40	
 15.291	-167.167	 27.15469	  0.69891	 26.94396	  9.42323	 15.61663	 -1.26439	 30.56098	705.28302	 23.40	
 15.298	-173.587	 27.21736	  0.58930	 27.25967	 10.89845	 14.06067	 -1.25053	 30.59155	705.31598	 23.40	
 15.300	180.000	 27.24942	  0.61345	 27.33669	 12.44604	 12.50627	 -1.22260	 30.59901	705.32300	 23.40	
 17.000	180.000	 26.31137	 -1.16166	 28.15219	 11.69578	 11.75067	 -1.33701	 30.59776	705.29401	 23.40	
 16.990	-174.179	 26.26881	 -1.17716	 28.05221	 10.15818	 13.26300	 -1.36060	 30.56514	705.33002	 23.40	
 17.009	-168.383	 26.23399	 -1.11351	 27.83381	  8.75033	 14.83241	 -1.34412	 30.58553	705.25702	 23.40	
 17.000	-162.596	 26.21542	 -0.96004	 27.42801	  7.33395	 16.44043	 -1.33636	 30.60332	705.24597	 23.40	
 16.990	-156.759	 26.20113	 -0.65239	 26.84630	  5.99233	 18.04022	 -1.32357	 30.61171	705.35901	 23.40	
 16.995	-150.919	 26.17077	 -0.16710	 26.08604	  4.70624	 19.58169	 -1.31320	 30.60744	705.32202	 23.40	
 16.988	-145.161	 26.11920	  0.43783	 25.14503	  3.52365	 21.00523	 -1.26314	 30.58765	705.38702	 23.40	
 17.014	-139.343	 26.07185	  1.08217	 24.08318	  2.43407	 22.33713	 -1.22605	 30.57649	705.38501	 23.40	
 17.007	-133.546	 26.06845	  1.76767	 22.92408	  1.52167	 23.59731	 -1.19810	 30.59995	705.33899	 23.40	
 17.001	-127.699	 26.02998	  2.76767	 21.65555	  0.64322	 24.73481	 -1.19847	 30.58189	705.26300	 23.40	
 17.006	-121.937	 26.00059	  3.82000	 20.31020	  0.00743	 25.75157	 -1.21241	 30.60794	705.33002	 23.40	
 17.002	-116.134	 25.97811	  5.02291	 18.78265	 -0.59756	 26.59936	 -1.22349	 30.61310	705.18500	 23.40	
 17.001	-110.310	 25.95716	  6.28188	 17.12660	 -1.07473	 27.29146	 -1.22035	 30.62185	705.35602	 23.40	
 16.988	-104.517	 25.91025	  7.70420	 15.53571	 -1.39058	 27.76157	 -1.18346	 30.56713	705.41803	 23.40	
 17.008	-98.662	 25.90208	  9.03399	 13.91178	 -1.61295	 28.12628	 -1.08731	 30.56820	705.37500	 23.30	
 16.996	-92.909	 25.94023	 10.52719	 12.38739	 -1.70917	 28.34278	 -1.00645	 30.62102	705.46600	 23.30	
 16.996	-87.091	 25.91780	 12.06252	 10.83363	 -1.76574	 28.34712	 -0.93342	 30.61732	705.30603	 23.30	
 17.012	-81.253	 25.88403	 13.61808	  9.37415	 -1.73753	 28.20461	 -0.89919	 30.60892	705.29498	 23.30	
 16.988	-75.483	 25.87381	 15.19323	  7.96588	 -1.52837	 27.86897	 -0.89280	 30.58105	705.22302	 23.30	
 17.001	-69.690	 25.89361	 16.86277	  6.57040	 -1.23838	 27.41982	 -0.89621	 30.62181	705.18201	 23.30	
 17.002	-63.866	 25.91057	 18.44534	  5.25928	 -0.79976	 26.76407	 -0.91796	 30.62832	705.27802	 23.30	
 17.006	-58.063	 25.90006	 19.95878	  4.02114	 -0.26700	 25.92871	 -0.95266	 30.61752	705.21503	 23.30	
 17.001	-52.301	 25.88479	 21.39917	  2.92671	  0.35121	 24.93678	 -0.97292	 30.61112	705.29199	 23.30	
 17.007	-46.454	 25.86977	 22.74672	  1.94808	  1.00467	 23.78576	 -0.97748	 30.58871	705.22998	 23.30	
 17.014	-40.657	 25.85624	 23.96449	  1.00421	  1.90914	 22.55784	 -0.97884	 30.58823	705.29102	 23.30	
 16.988	-34.839	 25.91401	 25.10600	  0.21010	  3.00905	 21.38904	 -0.95751	 30.63567	705.28003	 23.30	
 16.995	-29.081	 25.89115	 25.96497	 -0.46851	  4.21384	 19.96277	 -0.93464	 30.58733	705.24103	 23.30	
 16.990	-23.241	 25.92434	 26.80127	 -0.99976	  5.48276	 18.40231	 -0.94025	 30.61390	705.26099	 23.30	
 17.000	-17.404	 25.94748	 27.44055	 -1.39101	  6.79564	 16.75895	 -0.94988	 30.62240	705.37500	 23.30	
 17.009	-11.617	 25.96073	 27.90234	 -1.67309	  8.17954	 15.16099	 -0.95196	 30.61604	705.41998	 23.20	
 16.990	 -5.821	 25.99910	 28.19103	 -1.80033	  9.60060	 13.60330	 -0.97866	 30.62707	705.31403	 23.20	
 17.000	  0.000	 25.97626	 28.30494	 -1.85856	 11.08587	 12.01358	 -0.98083	 30.61161	705.43201	 23.20	
 16.990	  5.821	 25.98124	 28.26089	 -1.79145	 12.65662	 10.50710	 -0.99325	 30.59573	705.39502	 23.20	
 17.009	 11.617	 26.03546	 28.12556	 -1.67258	 14.23780	  9.29731	 -1.01124	 30.65045	705.45099	 23.20	
 17.000	 17.404	 26.06791	 27.75899	 -1.42878	 15.82257	  7.92194	 -1.05710	 30.65624	705.37097	 23.20	
 16.990	 23.241	 26.06527	 27.20139	 -1.06583	 17.39742	  6.53583	 -1.11088	 30.61182	705.33002	 23.20	
 16.995	 29.081	 26.09031	 26.48241	 -0.57083	 18.96843	  5.24684	 -1.18045	 30.59877	705.25201	 23.20	
 16.988	 34.839	 26.13366	 25.63570	  0.07867	 20.45712	  4.07821	 -1.24884	 30.60237	705.28802	 23.20	
 17.014	 40.657	 26.18230	 24.64965	  0.82627	 21.84530	  2.91963	 -1.29111	 30.63872	705.29401	 23.20	
 17.007	 46.454	 26.20402	 23.48922	  1.72249	 23.13713	  1.91255	 -1.29336	 30.62775	705.26398	 23.20	
 17.001	 52.301	 26.26793	 22.23158	  2.72948	 24.34174	  1.04201	 -1.32259	 30.66398	705.33899	 23.20	
 17.006	 58.063	 26.29176	 20.90706	  3.69420	 25.36516	  0.43611	 -1.36217	 30.65332	705.20697	 23.20	
 17.002	 63.866	 26.29717	 19.46888	  4.91514	 26.23765	 -0.05532	 -1.38700	 30.63849	705.21503	 23.20	
 17.001	 69.690	 26.28822	 17.85610	  6.21131	 26.95048	 -0.46853	 -1.44243	 30.61754	705.30798	 23.20	
 16.988	 75.483	 26.30055	 16.26957	  7.56831	 27.47922	 -0.77224	 -1.48729	 30.59659	705.19800	 23.10	
 17.012	 81.253	 26.35858	 14.73887	  8.97524	 27.89891	 -0.96281	 -1.47576	 30.63553	705.21600	 23.10	
 16.996	 87.091	 26.37768	 13.13846	 10.53400	 28.08249	 -1.04511	 -1.46503	 30.61698	705.23798	 23.10	
 16.996	 92.909	 26.40925	 11.57610	 12.04357	 28.11484	 -1.02875	 -1.42047	 30.62390	705.11902	 23.10	
 17.008	 98.662	 26.44361	 10.16994	 13.63414	 28.00877	 -0.97874	 -1.31680	 30.63647	705.36200	 23.10	
 16.988	104.517	 26.45574	  8.71298	 15.25061	 27.68771	 -0.77629	 -1.29081	 30.62670	705.21802	 23.10	
 17.001	110.310	 26.47459	  7.30426	 16.84707	 27.23070	 -0.48859	 -1.27269	 30.62966	705.36700	 23.10	
 17.002	116.134	 26.47325	  6.00020	 18.45760	 26.56894	 -0.09340	 -1.28517	 30.61133	705.22101	 23.10	
 17.006	121.937	 26.47722	  4.76839	 19.99384	 25.75540	  0.36205	 -1.30678	 30.60976	705.30798	 23.10	
 17.001	127.699	 26.48614	  3.59651	 21.39542	 24.78853	  0.99387	 -1.28176	 30.60927	705.29199	 23.10	
 17.007	133.546	 26.47618	  2.62291	 22.69818	 23.66456	  1.83738	 -1.23579	 30.59903	705.31702	 23.10	
 17.014	139.343	 26.46799	  1.76192	 23.92575	 22.41216	  2.77187	 -1.19716	 30.61036	705.22998	 23.10	
 16.988	145.161	 26.52187	  1.01495	 25.06805	 21.16382	  3.87700	 -1.15936	 30.66146	705.33698	 23.10	
 16.995	150.919	 26.48055	  0.31780	 25.98538	 19.73340	  5.01777	 -1.13009	 30.64340	705.28601	 23.10	
 16.990	156.759	 26.47809	 -0.24545	 26.80027	 18.09463	  6.26979	 -1.15866	 30.66041	705.17798	 23.10	
 17.000	162.596	 26.45017	 -0.66762	 27.41829	 16.48898	  7.44858	 -1.20453	 30.65878	705.22900	 23.00	
 17.009	168.383	 26.38652	 -0.93786	 27.81752	 14.88659	  8.79381	 -1.26020	 30.62077	705.25201	 23.00	
 16.990	174.179	 26.37577	 -1.07150	 28.08401	 13.31792	 10.24645	 -1.30065	 30.62846	705.26300	 23.00	
 18.709	174.675	 25.35594	 -2.90080	 28.80543	 12.51238	  9.39504	 -1.35487	 30.62234	705.25702	 23.00	
 18.703	169.441	 25.40487	 -2.73609	 28.58193	 14.08858	  8.00338	 -1.33955	 30.64387	705.15997	 23.00	
 18.691	164.085	 25.42328	 -2.45873	 28.17507	 15.66260	  6.60813	 -1.28914	 30.63780	705.15900	 23.00	
 18.706	158.818	 25.46280	 -2.10407	 27.63219	 17.26941	  5.27097	 -1.26573	 30.64462	705.18402	 23.00	
 18.695	153.537	 25.48494	 -1.70289	 26.93621	 18.77154	  4.00605	 -1.21199	 30.66085	705.21802	 23.00	
 18.704	148.255	 25.52608	 -1.12229	 26.10752	 20.38311	  2.93915	 -1.20165	 30.70464	705.22101	 23.00	
 18.698	142.952	 25.49208	 -0.40337	 25.04603	 21.68890	  1.81261	 -1.20040	 30.65203	705.33002	 23.00	
 18.699	137.625	 25.45683	  0.40753	 23.84906	 22.99683	  0.87343	 -1.22977	 30.59818	705.26001	 23.00	
 18.705	132.343	 25.47780	  1.34146	 22.62384	 24.22035	  0.10205	 -1.26342	 30.61640	705.29498	 23.00	
 18.713	127.067	 25.47702	  2.33424	 21.29715	 25.34081	 -0.63493	 -1.27091	 30.63106	705.11401	 23.00	
 18.700	121.794	 25.47468	  3.40260	 19.85536	 26.30503	 -1.24277	 -1.24899	 30.63043	705.22601	 23.00	
 18.698	116.504	 25.45970	  4.62819	 18.30708	 27.12344	 -1.76630	 -1.20225	 30.62875	705.34399	 23.00	
 18.707	111.165	 25.46951	  5.92237	 16.72685	 27.80115	 -2.11015	 -1.16401	 30.64787	705.19299	 23.00	
 18.690	105.863	 25.49291	  7.26796	 15.17507	 28.30320	 -2.33717	 -1.10783	 30.65737	705.23199	 22.90	
 18.696	100.583	 25.44820	  8.71224	 13.57321	 28.62277	 -2.58063	 -1.14593	 30.63223	705.23297	 23.00	
 18.700	 95.309	 25.43470	 10.07235	 11.99164	 28.81207	 -2.67081	 -1.19120	 30.64524	705.08002	 22.90	
 18.700	 90.000	 25.40155	 11.59767	 10.44092	 28.83421	 -2.68844	 -1.26390	 30.62212	705.10602	 22.90	
 18.700	 84.691	 25.38472	 13.16805	  8.92384	 28.72597	 -2.63863	 -1.36364	 30.63402	705.21503	 22.90	
 18.696	 79.417	 25.33280	 14.69501	  7.48587	 28.43603	 -2.51249	 -1.44497	 30.61258	705.16498	 22.90	
 18.690	 74.137	 25.32086	 16.25399	  6.10260	 28.02897	 -2.30399	 -1.48033	 30.62221	705.21198	 22.90	
 18.707	 68.835	 25.29471	 17.79222	  4.75534	 27.48860	 -2.08870	 -1.48516	 30.64437	705.03198	 22.90	
 18.698	 63.496	 25.22647	 19.30679	  3.43271	 26.71755	 -1.70177	 -1.48331	 30.61458	705.06403	 22.90	
 18.700	 58.206	 25.24439	 20.78589	  2.39582	 25.86113	 -1.11354	 -1.46512	 30.67631	705.08301	 22.90	
 18.713	 52.933	 25.19226	 22.14478	  1.30742	 24.79976	 -0.46114	 -1.39446	 30.64657	705.30603	 22.90	
 18.705	 47.657	 25.19593	 23.44907	  0.32877	 23.63423	  0.27832	 -1.36099	 30.65237	705.33002	 22.90	
 18.699	 42.375	 25.16293	 24.61522	 -0.58654	 22.36419	  1.07594	 -1.32169	 30.64527	705.24701	 22.90	
 18.698	 37.048	 25.14634	 25.68342	 -1.34467	 21.07667	  2.13557	 -1.27583	 30.65536	705.31403	 22.90	
 18.704	 31.745	 25.12678	 26.63584	 -1.98528	 19.61834	  3.29265	 -1.19762	 30.65916	705.20898	 22.90	
 18.695	 26.463	 25.11777	 27.40989	 -2.47906	 18.05375	  4.55113	 -1.12869	 30.67257	705.19000	 22.90	
 18.706	 21.182	 25.08031	 28.04907	 -2.86537	 16.54749	  5.84901	 -1.07580	 30.68236	705.24103	 22.90	
 18.691	 15.915	 25.04225	 28.49621	 -3.15890	 14.98662	  7.18994	 -0.98013	 30.66618	705.32599	 22.90	
 18.703	 10.559	 24.97168	 28.77929	 -3.39255	 13.37511	  8.54403	 -0.96031	 30.61196	705.16699	 22.90	
 18.709	  5.325	 24.97064	 28.98022	 -3.50239	 11.84305	  9.93229	 -0.93151	 30.63745	705.12799	 22.90	
 18.700	  0.000	 24.97226	 28.99581	 -3.50632	 10.26474	 11.25955	 -0.92698	 30.63241	705.03302	 22.80	
 18.709	 -5.325	 24.97126	 28.92063	 -3.50757	  8.78681	 12.80798	 -0.91233	 30.67756	705.07397	 22.80	
 18.703	-10.559	 24.94634	 28.63578	 -3.33917	  7.39035	 14.33205	 -0.92467	 30.65472	705.00403	 22.80	
 18.691	-15.915	 24.93399	 28.19610	 -3.02054	  5.98934	 15.94150	 -0.91403	 30.64578	705.14203	 22.80	
 18.706	-21.182	 24.92465	 27.64293	 -2.69030	  4.68123	 17.47902	 -0.90855	 30.65310	705.08002	 22.80	
 18.695	-26.463	 24.89417	 26.93721	 -2.28350	  3.43656	 19.07348	 -0.89899	 30.63982	705.24597	 22.80	
 18.704	-31.745	 24.88608	 26.10499	 -1.80495	  2.19459	 20.61254	 -0.91179	 30.67290	705.21301	 22.80	
 18.698	-37.048	 24.87090	 25.07140	 -1.16469	  1.07974	 21.95163	 -0.92166	 30.65835	705.19897	 22.80	
 18.699	-42.375	 24.87742	 23.93015	 -0.39620	  0.17564	 23.21501	 -0.90722	 30.68198	705.18402	 22.80	
 18.705	-47.657	 24.87440	 22.66205	  0.49147	 -0.72026	 24.39217	 -0.90483	 30.68228	705.08301	 22.80	
 18.713	-52.933	 24.82961	 21.27316	  1.48494	 -1.49111	 25.46041	 -0.87862	 30.63204	705.04999	 22.80	
 18.700	-58.206	 24.87219	 19.84643	  2.69941	 -2.08267	 26.45093	 -0.86278	 30.66958	704.98700	 22.80	
 18.698	-63.496	 24.89075	 18.34964	  3.73364	 -2.49383	 27.25138	 -0.82242	 30.65714	705.04401	 22.80	
 18.707	-68.835	 24.91739	 16.81211	  5.16875	 -2.84034	 27.93682	 -0.83204	 30.67631	704.90002	 22.80	
 18.690	-74.137	 24.93184	 15.24706	  6.53684	 -3.11375	 28.45333	 -0.85737	 30.67522	704.93701	 22.80	
 18.696	-79.417	 24.92839	 13.64932	  7.93463	 -3.34531	 28.82777	 -0.86561	 30.68231	705.01001	 22.80	
 18.700	-84.691	 24.92867	 12.06455	  9.36323	 -3.46130	 29.03358	 -0.90073	 30.68375	705.01801	 22.80	
 18.700	-90.000	 24.93391	 10.52016	 10.88764	 -3.49794	 29.08950	 -0.90883	 30.67982	705.05499	 22.80	
 18.700	-95.309	 24.94415	  9.00142	 12.41340	 -3.38928	 28.99614	 -0.94801	 30.67023	704.95300	 22.80	
 18.696	-100.583	 24.94656	  7.62517	 13.99385	 -3.25430	 28.74484	 -1.00950	 30.66092	704.92902	 22.80	
 18.690	-105.863	 24.98500	  6.22897	 15.59538	 -3.00237	 28.37031	 -1.07940	 30.69435	704.88702	 22.80	
 18.707	-111.165	 24.94631	  4.83726	 17.13066	 -2.68756	 27.78182	 -1.19068	 30.64895	704.90601	 22.80	
 18.698	-116.504	 24.99973	  3.52881	 18.70196	 -2.26729	 27.12928	 -1.26455	 30.69296	704.86401	 22.80	
 18.700	-121.794	 25.01992	  2.36482	 20.26147	 -1.72639	 26.29535	 -1.26576	 30.69624	704.99402	 22.80	
 18.713	-127.067	 24.97004	  1.50235	 21.59141	 -1.08134	 25.26607	 -1.24978	 30.63609	704.90601	 22.80	
 18.705	-132.343	 25.03677	  0.63014	 22.89599	 -0.24997	 24.16710	 -1.25152	 30.67101	704.93903	 22.80	
 18.699	-137.625	 25.07842	 -0.20425	 24.13204	  0.62696	 22.92104	 -1.26846	 30.67070	705.08099	 22.80	
 18.698	-142.952	 25.12719	 -0.95400	 25.26999	  1.56308	 21.59898	 -1.32884	 30.68698	704.93701	 22.80	
 18.704	-148.255	 25.14578	 -1.65169	 26.21476	  2.72890	 20.17190	 -1.36132	 30.67677	704.92902	 22.80	
 18.695	-153.537	 25.18335	 -2.19288	 27.06441	  3.95910	 18.66403	 -1.34745	 30.68218	704.78497	 22.80	
 18.706	-158.818	 25.21605	 -2.64834	 27.76981	  5.25421	 17.11390	 -1.34003	 30.68705	704.98102	 22.80	
 18.691	-164.085	 25.30954	 -2.69826	 28.29201	  6.64921	 15.65008	 -1.32438	 30.71820	704.90601	 22.70	
 18.703	-169.441	 25.30833	 -2.90730	 28.64579	  8.10413	 14.01730	 -1.34585	 30.67881	704.90802	 22.80	
 18.709	-174.675	 25.34196	 -3.05907	 28.88783	  9.50136	 12.45760	 -1.36042	 30.69829	704.87701	 22.70	
 18.700	180.000	 25.38259	 -3.03356	 28.94615	 10.95827	 10.92426	 -1.40159	 30.69660	704.98499	 22.70	
 20.400	180.000	 24.25311	 -4.64446	 29.50648	 10.15455	 10.02718	 -1.28691	 30.66567	704.88599	 22.70	
 20.401	-175.153	 24.19692	 -4.68074	 29.42978	  8.73384	 11.50374	 -1.23747	 30.64559	704.97900	 22.70	
 20.407	-170.264	 24.18502	 -4.56265	 29.24837	  7.28771	 13.06571	 -1.25239	 30.66338	705.07800	 22.70	
 20.410	-165.423	 24.16361	 -4.38333	 28.93628	  5.85098	 14.64472	 -1.25249	 30.68349	704.90802	 22.70	
 20.392	-160.496	 24.12914	 -4.10088	 28.41769	  4.51536	 16.20317	 -1.23178	 30.65218	704.95599	 22.70	
 20.401	-155.705	 24.09124	 -3.84761	 27.80940	  3.21452	 17.69951	 -1.25167	 30.65710	704.86401	 22.70	
 20.405	-150.835	 24.04992	 -3.45172	 27.06931	  1.85430	 19.20486	 -1.27409	 30.66504	704.90100	 22.70	
 20.397	-145.903	 23.99800	 -2.93111	 26.14815	  0.71214	 20.68024	 -1.27575	 30.65851	704.93903	 22.70	
 20.392	-141.062	 23.94580	 -2.29708	 25.14281	 -0.30255	 21.99729	 -1.25088	 30.65939	705.01202	 22.70	
 20.396	-136.227	 23.92490	 -1.50237	 24.00959	 -1.16926	 23.31021	 -1.21626	 30.67044	704.95300	 22.70	
 20.408	-131.372	 23.87899	 -0.73152	 22.75389	 -1.97418	 24.52881	 -1.21615	 30.67298	704.95300	 22.70	
 20.410	-126.511	 23.88449	  0.06553	 21.51959	 -2.60679	 25.63381	 -1.21828	 30.68750	705.02698	 22.70	
 20.400	-121.604	 23.89407	  1.01837	 20.12378	 -3.19803	 26.62755	 -1.19823	 30.71243	705.00403	 22.70	
 20.403	-116.741	 23.89631	  2.01564	 18.56781	 -3.75558	 27.52104	 -1.17320	 30.73324	704.91803	 22.70	
 20.413	-111.900	 23.83667	  3.25684	 17.03244	 -4.23637	 28.20876	 -1.08597	 30.69997	704.77399	 22.70	
 20.398	-107.004	 23.83208	  4.61100	 15.47519	 -4.57162	 28.77131	 -0.97599	 30.70381	704.93402	 22.70	
 20.394	-102.132	 23.80971	  5.98046	 13.87984	 -4.83962	 29.18131	 -0.87796	 30.67441	704.89203	 22.70	
 20.403	-97.332	 23.78959	  7.34850	 12.32688	 -5.02631	 29.46442	 -0.84069	 30.66967	704.90802	 22.70	
 20.392	-92.440	 23.78802	  8.80031	 10.84306	 -5.13482	 29.61606	 -0.83599	 30.67057	704.81598	 22.70	
 20.392	-87.560	 23.82521	 10.36237	  9.29363	 -5.14993	 29.67804	 -0.84123	 30.72399	704.99298	 22.70	
 20.403	-82.668	 23.78487	 11.90331	  7.79822	 -5.10139	 29.53904	 -0.81095	 30.69786	704.92297	 22.70	
 20.394	-77.868	 23.79013	 13.45743	  6.41350	 -4.92049	 29.29871	 -0.78618	 30.70498	704.80499	 22.70	
 20.398	-72.996	 23.76466	 15.02769	  4.88392	 -4.72838	 28.89395	 -0.76070	 30.69358	704.83502	 22.70	
 20.413	-68.100	 23.76455	 16.61137	  3.62153	 -4.46719	 28.36673	 -0.73113	 30.71382	704.82703	 22.70	
 20.403	-63.259	 23.77507	 18.14998	  2.42159	 -4.09683	 27.67855	 -0.75247	 30.72315	704.83197	 22.70	
 20.400	-58.396	 23.73441	 19.63241	  1.20762	 -3.55498	 26.83524	 -0.74119	 30.66076	704.74298	 22.70	
 20.410	-53.489	 23.74853	 21.09645	  0.17972	 -2.97385	 25.92535	 -0.76671	 30.70477	704.78198	 22.70	
 20.408	-48.628	 23.76598	 22.48565	 -0.74463	 -2.29401	 24.87457	 -0.80101	 30.72682	704.78998	 22.70	
 20.396	-43.773	 23.74439	 23.72473	 -1.61486	 -1.52368	 23.63528	 -0.79828	 30.67131	704.70599	 22.70	
 20.392	-38.938	 23.74854	 24.90811	 -2.39250	 -0.68916	 22.40399	 -0.79344	 30.66668	704.75897	 22.60	
 20.397	-34.097	 23.74163	 25.96121	 -3.07578	  0.21279	 21.15004	 -0.78229	 30.68115	704.93103	 22.60	
 20.405	-29.165	 23.76020	 26.91826	 -3.63498	  1.24793	 19.65504	 -0.81688	 30.68011	704.80499	 22.60	
 20.401	-24.295	 23.81489	 27.74306	 -4.00355	  2.52735	 18.10595	 -0.83253	 30.71480	704.73700	 22.60	
 20.392	-19.504	 23.84682	 28.38154	 -4.36455	  3.81834	 16.60512	 -0.83852	 30.70524	704.73401	 22.60	
 20.410	-14.577	 23.83551	 28.90129	 -4.73687	  5.13061	 15.03093	 -0.83295	 30.69744	704.72101	 22.60	
 20.407	 -9.736	 23.83633	 29.26302	 -4.96233	  6.51560	 13.44913	 -0.81363	 30.67535	704.73700	 22.60	
 20.401	 -4.847	 23.84762	 29.50277	 -5.12347	  7.94397	 11.91887	 -0.81097	 30.68162	704.60797	 22.60	
 20.400	  0.000	 23.86497	 29.63095	 -5.22978	  9.40656	 10.61388	 -0.79934	 30.68166	704.65198	 22.60	
 20.401	  4.847	 23.86537	 29.60581	 -5.20916	 10.92900	  9.14070	 -0.82408	 30.67876	704.70300	 22.60	
 20.407	  9.736	 23.92266	 29.49097	 -5.08692	 12.48839	  7.69748	 -0.84797	 30.72145	704.76801	 22.60	
 20.410	 14.577	 23.92602	 29.18902	 -4.87921	 13.99636	  6.32763	 -0.86783	 30.69615	704.72101	 22.60	
 20.392	 19.504	 23.97421	 28.77382	 -4.60088	 15.60241	  4.93849	 -0.88211	 30.71686	704.71198	 22.60	
 20.401	 24.295	 23.97853	 28.17373	 -4.26174	 17.09606	  3.57140	 -0.96385	 30.67360	704.72601	 22.60	
 20.405	 29.165	 24.00171	 27.44594	 -3.78359	 18.60978	  2.29945	 -1.04013	 30.65864	704.75098	 22.60	
 20.397	 34.097	 24.06445	 26.62397	 -3.22416	 20.22717	  1.13967	 -1.10037	 30.71306	704.73499	 22.60	
 20.392	 38.938	 24.10231	 25.65730	 -2.54562	 21.59133	  0.34950	 -1.16664	 30.71158	704.57898	 22.60	
 20.396	 43.773	 24.08378	 24.54297	 -1.81961	 22.83234	 -0.51489	 -1.21540	 30.65179	704.66998	 22.60	
 20.408	 48.628	 24.11641	 23.37048	 -1.04230	 24.12171	 -1.41154	 -1.27099	 30.71040	704.67999	 22.60	
 20.410	 53.489	 24.12532	 22.06627	 -0.16317	 25.28252	 -2.20576	 -1.34817	 30.72829	704.65503	 22.60	
 20.400	 58.396	 24.10444	 20.60711	  0.93496	 26.26382	 -2.86497	 -1.40472	 30.67160	704.59998	 22.60	
 20.403	 63.259	 24.15139	 19.15424	  2.06015	 27.17297	 -3.39881	 -1.49229	 30.69074	704.62500	 22.60	
 20.413	 68.100	 24.20263	 17.69076	  3.28152	 27.94363	 -3.80060	 -1.54514	 30.72757	704.64398	 22.60	
 20.398	 72.996	 24.22342	 16.14635	  4.53554	 28.51716	 -3.96714	 -1.46171	 30.68676	704.59399	 22.60	
 20.394	 77.868	 24.27405	 14.61991	  5.91004	 29.00122	 -4.16194	 -1.36870	 30.72143	704.57098	 22.60	
 20.403	 82.668	 24.25944	 13.08189	  7.30456	 29.25058	 -4.27798	 -1.25128	 30.65879	704.61798	 22.60	
 20.392	 87.560	 24.31238	 11.55421	  8.80860	 29.44495	 -4.36511	 -1.14595	 30.68813	704.70398	 22.60	
 20.392	 92.440	 24.36287	 10.01307	 10.33125	 29.51034	 -4.41617	 -1.05179	 30.71008	704.52600	 22.50	
 20.403	 97.332	 24.37270	  8.56355	 11.86064	 29.39909	 -4.35970	 -1.03364	 30.69262	704.60199	 22.60	
 20.394	102.132	 24.42536	  7.17285	 13.44113	 29.17860	 -4.16836	 -1.00635	 30.69654	704.72803	 22.60	
 20.398	107.004	 24.41812	  5.82189	 15.02115	 28.79362	 -3.98384	 -1.00053	 30.70018	704.55499	 22.60	
 20.413	111.900	 24.38814	  4.49453	 16.57985	 28.25679	 -3.78793	 -1.03370	 30.69090	704.56299	 22.50	
 20.403	116.741	 24.41079	  3.13363	 18.11034	 27.62434	 -3.44956	 -1.09290	 30.70748	704.54901	 22.50	
 20.400	121.604	 24.41752	  2.16078	 19.64649	 26.82183	 -2.98749	 -1.12329	 30.72206	704.64697	 22.50	
 20.410	126.511	 24.42338	  0.97040	 21.12711	 25.85970	 -2.38341	 -1.18285	 30.72250	704.59302	 22.50	
 20.408	131.372	 24.42626	 -0.09671	 22.49295	 24.76018	 -1.66019	 -1.18555	 30.71301	704.67999	 22.50	
 20.396	136.227	 24.45066	 -1.00625	 23.78791	 23.55461	 -0.83893	 -1.19851	 30.71030	704.58502	 22.50	
 20.392	141.062	 24.47523	 -1.76382	 24.96200	 22.29159	  0.03459	 -1.20011	 30.72619	704.53699	 22.50	
 20.397	145.903	 24.45940	 -2.38963	 26.00469	 20.95675	  0.88446	 -1.21722	 30.72531	704.51099	 22.50	
 20.405	150.835	 24.43833	 -2.94334	 26.93702	 19.43126	  1.93094	 -1.26827	 30.70818	704.53101	 22.50	
 20.401	155.705	 24.44458	 -3.39986	 27.76307	 17.94707	  3.08497	 -1.30147	 30.73283	704.51398	 22.50	
 20.392	160.496	 24.43272	 -3.78053	 28.40343	 16.45433	  4.32708	 -1.32700	 30.74034	704.43103	 22.50	
 20.410	165.423	 24.37255	 -4.17416	 28.90597	 14.82274	  5.69155	 -1.35280	 30.71181	704.52600	 22.50	
 20.407	170.264	 24.36618	 -4.40586	 29.27796	 13.26244	  7.10500	 -1.33476	 30.72423	704.59900	 22.50	
 20.401	175.153	 24.32249	 -4.57493	 29.47818	 11.68698	  8.53351	 -1.30002	 30.70487	704.52301	 22.50	
  0.141	 45.000	 30.81277	 16.40893	 15.95794	 16.10948	 16.41935	  0.36091	 30.74782	704.56000	 22.50	
  4.001	128.691	 30.75656	 13.69053	 18.15178	 18.81033	 13.22795	  0.27714	 30.75613	704.54797	 22.50	
  4.002	 76.995	 30.67875	 17.08741	 14.87262	 19.44368	 12.48944	  0.20409	 30.69987	704.57898	 22.50	
  4.002	 25.892	 30.67061	 19.60914	 12.12857	 17.31222	 14.58801	  0.23823	 30.73102	704.62402	 22.50	
  4.002	-25.892	 30.64386	 19.51281	 12.17550	 14.09242	 17.97619	  0.25057	 30.72123	704.58502	 22.50	
  4.002	-76.995	 30.69305	 16.78894	 14.88590	 12.07689	 20.01559	  0.22366	 30.76599	704.63599	 22.50	
  4.001	-128.691	 30.65300	 13.47063	 18.17965	 12.83473	 19.23523	  0.24822	 30.69511	704.39001	 22.50	
  4.000	180.000	 30.68131	 12.27545	 19.66356	 15.81683	 16.20070	  0.27790	 30.70773	704.39099	 22.50	
  8.000	180.000	 30.10723	  8.18211	 22.75466	 15.15334	 15.37061	 -0.18109	 30.75131	704.40302	 22.50	
  7.991	-152.370	 30.05903	  8.74664	 21.98037	 11.52505	 19.02631	 -0.23599	 30.74686	704.51801	 22.50	
  7.997	-124.550	 29.99469	 10.81393	 19.47043	  8.92206	 21.66718	 -0.29617	 30.72431	704.51099	 22.50	
  8.006	-96.837	 29.94218	 13.97332	 15.89105	  7.80166	 23.04773	 -0.36095	 30.71741	704.60199	 22.50	
  7.988	-69.228	 29.89680	 17.78026	 12.18354	  8.11445	 22.61160	 -0.38283	 30.68343	704.46698	 22.50	
  7.997	-41.563	 29.92608	 20.89154	  9.45357	  9.72058	 20.62994	 -0.25539	 30.71728	704.62500	 22.50	
  8.008	-13.821	 29.91646	 22.74239	  7.90694	 12.81444	 17.25372	 -0.20003	 30.70308	704.39001	 22.50	
  8.008	 13.821	 29.96437	 22.84020	  7.88676	 16.60582	 13.41718	 -0.25334	 30.72232	704.45001	 22.50	
  7.997	 41.563	 30.02656	 21.24360	  9.32534	 19.96988	 10.59727	 -0.26870	 30.72080	704.48999	 22.50	
  7.988	 69.228	 30.08032	 18.31267	 11.97363	 22.07844	  8.78495	 -0.30421	 30.71877	704.60498	 22.50	
  8.006	 96.837	 30.11463	 14.53005	 15.81621	 22.63382	  8.36383	 -0.30786	 30.70734	704.53998	 22.50	
  7.997	124.550	 30.16520	 11.28450	 19.37142	 21.45553	  9.41805	 -0.20445	 30.73121	704.62097	 22.50	
  7.991	152.370	 30.14377	  9.02773	 21.86736	 18.67481	 11.86014	 -0.11054	 30.72259	704.53699	 22.50	
 12.009	161.059	 28.89215	  4.52629	 24.83322	 17.65170	 10.55588	 -0.65340	 30.71135	704.52899	 22.50	
 12.013	142.081	 28.96954	  6.06056	 22.92718	 21.10545	  7.52029	 -0.67328	 30.75464	704.44702	 22.50	
 12.006	123.113	 28.90801	  8.56163	 20.04372	 23.62845	  5.56050	 -0.82193	 30.68870	704.55499	 22.50	
 12.007	104.200	 28.92481	 11.61380	 16.40672	 25.16876	  4.45419	 -0.95724	 30.72737	704.43103	 22.50	
 11.989	 85.301	 28.88500	 15.24342	 12.49531	 25.39385	  4.26588	 -0.97323	 30.72235	704.60400	 22.50	
 12.013	 66.294	 28.79036	 19.07178	  9.11490	 24.30753	  4.92816	 -0.88173	 30.70049	704.54901	 22.50	
 12.012	 47.388	 28.71899	 22.14563	  6.27786	 21.98783	  6.64878	 -0.85266	 30.67518	704.58002	 22.50	
 11.990	 28.440	 28.68635	 24.45905	  4.44019	 19.01163	  9.10780	 -0.89737	 30.70940	704.57098	 22.50	
 11.991	  9.464	 28.62616	 25.65681	  3.60317	 15.14326	 12.26997	 -0.84102	 30.73415	704.54901	 22.50	
 11.991	 -9.464	 28.57283	 25.51770	  3.51092	 11.44983	 16.05805	 -0.73405	 30.69733	704.59601	 22.50	
 11.990	-28.440	 28.54114	 24.12104	  4.57245	  8.20101	 19.80305	 -0.71404	 30.70147	704.43597	 22.50	
 12.012	-47.388	 28.55411	 21.61352	  6.49327	  5.67019	 22.74192	 -0.84747	 30.73035	704.44202	 22.50	
 12.013	-66.294	 28.56529	 18.41915	  9.34299	  4.06034	 24.88275	 -0.93864	 30.73867	704.49500	 22.50	
 11.989	-85.301	 28.59880	 14.52850	 12.75326	  3.52837	 25.77926	 -0.92529	 30.72445	704.36798	 22.50	
 12.007	-104.200	 28.62802	 10.88667	 16.48428	  3.72196	 25.46411	 -0.92145	 30.74930	704.45300	 22.50	
 12.006	-123.113	 28.66145	  7.82824	 20.24541	  4.97139	 23.83777	 -0.79340	 30.74143	704.40302	 22.50	
 12.013	-142.081	 28.73238	  5.56897	 23.04226	  7.24784	 21.20763	 -0.75088	 30.75397	704.58502	 22.50	
 12.009	-161.059	 28.77890	  4.35162	 24.91957	 10.15208	 17.88164	 -0.79804	 30.71301	704.42798	 22.50	
 16.000	180.000	 26.98426	 -0.13273	 27.80620	 12.19038	 12.21096	 -1.28250	 30.72529	704.44501	 22.50	
 15.990	-165.604	 26.92047	  0.00332	 27.34274	  8.72519	 15.91483	 -1.29851	 30.72405	704.42401	 22.50	
 16.002	-151.165	 26.81767	  0.80710	 25.85229	  5.55171	 19.65065	 -1.22850	 30.70548	704.42102	 22.50	
 16.002	-136.836	 26.76689	  2.28633	 23.47772	  2.96463	 22.85526	 -1.13765	 30.72421	704.40302	 22.50	
 15.995	-122.439	 26.72491	  4.69342	 20.51287	  0.99704	 25.43455	 -1.16331	 30.73407	704.35101	 22.40	
 15.993	-107.966	 26.63354	  7.56154	 16.75538	 -0.19306	 27.21457	 -1.21044	 30.72432	704.34900	 22.50	
 16.005	-93.629	 26.62045	 10.91074	 13.02816	 -0.70697	 28.01466	 -1.08892	 30.75996	704.43799	 22.40	
 15.992	-79.234	 26.58106	 14.57485	  9.49514	 -0.64495	 27.81128	 -0.94202	 30.74239	704.34497	 22.40	
 16.009	-64.774	 26.59211	 18.40992	  6.23056	  0.15008	 26.63210	 -0.95128	 30.76188	704.28601	 22.40	
 15.997	-50.364	 26.58054	 21.84880	  3.46960	  1.43311	 24.43748	 -1.01647	 30.72182	704.39001	 22.40	
 15.997	-36.045	 26.56704	 24.64982	  1.34801	  3.65989	 21.65599	 -0.98011	 30.72020	704.37701	 22.40	
 16.000	-21.597	 26.59013	 26.70131	 -0.11191	  6.57474	 18.18870	 -0.96232	 30.71957	704.44202	 22.40	
 16.003	 -7.169	 26.66529	 27.82369	 -0.77802	  9.83452	 14.27921	 -1.00281	 30.74696	704.38300	 22.40	
 16.003	  7.169	 26.67554	 27.92689	 -0.75110	 13.44633	 10.74331	 -1.03809	 30.74389	704.37598	 22.40	
 16.000	 21.597	 26.70174	 27.04640	 -0.14723	 17.16251	  7.63547	 -1.12878	 30.70147	704.51703	 22.40	
 15.997	 36.045	 26.83143	 25.26944	  1.20122	 20.83601	  4.72362	 -1.23481	 30.75368	704.50000	 22.40	
 15.997	 50.364	 26.87070	 22.56852	  3.26620	 23.79185	  2.31362	 -1.24775	 30.72142	704.47302	 22.40	
 16.009	 64.774	 26.93534	 19.38259	  5.92152	 26.05453	  0.75897	 -1.32120	 30.72547	704.56500	 22.40	
 15.992	 79.234	 26.97378	 15.60862	  9.12390	 27.39470	  0.03596	 -1.44097	 30.70389	704.35101	 22.40	
 16.005	 93.629	 27.06610	 11.94062	 12.70805	 27.75576	 -0.12300	 -1.39387	 30.73976	704.35797	 22.40	
 15.993	107.966	 27.10233	  8.55980	 16.48338	 27.07790	  0.31983	 -1.30274	 30.72393	704.32703	 22.40	
 15.995	122.439	 27.15550	  5.52527	 20.24675	 25.45374	  1.39972	 -1.25342	 30.75108	704.27002	 22.40	
 16.002	136.836	 27.11624	  2.99890	 23.28890	 22.87022	  3.30731	 -1.13531	 30.70875	704.29602	 22.40	
 16.002	151.165	 27.09425	  1.28808	 25.75155	 19.78140	  5.88327	 -1.04130	 30.72468	704.36902	 22.40	
 15.990	165.604	 27.01804	  0.24545	 27.24697	 15.90338	  8.78915	 -1.14808	 30.68539	704.29498	 22.40	
 20.003	168.362	 24.63892	 -3.93434	 29.02763	 13.99592	  6.83742	 -1.33382	 30.70900	704.27502	 22.40	
 20.008	156.764	 24.68672	 -3.17194	 27.81924	 17.67345	  3.67295	 -1.26506	 30.71866	704.38800	 22.40	
 20.000	145.147	 24.70735	 -2.02408	 25.80983	 21.16775	  1.01699	 -1.18808	 30.72882	704.43799	 22.40	
 19.995	133.545	 24.71161	 -0.07488	 23.07870	 24.18667	 -0.93226	 -1.18468	 30.71455	704.32098	 22.40	
 20.009	121.926	 24.68012	  2.37044	 19.79673	 26.68071	 -2.57881	 -1.15135	 30.71214	704.37598	 22.40	
 20.005	110.327	 24.68913	  5.23828	 16.21760	 28.35375	 -3.47120	 -1.01289	 30.70461	704.35797	 22.40	
 19.989	 98.733	 24.68998	  8.46056	 12.53280	 29.25694	 -3.94026	 -1.02512	 30.72516	704.52399	 22.40	
 19.999	 87.075	 24.64019	 11.91477	  8.91336	 29.37403	 -3.97353	 -1.16961	 30.74741	704.29797	 22.40	
 19.992	 75.457	 24.57456	 15.54347	  5.56728	 28.65863	 -3.60558	 -1.41458	 30.71099	704.35498	 22.40	
 20.009	 63.844	 24.50774	 19.11163	  2.56741	 27.23458	 -3.05188	 -1.49455	 30.77101	704.25800	 22.40	
 19.989	 52.269	 24.41704	 22.42028	 -0.01798	 24.93745	 -1.61073	 -1.30196	 30.70744	704.33502	 22.40	
 19.999	 40.602	 24.39315	 25.25845	 -1.93637	 22.03479	  0.38179	 -1.18654	 30.71844	704.43597	 22.40	
 20.004	 29.051	 24.31747	 27.44078	 -3.43550	 18.66267	  2.70652	 -1.00179	 30.71036	704.38300	 22.40	
 20.005	 17.433	 24.21881	 28.85114	 -4.35203	 15.06044	  5.80029	 -0.87478	 30.69614	704.18500	 22.40	
 20.006	  5.780	 24.20978	 29.56122	 -4.81370	 11.45572	  9.09494	 -0.80291	 30.76193	704.16498	 22.40	
 20.006	 -5.780	 24.14357	 29.40046	 -4.74573	  7.92972	 12.37484	 -0.80758	 30.70848	704.36603	 22.40	
 20.005	-17.433	 24.13915	 28.55391	 -4.16822	  4.66273	 16.06899	 -0.80981	 30.73799	704.34802	 22.40	
 20.004	-29.051	 24.08201	 26.91235	 -3.28291	  1.63647	 19.70268	 -0.81932	 30.70967	704.19397	 22.40	
 19.999	-40.602	 24.08538	 24.54743	 -1.77391	 -0.66286	 22.84273	 -0.77447	 30.74290	704.37598	 22.40	
 19.989	-52.269	 24.06373	 21.48724	  0.29585	 -2.46696	 25.62646	 -0.77145	 30.72700	704.12097	 22.40	
 20.009	-63.844	 24.09740	 18.10231	  2.93655	 -3.76452	 27.69972	 -0.70766	 30.75866	704.22498	 22.40	
 19.992	-75.457	 24.13010	 14.44735	  5.99531	 -4.38775	 29.02122	 -0.74570	 30.75475	704.17200	 22.40	
 19.999	-87.075	 24.15618	 10.76225	  9.39005	 -4.74026	 29.56058	 -0.79538	 30.75478	704.28101	 22.40	
 19.989	-98.733	 24.18278	  7.26257	 12.99868	 -4.57645	 29.35848	 -0.82840	 30.77841	704.29498	 22.40	
 20.005	-110.327	 24.15266	  4.02463	 16.65678	 -3.96019	 28.31615	 -1.04384	 30.73194	704.19897	 22.40	
 20.009	-121.926	 24.22392	  1.28028	 20.27753	 -2.80491	 26.55168	 -1.17633	 30.74706	704.31403	 22.40	
 19.995	-133.545	 24.27040	 -0.71247	 23.39358	 -1.29779	 24.04268	 -1.18595	 30.76801	704.24701	 22.40	
 20.000	-145.147	 24.34230	 -2.48653	 26.00554	  0.91940	 20.98224	 -1.25017	 30.73077	704.27197	 22.40	
 20.008	-156.764	 24.43955	 -3.57439	 27.94373	  3.80644	 17.48771	 -1.22658	 30.73317	704.18298	 22.40	
 20.003	-168.362	 24.52415	 -4.11763	 29.10974	  7.00948	 13.86774	 -1.22241	 30.75323	704.14099	 22.40	
 20.000	180.000	 24.57067	 -4.26709	 29.43773	 10.36966	 10.22225	 -1.25501	 30.70758	704.21399	 22.40	
